3995.57236	0.20126
3991.71563	0.20239
3987.85890	0.20131
3984.00217	0.19940
3980.14544	0.19866
3976.28871	0.20048
3972.43198	0.20394
3968.57525	0.20550
3964.71852	0.20540
3960.86179	0.20722
3957.00506	0.21211
3953.14833	0.21581
3949.29160	0.21400
3945.43487	0.20906
3941.57814	0.20665
3937.72141	0.20754
3933.86468	0.20753
3930.00795	0.20402
3926.15122	0.20194
3922.29449	0.20483
3918.43776	0.20800
3914.58103	0.20803
3910.72430	0.20825
3906.86757	0.20950
3903.01084	0.20919
3899.15411	0.20965
3895.29737	0.21238
3891.44064	0.21326
3887.58391	0.21215
3883.72718	0.21216
3879.87045	0.21398
3876.01372	0.21745
3872.15699	0.22160
3868.30026	0.22419
3864.44353	0.22411
3860.58680	0.22232
3856.73007	0.22099
3852.87334	0.21949
3849.01661	0.21747
3845.15988	0.21720
3841.30315	0.21794
3837.44642	0.21791
3833.58969	0.21616
3829.73296	0.21511
3825.87623	0.21863
3822.01950	0.22634
3818.16277	0.23219
3814.30604	0.23160
3810.44931	0.22706
3806.59258	0.21998
3802.73585	0.21395
3798.87912	0.21475
3795.02239	0.21757
3791.16566	0.21771
3787.30893	0.21751
3783.45220	0.21750
3779.59547	0.21494
3775.73874	0.21078
3771.88201	0.20976
3768.02528	0.21161
3764.16855	0.21090
3760.31182	0.20830
3756.45509	0.20850
3752.59836	0.21051
3748.74163	0.21121
3744.88490	0.20954
3741.02817	0.20585
3737.17144	0.20292
3733.31471	0.20184
3729.45798	0.20049
3725.60125	0.19788
3721.74452	0.19498
3717.88779	0.19238
3714.03106	0.18974
3710.17433	0.18740
3706.31760	0.18530
3702.46087	0.18259
3698.60414	0.17930
3694.74741	0.17599
3690.89068	0.17238
3687.03395	0.16805
3683.17722	0.16325
3679.32049	0.15698
3675.46376	0.14764
3671.60703	0.13614
3667.75030	0.12756
3663.89357	0.12197
3660.03684	0.11585
3656.18011	0.11083
3652.32338	0.10889
3648.46665	0.10684
3644.60992	0.10247
3640.75319	0.09645
3636.89646	0.09105
3633.03973	0.08977
3629.18300	0.09164
3625.32627	0.09302
3621.46954	0.09368
3617.61281	0.09369
3613.75608	0.09150
3609.89935	0.08969
3606.04262	0.09173
3602.18589	0.09422
3598.32916	0.09340
3594.47243	0.09198
3590.61570	0.09251
3586.75897	0.09152
3582.90224	0.08887
3579.04551	0.08869
3575.18878	0.08935
3571.33205	0.08678
3567.47532	0.08361
3563.61859	0.08485
3559.76186	0.08701
3555.90513	0.08649
3552.04840	0.08407
3548.19167	0.08179
3544.33494	0.08110
3540.47821	0.08329
3536.62148	0.08726
3532.76475	0.08931
3528.90802	0.08671
3525.05129	0.08197
3521.19456	0.08115
3517.33783	0.08444
3513.48110	0.08709
3509.62437	0.08678
3505.76764	0.08551
3501.91091	0.08809
3498.05418	0.09383
3494.19745	0.09430
3490.34072	0.08612
3486.48399	0.07819
3482.62726	0.07854
3478.77053	0.08451
3474.91380	0.08768
3471.05707	0.08246
3467.20034	0.07490
3463.34361	0.07473
3459.48688	0.08067
3455.63015	0.08537
3451.77342	0.08683
3447.91669	0.08577
3444.05996	0.08335
3440.20323	0.08131
3436.34650	0.07987
3432.48977	0.07957
3428.63304	0.08165
3424.77631	0.08318
3420.91958	0.08042
3417.06285	0.07600
3413.20612	0.07442
3409.34939	0.07605
3405.49266	0.07997
3401.63593	0.08381
3397.77920	0.08494
3393.92247	0.08302
3390.06574	0.08190
3386.20901	0.08454
3382.35228	0.08631
3378.49555	0.08446
3374.63881	0.08230
3370.78208	0.08068
3366.92535	0.08020
3363.06862	0.08230
3359.21189	0.08290
3355.35516	0.08033
3351.49843	0.07831
3347.64170	0.07878
3343.78497	0.07813
3339.92824	0.07545
3336.07151	0.07499
3332.21478	0.07776
3328.35805	0.07989
3324.50132	0.07828
3320.64459	0.07415
3316.78786	0.07189
3312.93113	0.07385
3309.07440	0.07739
3305.21767	0.07987
3301.36094	0.08416
3297.50421	0.08815
3293.64748	0.08660
3289.79075	0.08241
3285.93402	0.08041
3282.07729	0.07876
3278.22056	0.07773
3274.36383	0.07972
3270.50710	0.08225
3266.65037	0.08464
3262.79364	0.08871
3258.93691	0.08786
3255.08018	0.08165
3251.22345	0.07959
3247.36672	0.08221
3243.50999	0.08288
3239.65326	0.08141
3235.79653	0.07989
3231.93980	0.07846
3228.08307	0.07979
3224.22634	0.08398
3220.36961	0.08552
3216.51288	0.08346
3212.65615	0.08234
3208.79942	0.08330
3204.94269	0.08688
3201.08596	0.09089
3197.22923	0.09091
3193.37250	0.08856
3189.51577	0.08662
3185.65904	0.08549
3181.80231	0.08524
3177.94558	0.08548
3174.08885	0.08716
3170.23212	0.08960
3166.37539	0.08874
3162.51866	0.08407
3158.66193	0.08022
3154.80520	0.07979
3150.94847	0.08106
3147.09174	0.08246
3143.23501	0.08404
3139.37828	0.08638
3135.52155	0.09015
3131.66482	0.09435
3127.80809	0.09537
3123.95136	0.09223
3120.09463	0.08974
3116.23790	0.09193
3112.38117	0.09482
3108.52444	0.09288
3104.66771	0.08892
3100.81098	0.08792
3096.95425	0.08895
3093.09752	0.08915
3089.24079	0.08840
3085.38406	0.08882
3081.52733	0.09157
3077.67060	0.09372
3073.81387	0.09270
3069.95714	0.09199
3066.10041	0.09456
3062.24368	0.09741
3058.38695	0.09826
3054.53022	0.09702
3050.67349	0.09496
3046.81676	0.09416
3042.96003	0.09378
3039.10330	0.09234
3035.24657	0.08988
3031.38984	0.08770
3027.53311	0.08798
3023.67638	0.09096
3019.81965	0.09352
3015.96292	0.09372
3012.10619	0.09337
3008.24946	0.09306
3004.39273	0.09102
3000.53600	0.08805
2996.67927	0.08682
2992.82254	0.08759
2988.96581	0.08947
2985.10908	0.09208
2981.25235	0.09425
2977.39562	0.09544
2973.53889	0.09481
2969.68216	0.09241
2965.82543	0.09351
2961.96870	0.09753
2958.11197	0.09592
2954.25524	0.08957
2950.39851	0.08767
2946.54178	0.09260
2942.68505	0.09874
2938.82832	0.10045
2934.97159	0.09811
2931.11486	0.09407
2927.25813	0.08897
2923.40140	0.08689
2919.54467	0.09070
2915.68794	0.09528
2911.83121	0.09571
2907.97448	0.09401
2904.11775	0.09317
2900.26102	0.09367
2896.40429	0.09362
2892.54756	0.09261
2888.69083	0.09197
2884.83410	0.09120
2880.97737	0.09146
2877.12064	0.09506
2873.26391	0.09878
2869.40718	0.09887
2865.55045	0.09676
2861.69372	0.09466
2857.83698	0.09396
2853.98025	0.09652
2850.12352	0.09952
2846.26679	0.10004
2842.41006	0.09975
2838.55333	0.10105
2834.69660	0.10167
2830.83987	0.09876
2826.98314	0.09569
2823.12641	0.09410
2819.26968	0.09190
2815.41295	0.09072
2811.55622	0.09127
2807.69949	0.09184
2803.84276	0.09283
2799.98603	0.09427
2796.12930	0.09559
2792.27257	0.09655
2788.41584	0.09603
2784.55911	0.09379
2780.70238	0.09182
2776.84565	0.09158
2772.98892	0.09204
2769.13219	0.09141
2765.27546	0.09054
2761.41873	0.09128
2757.56200	0.09296
2753.70527	0.09484
2749.84854	0.09690
2745.99181	0.09832
2742.13508	0.09795
2738.27835	0.09542
2734.42162	0.09262
2730.56489	0.09229
2726.70816	0.09429
2722.85143	0.09526
2718.99470	0.09443
2715.13797	0.09476
2711.28124	0.09677
2707.42451	0.09830
2703.56778	0.09754
2699.71105	0.09480
2695.85432	0.09363
2691.99759	0.09475
2688.14086	0.09566
2684.28413	0.09552
2680.42740	0.09477
2676.57067	0.09448
2672.71394	0.09498
2668.85721	0.09465
2665.00048	0.09321
2661.14375	0.09238
2657.28702	0.09289
2653.43029	0.09298
2649.57356	0.09263
2645.71683	0.09392
2641.86010	0.09577
2638.00337	0.09611
2634.14664	0.09508
2630.28991	0.09354
2626.43318	0.09305
2622.57645	0.09385
2618.71972	0.09424
2614.86299	0.09362
2611.00626	0.09370
2607.14953	0.09537
2603.29280	0.09702
2599.43607	0.09704
2595.57934	0.09556
2591.72261	0.09358
2587.86588	0.09291
2584.00915	0.09394
2580.15242	0.09458
2576.29569	0.09448
2572.43896	0.09487
2568.58223	0.09577
2564.72550	0.09725
2560.86877	0.09885
2557.01204	0.09914
2553.15531	0.09805
2549.29858	0.09693
2545.44185	0.09627
2541.58512	0.09581
2537.72839	0.09523
2533.87166	0.09403
2530.01493	0.09274
2526.15820	0.09271
2522.30147	0.09361
2518.44474	0.09486
2514.58801	0.09723
2510.73128	0.10012
2506.87455	0.10084
2503.01782	0.09926
2499.16109	0.09827
2495.30436	0.09849
2491.44763	0.09806
2487.59090	0.09658
2483.73417	0.09557
2479.87744	0.09534
2476.02071	0.09502
2472.16398	0.09500
2468.30725	0.09506
2464.45052	0.09425
2460.59379	0.09365
2456.73706	0.09474
2452.88033	0.09702
2449.02360	0.09898
2445.16687	0.10002
2441.31014	0.09995
2437.45341	0.09883
2433.59668	0.09786
2429.73995	0.09755
2425.88322	0.09714
2422.02649	0.09657
2418.16976	0.09650
2414.31303	0.09727
2410.45630	0.09767
2406.59957	0.09644
2402.74284	0.09573
2398.88611	0.09754
2395.02938	0.09991
2391.17265	0.10089
2387.31592	0.10059
2383.45919	0.09941
2379.60246	0.09811
2375.74573	0.09734
2371.88900	0.09618
2368.03227	0.09307
2364.17554	0.08951
2360.31881	0.08953
2356.46208	0.09631
2352.60535	0.10450
2348.74862	0.10683
2344.89189	0.10378
2341.03516	0.09849
2337.17842	0.09493
2333.32169	0.09513
2329.46496	0.09719
2325.60823	0.09983
2321.75150	0.10232
2317.89477	0.10405
2314.03804	0.10529
2310.18131	0.10535
2306.32458	0.10397
2302.46785	0.10301
2298.61112	0.10341
2294.75439	0.10440
2290.89766	0.10553
2287.04093	0.10675
2283.18420	0.10741
2279.32747	0.10706
2275.47074	0.10660
2271.61401	0.10693
2267.75728	0.10692
2263.90055	0.10595
2260.04382	0.10536
2256.18709	0.10551
2252.33036	0.10598
2248.47363	0.10678
2244.61690	0.10812
2240.76017	0.11030
2236.90344	0.11186
2233.04671	0.11095
2229.18998	0.10901
2225.33325	0.10789
2221.47652	0.10713
2217.61979	0.10668
2213.76306	0.10730
2209.90633	0.10806
2206.04960	0.10802
2202.19287	0.10783
2198.33614	0.10758
2194.47941	0.10712
2190.62268	0.10679
2186.76595	0.10723
2182.90922	0.10847
2179.05249	0.10840
2175.19576	0.10651
2171.33903	0.10571
2167.48230	0.10712
2163.62557	0.10915
2159.76884	0.11012
2155.91211	0.10937
2152.05538	0.10815
2148.19865	0.10855
2144.34192	0.11025
2140.48519	0.11068
2136.62846	0.10919
2132.77173	0.10818
2128.91500	0.10968
2125.05827	0.11214
2121.20154	0.11212
2117.34481	0.11032
2113.48808	0.10979
2109.63135	0.11018
2105.77462	0.11039
2101.91789	0.11122
2098.06116	0.11308
2094.20443	0.11445
2090.34770	0.11424
2086.49097	0.11339
2082.63424	0.11252
2078.77751	0.11154
2074.92078	0.11122
2071.06405	0.11254
2067.20732	0.11449
2063.35059	0.11494
2059.49386	0.11379
2055.63713	0.11275
2051.78040	0.11327
2047.92367	0.11435
2044.06694	0.11365
2040.21021	0.11227
2036.35348	0.11251
2032.49675	0.11370
2028.64002	0.11463
2024.78329	0.11469
2020.92656	0.11323
2017.06983	0.11146
2013.21310	0.11076
2009.35637	0.11046
2005.49964	0.11029
2001.64291	0.11114
1997.78618	0.11318
1993.92945	0.11511
1990.07272	0.11573
1986.21599	0.11529
1982.35926	0.11479
1978.50253	0.11488
1974.64580	0.11422
1970.78907	0.11214
1966.93234	0.11085
1963.07561	0.11141
1959.21888	0.11248
1955.36215	0.11272
1951.50542	0.11175
1947.64869	0.11059
1943.79196	0.11060
1939.93523	0.11114
1936.07850	0.11155
1932.22177	0.11230
1928.36504	0.11241
1924.50831	0.11113
1920.65158	0.11010
1916.79485	0.11057
1912.93812	0.11166
1909.08139	0.11222
1905.22466	0.11216
1901.36793	0.11182
1897.51120	0.11139
1893.65447	0.11109
1889.79774	0.11148
1885.94101	0.11270
1882.08428	0.11285
1878.22755	0.11143
1874.37082	0.10997
1870.51409	0.10773
1866.65736	0.10469
1862.80063	0.10388
1858.94390	0.10549
1855.08717	0.10732
1851.23044	0.10805
1847.37371	0.10747
1843.51698	0.10629
1839.66025	0.10544
1835.80352	0.10462
1831.94679	0.10305
1828.09006	0.10115
1824.23333	0.09978
1820.37660	0.09858
1816.51986	0.09728
1812.66313	0.09676
1808.80640	0.09732
1804.94967	0.09720
1801.09294	0.09548
1797.23621	0.09407
1793.37948	0.09408
1789.52275	0.09374
1785.66602	0.09161
1781.80929	0.08850
1777.95256	0.08598
1774.09583	0.08467
1770.23910	0.08389
1766.38237	0.08428
1762.52564	0.08612
1758.66891	0.08745
1754.81218	0.08709
1750.95545	0.08585
1747.09872	0.08615
1743.24199	0.08916
1739.38526	0.09147
1735.52853	0.09112
1731.67180	0.09174
1727.81507	0.09237
1723.95834	0.08932
1720.10161	0.08379
1716.24488	0.07822
1712.38815	0.07300
1708.53142	0.06946
1704.67469	0.06665
1700.81796	0.06281
1696.96123	0.05907
1693.10450	0.05831
1689.24777	0.05975
1685.39104	0.06194
1681.53431	0.06495
1677.67758	0.06825
1673.82085	0.07067
1669.96412	0.07143
1666.10739	0.07269
1662.25066	0.07653
1658.39393	0.08183
1654.53720	0.08722
1650.68047	0.08850
1646.82374	0.08493
1642.96701	0.08340
1639.11028	0.08425
1635.25355	0.08485
1631.39682	0.08494
1627.54009	0.08364
1623.68336	0.08297
1619.82663	0.08596
1615.96990	0.08884
1612.11317	0.08819
1608.25644	0.08636
1604.39971	0.08400
1600.54298	0.08186
1596.68625	0.08204
1592.82952	0.08319
1588.97279	0.08211
1585.11606	0.07882
1581.25933	0.07655
1577.40260	0.07707
1573.54587	0.07791
1569.68914	0.07713
1565.83241	0.07693
1561.97568	0.07944
1558.11895	0.08551
1554.26222	0.09109
1550.40549	0.09244
1546.54876	0.09143
1542.69203	0.09210
1538.83530	0.09746
1534.97857	0.10138
1531.12184	0.09996
1527.26511	0.09553
1523.40838	0.09233
1519.55165	0.09359
1515.69492	0.09734
1511.83819	0.10025
1507.98146	0.10068
1504.12473	0.09885
1500.26800	0.09740
1496.41127	0.09648
1492.55454	0.09533
1488.69781	0.09409
1484.84108	0.09370
1480.98435	0.09409
1477.12762	0.09383
1473.27089	0.09308
1469.41416	0.09334
1465.55743	0.09385
1461.70070	0.09332
1457.84397	0.09219
1453.98724	0.09254
1450.13051	0.09333
1446.27378	0.09230
1442.41705	0.09046
1438.56032	0.08803
1434.70359	0.08493
1430.84686	0.08351
1426.99013	0.08301
1423.13340	0.08273
1419.27667	0.08408
1415.41994	0.08564
1411.56321	0.08618
1407.70648	0.08589
1403.84975	0.08511
1399.99302	0.08551
1396.13629	0.08700
1392.27956	0.08747
1388.42283	0.08675
1384.56610	0.08613
1380.70937	0.08662
1376.85264	0.08897
1372.99591	0.09187
1369.13918	0.09294
1365.28245	0.09143
1361.42572	0.08841
1357.56899	0.08695
1353.71226	0.08764
1349.85553	0.08649
1345.99880	0.08349
1342.14207	0.08291
1338.28534	0.08520
1334.42861	0.08521
1330.57188	0.08081
1326.71515	0.07628
1322.85842	0.07482
1319.00169	0.07517
1315.14496	0.07586
1311.28823	0.07705
1307.43150	0.07883
1303.57477	0.07931
1299.71804	0.07810
1295.86130	0.07734
1292.00457	0.07868
1288.14784	0.08146
1284.29111	0.08220
1280.43438	0.08118
1276.57765	0.08222
1272.72092	0.08497
1268.86419	0.08758
1265.00746	0.08967
1261.15073	0.09086
1257.29400	0.09210
1253.43727	0.09273
1249.58054	0.08954
1245.72381	0.08300
1241.86708	0.07754
1238.01035	0.07758
1234.15362	0.08373
1230.29689	0.08667
1226.44016	0.08263
1222.58343	0.08085
1218.72670	0.08071
1214.86997	0.08014
1211.01324	0.08237
1207.15651	0.08354
1203.29978	0.07925
1199.44305	0.07598
1195.58632	0.07827
1191.72959	0.08465
1187.87286	0.09217
1184.01613	0.09564
1180.15940	0.09400
1176.30267	0.09067
1172.44594	0.09037
1168.58921	0.09120
1164.73248	0.08991
1160.87575	0.09086
1157.01902	0.09392
1153.16229	0.09664
1149.30556	0.10206
1145.44883	0.10458
1141.59210	0.09863
1137.73537	0.09067
1133.87864	0.08563
1130.02191	0.08407
1126.16518	0.08439
1122.30845	0.08133
1118.45172	0.07805
1114.59499	0.08029
1110.73826	0.08363
1106.88153	0.08562
1103.02480	0.08550
1099.16807	0.08143
1095.31134	0.07514
1091.45461	0.06691
1087.59788	0.06373
1083.74115	0.06855
1079.88442	0.07387
1076.02769	0.07882
1072.17096	0.08368
1068.31423	0.08337
1064.45750	0.07833
1060.60077	0.07643
1056.74404	0.07957
1052.88731	0.08184
1049.03058	0.08350
1045.17385	0.08469
1041.31712	0.08460
1037.46039	0.08718
1033.60366	0.09092
1029.74693	0.09053
1025.89020	0.08878
1022.03347	0.08888
1018.17674	0.08869
1014.32001	0.08860
1010.46328	0.08952
1006.60655	0.09053
1002.74982	0.08911
998.89309	0.08426
995.03636	0.08142
991.17963	0.08399
987.32290	0.08629
983.46617	0.08533
979.60944	0.08438
975.75271	0.08542
971.89598	0.09037
968.03925	0.09488
964.18252	0.08854
960.32579	0.07808
956.46906	0.07803
952.61233	0.08400
948.75560	0.08623
944.89887	0.08674
941.04214	0.08821
937.18541	0.08760
933.32868	0.08401
929.47195	0.07952
925.61522	0.07328
921.75849	0.06690
917.90176	0.06564
914.04503	0.06723
910.18830	0.06700
906.33157	0.06843
902.47484	0.07311
898.61811	0.07470
894.76138	0.07206
890.90465	0.07128
887.04792	0.07450
883.19119	0.07762
879.33446	0.08031
875.47773	0.08191
871.62100	0.07852
867.76427	0.07285
863.90754	0.07134
860.05081	0.07208
856.19408	0.07352
852.33735	0.07644
848.48062	0.07598
844.62389	0.07250
840.76716	0.07071
836.91043	0.07273
833.05370	0.07264
829.19697	0.06532
825.34024	0.05898
821.48351	0.06055
817.62678	0.06481
813.77005	0.07129
809.91332	0.07616
806.05659	0.07355
802.19986	0.06976
798.34313	0.06919
794.48640	0.06480
790.62967	0.05809
786.77294	0.05987
782.91621	0.06691
779.05947	0.07261
775.20274	0.07643
771.34601	0.07650
767.48928	0.07112
763.63255	0.06878
759.77582	0.07213
755.91909	0.07296
752.06236	0.07073
748.20563	0.07082
744.34890	0.07467
740.49217	0.07584
736.63544	0.07397
732.77871	0.07482
728.92198	0.07584
725.06525	0.07317
721.20852	0.06872
717.35179	0.06621
713.49506	0.07051
709.63833	0.08103
705.78160	0.09037
701.92487	0.09152
698.06814	0.08592
694.21141	0.07900
690.35468	0.07462
686.49795	0.07378
682.64122	0.07564
678.78449	0.07884
674.92776	0.08409
671.07103	0.09111
667.21430	0.09122
663.35757	0.08271
659.50084	0.07838
655.64411	0.08038
651.78738	0.07859
647.93065	0.07274
644.07392	0.07334
640.21719	0.07691
636.36046	0.07819
632.50373	0.07782
628.64700	0.08484
624.79027	0.09767
620.93354	0.10207
617.07681	0.09737
613.22008	0.09270
609.36335	0.09198
605.50662	0.09478
601.64989	0.09362
597.79316	0.09001
