3995.57236	0.21355
3991.71563	0.21510
3987.85890	0.21686
3984.00217	0.21786
3980.14544	0.21520
3976.28871	0.21089
3972.43198	0.20807
3968.57525	0.20589
3964.71852	0.20422
3960.86179	0.20666
3957.00506	0.21266
3953.14833	0.21696
3949.29160	0.21831
3945.43487	0.21830
3941.57814	0.21719
3937.72141	0.21619
3933.86468	0.21766
3930.00795	0.22067
3926.15122	0.22096
3922.29449	0.21967
3918.43776	0.22062
3914.58103	0.22292
3910.72430	0.22456
3906.86757	0.22682
3903.01084	0.23068
3899.15411	0.23276
3895.29737	0.23260
3891.44064	0.23470
3887.58391	0.23981
3883.72718	0.24278
3879.87045	0.24047
3876.01372	0.23718
3872.15699	0.23604
3868.30026	0.23571
3864.44353	0.23519
3860.58680	0.23369
3856.73007	0.23216
3852.87334	0.23369
3849.01661	0.23657
3845.15988	0.23619
3841.30315	0.23279
3837.44642	0.23120
3833.58969	0.23443
3829.73296	0.23834
3825.87623	0.24102
3822.01950	0.24267
3818.16277	0.24087
3814.30604	0.23528
3810.44931	0.23102
3806.59258	0.23067
3802.73585	0.23175
3798.87912	0.23223
3795.02239	0.23441
3791.16566	0.23851
3787.30893	0.24087
3783.45220	0.23879
3779.59547	0.23400
3775.73874	0.23100
3771.88201	0.22989
3768.02528	0.22879
3764.16855	0.22879
3760.31182	0.23017
3756.45509	0.23165
3752.59836	0.23267
3748.74163	0.23312
3744.88490	0.23356
3741.02817	0.23482
3737.17144	0.23610
3733.31471	0.23380
3729.45798	0.22703
3725.60125	0.21993
3721.74452	0.21501
3717.88779	0.21217
3714.03106	0.21026
3710.17433	0.20738
3706.31760	0.20094
3702.46087	0.19208
3698.60414	0.18435
3694.74741	0.17902
3690.89068	0.17482
3687.03395	0.17045
3683.17722	0.16655
3679.32049	0.16439
3675.46376	0.16195
3671.60703	0.15386
3667.75030	0.14136
3663.89357	0.13061
3660.03684	0.12389
3656.18011	0.12166
3652.32338	0.12171
3648.46665	0.12022
3644.60992	0.11714
3640.75319	0.11335
3636.89646	0.10970
3633.03973	0.10892
3629.18300	0.11156
3625.32627	0.11249
3621.46954	0.11098
3617.61281	0.11191
3613.75608	0.11387
3609.89935	0.11332
3606.04262	0.11006
3602.18589	0.10572
3598.32916	0.10257
3594.47243	0.10190
3590.61570	0.10119
3586.75897	0.09875
3582.90224	0.09771
3579.04551	0.09937
3575.18878	0.10171
3571.33205	0.10347
3567.47532	0.10470
3563.61859	0.10501
3559.76186	0.10408
3555.90513	0.10209
3552.04840	0.10091
3548.19167	0.10147
3544.33494	0.10106
3540.47821	0.09940
3536.62148	0.10103
3532.76475	0.10503
3528.90802	0.10517
3525.05129	0.09921
3521.19456	0.09238
3517.33783	0.09020
3513.48110	0.09159
3509.62437	0.09428
3505.76764	0.09763
3501.91091	0.10007
3498.05418	0.10029
3494.19745	0.09693
3490.34072	0.09234
3486.48399	0.09260
3482.62726	0.09805
3478.77053	0.10295
3474.91380	0.10224
3471.05707	0.09967
3467.20034	0.10211
3463.34361	0.10746
3459.48688	0.10993
3455.63015	0.10698
3451.77342	0.10151
3447.91669	0.09869
3444.05996	0.09943
3440.20323	0.10114
3436.34650	0.10177
3432.48977	0.10061
3428.63304	0.09850
3424.77631	0.09745
3420.91958	0.09616
3417.06285	0.09276
3413.20612	0.09112
3409.34939	0.09463
3405.49266	0.09993
3401.63593	0.10093
3397.77920	0.09675
3393.92247	0.09284
3390.06574	0.09250
3386.20901	0.09285
3382.35228	0.09222
3378.49555	0.09318
3374.63881	0.09634
3370.78208	0.09826
3366.92535	0.09656
3363.06862	0.09223
3359.21189	0.08689
3355.35516	0.08363
3351.49843	0.08494
3347.64170	0.08819
3343.78497	0.09096
3339.92824	0.09160
3336.07151	0.08992
3332.21478	0.08914
3328.35805	0.08908
3324.50132	0.08888
3320.64459	0.09072
3316.78786	0.09246
3312.93113	0.09133
3309.07440	0.09173
3305.21767	0.09627
3301.36094	0.10052
3297.50421	0.10002
3293.64748	0.09617
3289.79075	0.09519
3285.93402	0.09727
3282.07729	0.09865
3278.22056	0.09986
3274.36383	0.10042
3270.50710	0.09884
3266.65037	0.09651
3262.79364	0.09431
3258.93691	0.09308
3255.08018	0.09285
3251.22345	0.09400
3247.36672	0.09680
3243.50999	0.09823
3239.65326	0.09669
3235.79653	0.09535
3231.93980	0.09713
3228.08307	0.09983
3224.22634	0.10007
3220.36961	0.09784
3216.51288	0.09573
3212.65615	0.09549
3208.79942	0.09573
3204.94269	0.09533
3201.08596	0.09605
3197.22923	0.09858
3193.37250	0.09982
3189.51577	0.09720
3185.65904	0.09517
3181.80231	0.09852
3177.94558	0.10248
3174.08885	0.10201
3170.23212	0.10170
3166.37539	0.10497
3162.51866	0.10651
3158.66193	0.10426
3154.80520	0.10241
3150.94847	0.10341
3147.09174	0.10409
3143.23501	0.10323
3139.37828	0.10401
3135.52155	0.10667
3131.66482	0.10803
3127.80809	0.10734
3123.95136	0.10489
3120.09463	0.10125
3116.23790	0.09847
3112.38117	0.09872
3108.52444	0.10200
3104.66771	0.10622
3100.81098	0.10816
3096.95425	0.10806
3093.09752	0.10830
3089.24079	0.10754
3085.38406	0.10355
3081.52733	0.09769
3077.67060	0.09417
3073.81387	0.09491
3069.95714	0.09852
3066.10041	0.10303
3062.24368	0.10665
3058.38695	0.10868
3054.53022	0.10899
3050.67349	0.10844
3046.81676	0.10788
3042.96003	0.10580
3039.10330	0.10331
3035.24657	0.10348
3031.38984	0.10517
3027.53311	0.10712
3023.67638	0.10803
3019.81965	0.10625
3015.96292	0.10331
3012.10619	0.10136
3008.24946	0.10065
3004.39273	0.10176
3000.53600	0.10318
2996.67927	0.10180
2992.82254	0.09971
2988.96581	0.10046
2985.10908	0.10269
2981.25235	0.10496
2977.39562	0.10801
2973.53889	0.11046
2969.68216	0.11119
2965.82543	0.11087
2961.96870	0.10996
2958.11197	0.10759
2954.25524	0.10360
2950.39851	0.10153
2946.54178	0.10459
2942.68505	0.11067
2938.82832	0.11370
2934.97159	0.11237
2931.11486	0.11112
2927.25813	0.11351
2923.40140	0.11780
2919.54467	0.12180
2915.68794	0.12310
2911.83121	0.12000
2907.97448	0.11472
2904.11775	0.10977
2900.26102	0.10642
2896.40429	0.10658
2892.54756	0.10895
2888.69083	0.11023
2884.83410	0.10993
2880.97737	0.10754
2877.12064	0.10555
2873.26391	0.10830
2869.40718	0.11098
2865.55045	0.10877
2861.69372	0.10517
2857.83698	0.10333
2853.98025	0.10505
2850.12352	0.10885
2846.26679	0.11109
2842.41006	0.11314
2838.55333	0.11549
2834.69660	0.11575
2830.83987	0.11463
2826.98314	0.11372
2823.12641	0.11302
2819.26968	0.11321
2815.41295	0.11309
2811.55622	0.11065
2807.69949	0.10838
2803.84276	0.10826
2799.98603	0.10823
2796.12930	0.10813
2792.27257	0.10874
2788.41584	0.10843
2784.55911	0.10730
2780.70238	0.10681
2776.84565	0.10681
2772.98892	0.10821
2769.13219	0.11102
2765.27546	0.11179
2761.41873	0.11016
2757.56200	0.10936
2753.70527	0.10981
2749.84854	0.11048
2745.99181	0.11011
2742.13508	0.10766
2738.27835	0.10598
2734.42162	0.10785
2730.56489	0.11103
2726.70816	0.11253
2722.85143	0.11378
2718.99470	0.11663
2715.13797	0.11790
2711.28124	0.11514
2707.42451	0.11123
2703.56778	0.10978
2699.71105	0.11135
2695.85432	0.11286
2691.99759	0.11172
2688.14086	0.11007
2684.28413	0.11024
2680.42740	0.11068
2676.57067	0.11072
2672.71394	0.11207
2668.85721	0.11403
2665.00048	0.11495
2661.14375	0.11543
2657.28702	0.11492
2653.43029	0.11207
2649.57356	0.10977
2645.71683	0.11097
2641.86010	0.11262
2638.00337	0.11136
2634.14664	0.10952
2630.28991	0.10992
2626.43318	0.11144
2622.57645	0.11234
2618.71972	0.11266
2614.86299	0.11282
2611.00626	0.11267
2607.14953	0.11174
2603.29280	0.11046
2599.43607	0.10981
2595.57934	0.10994
2591.72261	0.11105
2587.86588	0.11261
2584.00915	0.11340
2580.15242	0.11342
2576.29569	0.11230
2572.43896	0.11023
2568.58223	0.10889
2564.72550	0.10851
2560.86877	0.10852
2557.01204	0.10992
2553.15531	0.11232
2549.29858	0.11253
2545.44185	0.11018
2541.58512	0.10878
2537.72839	0.10953
2533.87166	0.11096
2530.01493	0.11143
2526.15820	0.11055
2522.30147	0.10996
2518.44474	0.11079
2514.58801	0.11184
2510.73128	0.11192
2506.87455	0.11103
2503.01782	0.10933
2499.16109	0.10789
2495.30436	0.10779
2491.44763	0.10813
2487.59090	0.10824
2483.73417	0.10827
2479.87744	0.10801
2476.02071	0.10790
2472.16398	0.10900
2468.30725	0.11099
2464.45052	0.11172
2460.59379	0.11063
2456.73706	0.10949
2452.88033	0.10951
2449.02360	0.11079
2445.16687	0.11237
2441.31014	0.11341
2437.45341	0.11372
2433.59668	0.11314
2429.73995	0.11259
2425.88322	0.11262
2422.02649	0.11263
2418.16976	0.11277
2414.31303	0.11228
2410.45630	0.11010
2406.59957	0.10783
2402.74284	0.10748
2398.88611	0.10898
2395.02938	0.11181
2391.17265	0.11449
2387.31592	0.11458
2383.45919	0.11337
2379.60246	0.11438
2375.74573	0.11695
2371.88900	0.11769
2368.03227	0.11611
2364.17554	0.11471
2360.31881	0.11774
2356.46208	0.11948
2352.60535	0.11641
2348.74862	0.11505
2344.89189	0.11464
2341.03516	0.11216
2337.17842	0.11083
2333.32169	0.11223
2329.46496	0.11194
2325.60823	0.10998
2321.75150	0.10915
2317.89477	0.10922
2314.03804	0.10966
2310.18131	0.11099
2306.32458	0.11232
2302.46785	0.11243
2298.61112	0.11291
2294.75439	0.11536
2290.89766	0.11685
2287.04093	0.11553
2283.18420	0.11368
2279.32747	0.11280
2275.47074	0.11258
2271.61401	0.11295
2267.75728	0.11345
2263.90055	0.11370
2260.04382	0.11450
2256.18709	0.11542
2252.33036	0.11533
2248.47363	0.11512
2244.61690	0.11470
2240.76017	0.11303
2236.90344	0.11151
2233.04671	0.11226
2229.18998	0.11453
2225.33325	0.11542
2221.47652	0.11462
2217.61979	0.11408
2213.76306	0.11401
2209.90633	0.11371
2206.04960	0.11326
2202.19287	0.11230
2198.33614	0.11152
2194.47941	0.11213
2190.62268	0.11282
2186.76595	0.11269
2182.90922	0.11274
2179.05249	0.11324
2175.19576	0.11351
2171.33903	0.11330
2167.48230	0.11383
2163.62557	0.11565
2159.76884	0.11643
2155.91211	0.11502
2152.05538	0.11378
2148.19865	0.11355
2144.34192	0.11278
2140.48519	0.11201
2136.62846	0.11251
2132.77173	0.11282
2128.91500	0.11212
2125.05827	0.11186
2121.20154	0.11243
2117.34481	0.11370
2113.48808	0.11506
2109.63135	0.11541
2105.77462	0.11565
2101.91789	0.11600
2098.06116	0.11557
2094.20443	0.11562
2090.34770	0.11637
2086.49097	0.11614
2082.63424	0.11500
2078.77751	0.11350
2074.92078	0.11217
2071.06405	0.11264
2067.20732	0.11471
2063.35059	0.11597
2059.49386	0.11571
2055.63713	0.11494
2051.78040	0.11437
2047.92367	0.11407
2044.06694	0.11363
2040.21021	0.11333
2036.35348	0.11375
2032.49675	0.11445
2028.64002	0.11529
2024.78329	0.11640
2020.92656	0.11648
2017.06983	0.11520
2013.21310	0.11476
2009.35637	0.11524
2005.49964	0.11495
2001.64291	0.11454
1997.78618	0.11436
1993.92945	0.11375
1990.07272	0.11282
1986.21599	0.11141
1982.35926	0.10951
1978.50253	0.10818
1974.64580	0.10813
1970.78907	0.10899
1966.93234	0.11064
1963.07561	0.11235
1959.21888	0.11258
1955.36215	0.11167
1951.50542	0.11043
1947.64869	0.10859
1943.79196	0.10737
1939.93523	0.10829
1936.07850	0.11018
1932.22177	0.11121
1928.36504	0.11176
1924.50831	0.11276
1920.65158	0.11371
1916.79485	0.11380
1912.93812	0.11323
1909.08139	0.11308
1905.22466	0.11356
1901.36793	0.11326
1897.51120	0.11145
1893.65447	0.10959
1889.79774	0.10999
1885.94101	0.11284
1882.08428	0.11515
1878.22755	0.11514
1874.37082	0.11398
1870.51409	0.11289
1866.65736	0.11204
1862.80063	0.11087
1858.94390	0.10939
1855.08717	0.10833
1851.23044	0.10798
1847.37371	0.10806
1843.51698	0.10734
1839.66025	0.10593
1835.80352	0.10594
1831.94679	0.10694
1828.09006	0.10662
1824.23333	0.10514
1820.37660	0.10454
1816.51986	0.10485
1812.66313	0.10456
1808.80640	0.10319
1804.94967	0.10118
1801.09294	0.09926
1797.23621	0.09833
1793.37948	0.09736
1789.52275	0.09512
1785.66602	0.09398
1781.80929	0.09501
1777.95256	0.09594
1774.09583	0.09550
1770.23910	0.09377
1766.38237	0.09164
1762.52564	0.09100
1758.66891	0.09233
1754.81218	0.09383
1750.95545	0.09369
1747.09872	0.09381
1743.24199	0.09670
1739.38526	0.09928
1735.52853	0.09995
1731.67180	0.10184
1727.81507	0.10351
1723.95834	0.10199
1720.10161	0.09822
1716.24488	0.09463
1712.38815	0.09268
1708.53142	0.09237
1704.67469	0.09219
1700.81796	0.08836
1696.96123	0.08218
1693.10450	0.07953
1689.24777	0.07968
1685.39104	0.08124
1681.53431	0.08311
1677.67758	0.08428
1673.82085	0.08684
1669.96412	0.09048
1666.10739	0.09383
1662.25066	0.09978
1658.39393	0.10739
1654.53720	0.11172
1650.68047	0.11298
1646.82374	0.11749
1642.96701	0.12407
1639.11028	0.12631
1635.25355	0.12418
1631.39682	0.12427
1627.54009	0.12632
1623.68336	0.12471
1619.82663	0.11706
1615.96990	0.10792
1612.11317	0.10354
1608.25644	0.10402
1604.39971	0.10497
1600.54298	0.10358
1596.68625	0.10129
1592.82952	0.10053
1588.97279	0.10045
1585.11606	0.09862
1581.25933	0.09510
1577.40260	0.09184
1573.54587	0.09080
1569.68914	0.09298
1565.83241	0.09630
1561.97568	0.09802
1558.11895	0.09967
1554.26222	0.10449
1550.40549	0.10966
1546.54876	0.11227
1542.69203	0.11146
1538.83530	0.10931
1534.97857	0.10946
1531.12184	0.11140
1527.26511	0.11414
1523.40838	0.11733
1519.55165	0.11799
1515.69492	0.11603
1511.83819	0.11504
1507.98146	0.11629
1504.12473	0.11830
1500.26800	0.11837
1496.41127	0.11726
1492.55454	0.11691
1488.69781	0.11579
1484.84108	0.11290
1480.98435	0.11138
1477.12762	0.11095
1473.27089	0.10719
1469.41416	0.10127
1465.55743	0.09889
1461.70070	0.10008
1457.84397	0.10202
1453.98724	0.10389
1450.13051	0.10681
1446.27378	0.10911
1442.41705	0.10847
1438.56032	0.10614
1434.70359	0.10367
1430.84686	0.10175
1426.99013	0.10065
1423.13340	0.10030
1419.27667	0.09989
1415.41994	0.09917
1411.56321	0.10005
1407.70648	0.10296
1403.84975	0.10645
1399.99302	0.10860
1396.13629	0.10843
1392.27956	0.10634
1388.42283	0.10407
1384.56610	0.10314
1380.70937	0.10235
1376.85264	0.09936
1372.99591	0.09744
1369.13918	0.09977
1365.28245	0.10377
1361.42572	0.10664
1357.56899	0.10747
1353.71226	0.10572
1349.85553	0.10185
1345.99880	0.09966
1342.14207	0.10062
1338.28534	0.10059
1334.42861	0.09813
1330.57188	0.09638
1326.71515	0.09524
1322.85842	0.09420
1319.00169	0.09546
1315.14496	0.09714
1311.28823	0.09503
1307.43150	0.09235
1303.57477	0.09375
1299.71804	0.09591
1295.86130	0.09436
1292.00457	0.09226
1288.14784	0.09254
1284.29111	0.09277
1280.43438	0.09288
1276.57765	0.09472
1272.72092	0.09697
1268.86419	0.09856
1265.00746	0.09894
1261.15073	0.09715
1257.29400	0.09603
1253.43727	0.09557
1249.58054	0.09239
1245.72381	0.08799
1241.86708	0.08578
1238.01035	0.08933
1234.15362	0.09816
1230.29689	0.10156
1226.44016	0.09707
1222.58343	0.09561
1218.72670	0.09652
1214.86997	0.09324
1211.01324	0.09083
1207.15651	0.09642
1203.29978	0.10356
1199.44305	0.10417
1195.58632	0.09955
1191.72959	0.09116
1187.87286	0.08202
1184.01613	0.07872
1180.15940	0.08434
1176.30267	0.09271
1172.44594	0.09688
1168.58921	0.09676
1164.73248	0.09629
1160.87575	0.10052
1157.01902	0.10531
1153.16229	0.10222
1149.30556	0.09570
1145.44883	0.09387
1141.59210	0.09396
1137.73537	0.09264
1133.87864	0.09271
1130.02191	0.09869
1126.16518	0.10579
1122.30845	0.10519
1118.45172	0.10060
1114.59499	0.10079
1110.73826	0.10062
1106.88153	0.09577
1103.02480	0.09533
1099.16807	0.09673
1095.31134	0.09271
1091.45461	0.08987
1087.59788	0.09478
1083.74115	0.10162
1079.88442	0.09895
1076.02769	0.08866
1072.17096	0.08383
1068.31423	0.08673
1064.45750	0.09340
1060.60077	0.10762
1056.74404	0.12165
1052.88731	0.11912
1049.03058	0.10631
1045.17385	0.10066
1041.31712	0.10208
1037.46039	0.09882
1033.60366	0.09213
1029.74693	0.09209
1025.89020	0.09831
1022.03347	0.10493
1018.17674	0.10765
1014.32001	0.10391
1010.46328	0.09611
1006.60655	0.09171
1002.74982	0.09265
998.89309	0.09351
995.03636	0.09551
991.17963	0.10270
987.32290	0.10922
983.46617	0.10949
979.60944	0.10678
975.75271	0.10254
971.89598	0.09680
968.03925	0.09277
964.18252	0.09240
960.32579	0.09436
956.46906	0.09575
952.61233	0.09579
948.75560	0.09631
944.89887	0.09586
941.04214	0.09400
937.18541	0.09628
933.32868	0.10408
929.47195	0.10965
925.61522	0.10775
921.75849	0.10009
917.90176	0.09453
914.04503	0.09718
910.18830	0.10428
906.33157	0.10507
902.47484	0.09579
898.61811	0.08363
894.76138	0.07526
890.90465	0.07478
887.04792	0.08304
883.19119	0.09356
879.33446	0.09621
875.47773	0.09040
871.62100	0.08855
867.76427	0.09553
863.90754	0.10123
860.05081	0.09564
856.19408	0.08650
852.33735	0.08755
848.48062	0.09571
844.62389	0.09927
840.76716	0.09736
836.91043	0.09281
833.05370	0.08569
829.19697	0.07826
825.34024	0.07780
821.48351	0.08456
817.62678	0.08764
813.77005	0.08277
809.91332	0.08055
806.05659	0.08719
802.19986	0.09356
798.34313	0.09106
794.48640	0.08353
790.62967	0.07932
786.77294	0.08002
782.91621	0.08079
779.05947	0.08186
775.20274	0.08846
771.34601	0.09549
767.48928	0.09374
763.63255	0.08659
759.77582	0.08234
755.91909	0.08163
752.06236	0.08285
748.20563	0.08774
744.34890	0.09398
740.49217	0.09412
736.63544	0.08878
732.77871	0.08602
728.92198	0.08708
725.06525	0.09038
721.20852	0.09426
717.35179	0.09347
713.49506	0.08720
709.63833	0.08236
705.78160	0.08325
701.92487	0.08660
698.06814	0.08792
694.21141	0.09115
690.35468	0.09529
686.49795	0.09611
682.64122	0.09501
678.78449	0.09378
674.92776	0.09844
671.07103	0.11419
667.21430	0.12990
663.35757	0.12272
659.50084	0.10311
655.64411	0.09472
651.78738	0.10230
647.93065	0.10696
644.07392	0.09674
640.21719	0.08600
636.36046	0.08603
632.50373	0.08745
628.64700	0.08905
624.79027	0.10190
620.93354	0.11897
617.07681	0.12290
613.22008	0.11746
609.36335	0.11639
605.50662	0.11336
601.64989	0.10052
597.79316	0.09973
