3995.57236	0.22521
3991.71563	0.22217
3987.85890	0.22285
3984.00217	0.22676
3980.14544	0.23109
3976.28871	0.23246
3972.43198	0.23011
3968.57525	0.22695
3964.71852	0.22673
3960.86179	0.22805
3957.00506	0.22668
3953.14833	0.22431
3949.29160	0.22627
3945.43487	0.23125
3941.57814	0.23305
3937.72141	0.23266
3933.86468	0.23464
3930.00795	0.23829
3926.15122	0.24069
3922.29449	0.23974
3918.43776	0.23711
3914.58103	0.23668
3910.72430	0.23756
3906.86757	0.23795
3903.01084	0.23853
3899.15411	0.23876
3895.29737	0.23820
3891.44064	0.23967
3887.58391	0.24449
3883.72718	0.24902
3879.87045	0.24923
3876.01372	0.24671
3872.15699	0.24773
3868.30026	0.25472
3864.44353	0.26072
3860.58680	0.25979
3856.73007	0.25452
3852.87334	0.24975
3849.01661	0.24794
3845.15988	0.24823
3841.30315	0.24971
3837.44642	0.25167
3833.58969	0.25339
3829.73296	0.25459
3825.87623	0.25457
3822.01950	0.25239
3818.16277	0.25000
3814.30604	0.24894
3810.44931	0.24803
3806.59258	0.24620
3802.73585	0.24224
3798.87912	0.24117
3795.02239	0.24617
3791.16566	0.25002
3787.30893	0.25018
3783.45220	0.25066
3779.59547	0.25226
3775.73874	0.25115
3771.88201	0.24636
3768.02528	0.24189
3764.16855	0.24076
3760.31182	0.24259
3756.45509	0.24525
3752.59836	0.24530
3748.74163	0.24195
3744.88490	0.23843
3741.02817	0.23599
3737.17144	0.23264
3733.31471	0.22702
3729.45798	0.22284
3725.60125	0.22369
3721.74452	0.22527
3717.88779	0.22145
3714.03106	0.21354
3710.17433	0.20786
3706.31760	0.20736
3702.46087	0.20701
3698.60414	0.20154
3694.74741	0.19145
3690.89068	0.18182
3687.03395	0.17578
3683.17722	0.16956
3679.32049	0.16108
3675.46376	0.15409
3671.60703	0.14968
3667.75030	0.14436
3663.89357	0.13903
3660.03684	0.13465
3656.18011	0.12992
3652.32338	0.12613
3648.46665	0.12492
3644.60992	0.12422
3640.75319	0.12158
3636.89646	0.11783
3633.03973	0.11442
3629.18300	0.10957
3625.32627	0.10336
3621.46954	0.09988
3617.61281	0.10040
3613.75608	0.10218
3609.89935	0.10114
3606.04262	0.09873
3602.18589	0.09841
3598.32916	0.10083
3594.47243	0.10519
3590.61570	0.10947
3586.75897	0.11065
3582.90224	0.10940
3579.04551	0.10933
3575.18878	0.10986
3571.33205	0.10979
3567.47532	0.10980
3563.61859	0.10939
3559.76186	0.10683
3555.90513	0.10381
3552.04840	0.10329
3548.19167	0.10469
3544.33494	0.10488
3540.47821	0.10472
3536.62148	0.10664
3532.76475	0.10541
3528.90802	0.09823
3525.05129	0.09312
3521.19456	0.09610
3517.33783	0.10105
3513.48110	0.10180
3509.62437	0.09950
3505.76764	0.09723
3501.91091	0.09644
3498.05418	0.09775
3494.19745	0.09927
3490.34072	0.09864
3486.48399	0.09614
3482.62726	0.09516
3478.77053	0.09558
3474.91380	0.09586
3471.05707	0.09734
3467.20034	0.10088
3463.34361	0.10444
3459.48688	0.10479
3455.63015	0.10273
3451.77342	0.10235
3447.91669	0.10238
3444.05996	0.10129
3440.20323	0.10225
3436.34650	0.10440
3432.48977	0.10005
3428.63304	0.09016
3424.77631	0.08598
3420.91958	0.08950
3417.06285	0.09367
3413.20612	0.09547
3409.34939	0.09551
3405.49266	0.09440
3401.63593	0.09421
3397.77920	0.09690
3393.92247	0.09666
3390.06574	0.09054
3386.20901	0.08781
3382.35228	0.09311
3378.49555	0.09883
3374.63881	0.09839
3370.78208	0.09368
3366.92535	0.09043
3363.06862	0.09228
3359.21189	0.09522
3355.35516	0.09672
3351.49843	0.09699
3347.64170	0.09422
3343.78497	0.09040
3339.92824	0.09015
3336.07151	0.09277
3332.21478	0.09400
3328.35805	0.09278
3324.50132	0.09138
3320.64459	0.09310
3316.78786	0.09573
3312.93113	0.09447
3309.07440	0.09340
3305.21767	0.09520
3301.36094	0.09435
3297.50421	0.09144
3293.64748	0.09120
3289.79075	0.09129
3285.93402	0.09030
3282.07729	0.09264
3278.22056	0.09853
3274.36383	0.10371
3270.50710	0.10576
3266.65037	0.10449
3262.79364	0.10194
3258.93691	0.09961
3255.08018	0.09769
3251.22345	0.09909
3247.36672	0.10313
3243.50999	0.10478
3239.65326	0.10268
3235.79653	0.09855
3231.93980	0.09539
3228.08307	0.09514
3224.22634	0.09782
3220.36961	0.10365
3216.51288	0.10883
3212.65615	0.10871
3208.79942	0.10608
3204.94269	0.10586
3201.08596	0.10567
3197.22923	0.10336
3193.37250	0.10100
3189.51577	0.10008
3185.65904	0.10136
3181.80231	0.10426
3177.94558	0.10748
3174.08885	0.10947
3170.23212	0.10805
3166.37539	0.10402
3162.51866	0.10143
3158.66193	0.10265
3154.80520	0.10420
3150.94847	0.10255
3147.09174	0.10227
3143.23501	0.10524
3139.37828	0.10700
3135.52155	0.10616
3131.66482	0.10523
3127.80809	0.10618
3123.95136	0.10832
3120.09463	0.10945
3116.23790	0.10905
3112.38117	0.10964
3108.52444	0.11206
3104.66771	0.11346
3100.81098	0.11326
3096.95425	0.11299
3093.09752	0.11303
3089.24079	0.11228
3085.38406	0.11024
3081.52733	0.10825
3077.67060	0.10674
3073.81387	0.10540
3069.95714	0.10468
3066.10041	0.10585
3062.24368	0.11006
3058.38695	0.11344
3054.53022	0.11186
3050.67349	0.10795
3046.81676	0.10672
3042.96003	0.10796
3039.10330	0.10819
3035.24657	0.10733
3031.38984	0.10733
3027.53311	0.10766
3023.67638	0.10789
3019.81965	0.10972
3015.96292	0.11225
3012.10619	0.11222
3008.24946	0.11005
3004.39273	0.10923
3000.53600	0.11033
2996.67927	0.11217
2992.82254	0.11306
2988.96581	0.11125
2985.10908	0.10958
2981.25235	0.11045
2977.39562	0.11091
2973.53889	0.10759
2969.68216	0.10171
2965.82543	0.09850
2961.96870	0.10020
2958.11197	0.10130
2954.25524	0.09978
2950.39851	0.10243
2946.54178	0.10920
2942.68505	0.11111
2938.82832	0.10703
2934.97159	0.10532
2931.11486	0.10662
2927.25813	0.10573
2923.40140	0.10674
2919.54467	0.11288
2915.68794	0.11631
2911.83121	0.11289
2907.97448	0.11000
2904.11775	0.11091
2900.26102	0.10972
2896.40429	0.10543
2892.54756	0.10400
2888.69083	0.10602
2884.83410	0.10748
2880.97737	0.10856
2877.12064	0.11144
2873.26391	0.11349
2869.40718	0.11280
2865.55045	0.11200
2861.69372	0.11160
2857.83698	0.10973
2853.98025	0.10835
2850.12352	0.10997
2846.26679	0.11173
2842.41006	0.11137
2838.55333	0.11073
2834.69660	0.11146
2830.83987	0.11272
2826.98314	0.11232
2823.12641	0.11120
2819.26968	0.11188
2815.41295	0.11309
2811.55622	0.11354
2807.69949	0.11416
2803.84276	0.11423
2799.98603	0.11336
2796.12930	0.11180
2792.27257	0.10929
2788.41584	0.10734
2784.55911	0.10735
2780.70238	0.10773
2776.84565	0.10744
2772.98892	0.10785
2769.13219	0.10999
2765.27546	0.11369
2761.41873	0.11656
2757.56200	0.11647
2753.70527	0.11568
2749.84854	0.11519
2745.99181	0.11190
2742.13508	0.10767
2738.27835	0.10732
2734.42162	0.11012
2730.56489	0.11284
2726.70816	0.11399
2722.85143	0.11364
2718.99470	0.11385
2715.13797	0.11549
2711.28124	0.11622
2707.42451	0.11481
2703.56778	0.11294
2699.71105	0.11193
2695.85432	0.11177
2691.99759	0.11218
2688.14086	0.11244
2684.28413	0.11261
2680.42740	0.11290
2676.57067	0.11283
2672.71394	0.11345
2668.85721	0.11455
2665.00048	0.11429
2661.14375	0.11362
2657.28702	0.11309
2653.43029	0.11130
2649.57356	0.10940
2645.71683	0.10928
2641.86010	0.11024
2638.00337	0.11123
2634.14664	0.11175
2630.28991	0.11125
2626.43318	0.11091
2622.57645	0.11125
2618.71972	0.11087
2614.86299	0.10963
2611.00626	0.10829
2607.14953	0.10757
2603.29280	0.10835
2599.43607	0.11089
2595.57934	0.11442
2591.72261	0.11653
2587.86588	0.11580
2584.00915	0.11384
2580.15242	0.11306
2576.29569	0.11391
2572.43896	0.11427
2568.58223	0.11365
2564.72550	0.11379
2560.86877	0.11450
2557.01204	0.11509
2553.15531	0.11576
2549.29858	0.11493
2545.44185	0.11202
2541.58512	0.11064
2537.72839	0.11325
2533.87166	0.11676
2530.01493	0.11729
2526.15820	0.11544
2522.30147	0.11382
2518.44474	0.11344
2514.58801	0.11292
2510.73128	0.11160
2506.87455	0.11066
2503.01782	0.11112
2499.16109	0.11254
2495.30436	0.11329
2491.44763	0.11291
2487.59090	0.11306
2483.73417	0.11343
2479.87744	0.11311
2476.02071	0.11436
2472.16398	0.11711
2468.30725	0.11880
2464.45052	0.11929
2460.59379	0.11822
2456.73706	0.11533
2452.88033	0.11262
2449.02360	0.11140
2445.16687	0.11116
2441.31014	0.11176
2437.45341	0.11316
2433.59668	0.11418
2429.73995	0.11442
2425.88322	0.11443
2422.02649	0.11460
2418.16976	0.11509
2414.31303	0.11526
2410.45630	0.11523
2406.59957	0.11541
2402.74284	0.11555
2398.88611	0.11665
2395.02938	0.11856
2391.17265	0.11864
2387.31592	0.11610
2383.45919	0.11371
2379.60246	0.11448
2375.74573	0.11725
2371.88900	0.11776
2368.03227	0.11517
2364.17554	0.11232
2360.31881	0.11115
2356.46208	0.11097
2352.60535	0.11182
2348.74862	0.11310
2344.89189	0.11539
2341.03516	0.11933
2337.17842	0.12195
2333.32169	0.12177
2329.46496	0.12152
2325.60823	0.12281
2321.75150	0.12413
2317.89477	0.12404
2314.03804	0.12303
2310.18131	0.12122
2306.32458	0.11972
2302.46785	0.12045
2298.61112	0.12275
2294.75439	0.12454
2290.89766	0.12517
2287.04093	0.12493
2283.18420	0.12405
2279.32747	0.12388
2275.47074	0.12493
2271.61401	0.12501
2267.75728	0.12407
2263.90055	0.12420
2260.04382	0.12467
2256.18709	0.12439
2252.33036	0.12472
2248.47363	0.12588
2244.61690	0.12599
2240.76017	0.12482
2236.90344	0.12353
2233.04671	0.12295
2229.18998	0.12292
2225.33325	0.12277
2221.47652	0.12335
2217.61979	0.12475
2213.76306	0.12509
2209.90633	0.12424
2206.04960	0.12402
2202.19287	0.12438
2198.33614	0.12437
2194.47941	0.12483
2190.62268	0.12612
2186.76595	0.12684
2182.90922	0.12674
2179.05249	0.12606
2175.19576	0.12454
2171.33903	0.12294
2167.48230	0.12236
2163.62557	0.12284
2159.76884	0.12364
2155.91211	0.12390
2152.05538	0.12361
2148.19865	0.12341
2144.34192	0.12371
2140.48519	0.12464
2136.62846	0.12570
2132.77173	0.12586
2128.91500	0.12540
2125.05827	0.12544
2121.20154	0.12650
2117.34481	0.12798
2113.48808	0.12841
2109.63135	0.12764
2105.77462	0.12708
2101.91789	0.12717
2098.06116	0.12764
2094.20443	0.12841
2090.34770	0.12910
2086.49097	0.12922
2082.63424	0.12863
2078.77751	0.12791
2074.92078	0.12762
2071.06405	0.12776
2067.20732	0.12782
2063.35059	0.12684
2059.49386	0.12476
2055.63713	0.12376
2051.78040	0.12542
2047.92367	0.12789
2044.06694	0.12843
2040.21021	0.12743
2036.35348	0.12766
2032.49675	0.12949
2028.64002	0.13043
2024.78329	0.12998
2020.92656	0.12899
2017.06983	0.12723
2013.21310	0.12569
2009.35637	0.12570
2005.49964	0.12611
2001.64291	0.12614
1997.78618	0.12683
1993.92945	0.12815
1990.07272	0.12863
1986.21599	0.12782
1982.35926	0.12687
1978.50253	0.12643
1974.64580	0.12621
1970.78907	0.12618
1966.93234	0.12607
1963.07561	0.12599
1959.21888	0.12693
1955.36215	0.12781
1951.50542	0.12710
1947.64869	0.12617
1943.79196	0.12647
1939.93523	0.12710
1936.07850	0.12674
1932.22177	0.12500
1928.36504	0.12235
1924.50831	0.12116
1920.65158	0.12380
1916.79485	0.12813
1912.93812	0.12927
1909.08139	0.12690
1905.22466	0.12493
1901.36793	0.12441
1897.51120	0.12379
1893.65447	0.12416
1889.79774	0.12661
1885.94101	0.12875
1882.08428	0.12800
1878.22755	0.12520
1874.37082	0.12365
1870.51409	0.12455
1866.65736	0.12512
1862.80063	0.12342
1858.94390	0.12156
1855.08717	0.12136
1851.23044	0.12170
1847.37371	0.12160
1843.51698	0.12149
1839.66025	0.12088
1835.80352	0.11916
1831.94679	0.11660
1828.09006	0.11442
1824.23333	0.11408
1820.37660	0.11425
1816.51986	0.11283
1812.66313	0.10988
1808.80640	0.10748
1804.94967	0.10698
1801.09294	0.10740
1797.23621	0.10735
1793.37948	0.10598
1789.52275	0.10312
1785.66602	0.10015
1781.80929	0.09838
1777.95256	0.09768
1774.09583	0.09717
1770.23910	0.09641
1766.38237	0.09548
1762.52564	0.09432
1758.66891	0.09263
1754.81218	0.09103
1750.95545	0.09135
1747.09872	0.09379
1743.24199	0.09727
1739.38526	0.09980
1735.52853	0.10023
1731.67180	0.10251
1727.81507	0.10661
1723.95834	0.10697
1720.10161	0.10342
1716.24488	0.10026
1712.38815	0.09922
1708.53142	0.09835
1704.67469	0.09611
1700.81796	0.09049
1696.96123	0.08400
1693.10450	0.08241
1689.24777	0.08428
1685.39104	0.08685
1681.53431	0.08775
1677.67758	0.08664
1673.82085	0.08748
1669.96412	0.09178
1666.10739	0.09669
1662.25066	0.09985
1658.39393	0.10281
1654.53720	0.10971
1650.68047	0.11954
1646.82374	0.12210
1642.96701	0.11789
1639.11028	0.11516
1635.25355	0.11765
1631.39682	0.12209
1627.54009	0.12209
1623.68336	0.11824
1619.82663	0.11474
1615.96990	0.11304
1612.11317	0.11083
1608.25644	0.10790
1604.39971	0.10672
1600.54298	0.10662
1596.68625	0.10503
1592.82952	0.10318
1588.97279	0.10235
1585.11606	0.10164
1581.25933	0.10085
1577.40260	0.09892
1573.54587	0.09546
1569.68914	0.09427
1565.83241	0.09655
1561.97568	0.09961
1558.11895	0.10260
1554.26222	0.10589
1550.40549	0.10857
1546.54876	0.11046
1542.69203	0.11296
1538.83530	0.11596
1534.97857	0.11635
1531.12184	0.11477
1527.26511	0.11402
1523.40838	0.11483
1519.55165	0.11653
1515.69492	0.11770
1511.83819	0.11737
1507.98146	0.11795
1504.12473	0.12003
1500.26800	0.11889
1496.41127	0.11573
1492.55454	0.11416
1488.69781	0.11289
1484.84108	0.11157
1480.98435	0.11159
1477.12762	0.11097
1473.27089	0.10765
1469.41416	0.10474
1465.55743	0.10507
1461.70070	0.10607
1457.84397	0.10543
1453.98724	0.10503
1450.13051	0.10622
1446.27378	0.10710
1442.41705	0.10696
1438.56032	0.10723
1434.70359	0.10882
1430.84686	0.10954
1426.99013	0.10804
1423.13340	0.10662
1419.27667	0.10632
1415.41994	0.10513
1411.56321	0.10292
1407.70648	0.10157
1403.84975	0.10038
1399.99302	0.09935
1396.13629	0.10039
1392.27956	0.10309
1388.42283	0.10584
1384.56610	0.10723
1380.70937	0.10754
1376.85264	0.10682
1372.99591	0.10406
1369.13918	0.10358
1365.28245	0.10718
1361.42572	0.10927
1357.56899	0.10840
1353.71226	0.10700
1349.85553	0.10343
1345.99880	0.09710
1342.14207	0.09316
1338.28534	0.09591
1334.42861	0.10121
1330.57188	0.10279
1326.71515	0.10045
1322.85842	0.09742
1319.00169	0.09701
1315.14496	0.09894
1311.28823	0.09887
1307.43150	0.09563
1303.57477	0.09208
1299.71804	0.09104
1295.86130	0.09181
1292.00457	0.09245
1288.14784	0.09414
1284.29111	0.09760
1280.43438	0.09952
1276.57765	0.09851
1272.72092	0.09733
1268.86419	0.09530
1265.00746	0.09142
1261.15073	0.08926
1257.29400	0.09182
1253.43727	0.09815
1249.58054	0.10150
1245.72381	0.09540
1241.86708	0.08442
1238.01035	0.07884
1234.15362	0.08138
1230.29689	0.08880
1226.44016	0.09341
1222.58343	0.08956
1218.72670	0.08532
1214.86997	0.08955
1211.01324	0.09723
1207.15651	0.10019
1203.29978	0.09587
1199.44305	0.09157
1195.58632	0.09321
1191.72959	0.09425
1187.87286	0.09367
1184.01613	0.09435
1180.15940	0.09489
1176.30267	0.09360
1172.44594	0.09066
1168.58921	0.08945
1164.73248	0.09459
1160.87575	0.10577
1157.01902	0.11543
1153.16229	0.11449
1149.30556	0.10354
1145.44883	0.09262
1141.59210	0.08866
1137.73537	0.08829
1133.87864	0.08933
1130.02191	0.09204
1126.16518	0.09173
1122.30845	0.08833
1118.45172	0.08901
1114.59499	0.09254
1110.73826	0.09347
1106.88153	0.09132
1103.02480	0.09216
1099.16807	0.09419
1095.31134	0.08770
1091.45461	0.07985
1087.59788	0.08664
1083.74115	0.10201
1079.88442	0.10875
1076.02769	0.10605
1072.17096	0.10167
1068.31423	0.09927
1064.45750	0.09732
1060.60077	0.09629
1056.74404	0.09426
1052.88731	0.08923
1049.03058	0.08461
1045.17385	0.08902
1041.31712	0.10260
1037.46039	0.11245
1033.60366	0.11261
1029.74693	0.10964
1025.89020	0.10820
1022.03347	0.10654
1018.17674	0.10459
1014.32001	0.10385
1010.46328	0.10304
1006.60655	0.10053
1002.74982	0.09884
998.89309	0.10092
995.03636	0.10177
991.17963	0.09748
987.32290	0.09391
983.46617	0.09714
979.60944	0.10408
975.75271	0.10781
971.89598	0.10657
968.03925	0.10282
964.18252	0.09662
960.32579	0.09066
956.46906	0.09099
952.61233	0.09648
948.75560	0.10199
944.89887	0.10428
941.04214	0.09931
937.18541	0.09045
933.32868	0.08716
929.47195	0.09199
925.61522	0.09868
921.75849	0.10106
917.90176	0.10162
914.04503	0.10344
910.18830	0.10159
906.33157	0.09462
902.47484	0.08938
898.61811	0.09098
894.76138	0.09530
890.90465	0.09658
887.04792	0.09100
883.19119	0.08479
879.33446	0.08686
875.47773	0.09468
871.62100	0.10155
867.76427	0.10415
863.90754	0.10202
860.05081	0.09819
856.19408	0.09563
852.33735	0.09354
848.48062	0.08994
844.62389	0.08893
840.76716	0.08925
836.91043	0.08606
833.05370	0.08694
829.19697	0.09403
825.34024	0.09632
821.48351	0.09011
817.62678	0.08027
813.77005	0.07662
809.91332	0.08029
806.05659	0.08249
802.19986	0.08147
798.34313	0.08285
794.48640	0.08367
790.62967	0.08273
786.77294	0.08296
782.91621	0.08438
779.05947	0.08676
775.20274	0.08708
771.34601	0.08563
767.48928	0.08803
763.63255	0.09099
759.77582	0.08882
755.91909	0.08651
752.06236	0.08632
748.20563	0.08611
744.34890	0.08915
740.49217	0.09554
736.63544	0.09649
732.77871	0.09127
728.92198	0.09102
725.06525	0.09694
721.20852	0.09980
717.35179	0.09912
713.49506	0.09899
709.63833	0.09757
705.78160	0.09131
701.92487	0.08265
698.06814	0.08136
694.21141	0.09200
690.35468	0.10528
686.49795	0.10943
682.64122	0.10509
678.78449	0.09993
674.92776	0.09902
671.07103	0.10062
667.21430	0.09561
663.35757	0.08842
659.50084	0.08609
655.64411	0.08699
651.78738	0.08993
647.93065	0.09420
644.07392	0.09171
640.21719	0.08361
636.36046	0.08051
632.50373	0.08322
628.64700	0.09356
624.79027	0.10934
620.93354	0.11570
617.07681	0.11067
613.22008	0.10540
609.36335	0.10667
605.50662	0.11233
601.64989	0.11562
597.79316	0.11897
