3995.57236	0.20144
3991.71563	0.20363
3987.85890	0.20637
3984.00217	0.20759
3980.14544	0.20645
3976.28871	0.20493
3972.43198	0.20553
3968.57525	0.20631
3964.71852	0.20515
3960.86179	0.20517
3957.00506	0.20745
3953.14833	0.20698
3949.29160	0.20298
3945.43487	0.19987
3941.57814	0.19910
3937.72141	0.19944
3933.86468	0.20054
3930.00795	0.20400
3926.15122	0.20921
3922.29449	0.21075
3918.43776	0.20701
3914.58103	0.20369
3910.72430	0.20353
3906.86757	0.20419
3903.01084	0.20550
3899.15411	0.20887
3895.29737	0.21216
3891.44064	0.21306
3887.58391	0.21217
3883.72718	0.21129
3879.87045	0.21182
3876.01372	0.21325
3872.15699	0.21366
3868.30026	0.21465
3864.44353	0.21808
3860.58680	0.22128
3856.73007	0.22334
3852.87334	0.22340
3849.01661	0.21955
3845.15988	0.21583
3841.30315	0.21616
3837.44642	0.21841
3833.58969	0.21779
3829.73296	0.21828
3825.87623	0.22379
3822.01950	0.22796
3818.16277	0.22399
3814.30604	0.21830
3810.44931	0.21755
3806.59258	0.21908
3802.73585	0.21870
3798.87912	0.21651
3795.02239	0.21654
3791.16566	0.21899
3787.30893	0.22138
3783.45220	0.22220
3779.59547	0.22127
3775.73874	0.21950
3771.88201	0.21622
3768.02528	0.21066
3764.16855	0.20576
3760.31182	0.20462
3756.45509	0.20663
3752.59836	0.20885
3748.74163	0.20843
3744.88490	0.20642
3741.02817	0.20586
3737.17144	0.20570
3733.31471	0.20423
3729.45798	0.20169
3725.60125	0.19804
3721.74452	0.19568
3717.88779	0.19543
3714.03106	0.19448
3710.17433	0.19219
3706.31760	0.18931
3702.46087	0.18719
3698.60414	0.18539
3694.74741	0.18027
3690.89068	0.17190
3687.03395	0.16612
3683.17722	0.16452
3679.32049	0.16225
3675.46376	0.15711
3671.60703	0.15075
3667.75030	0.14526
3663.89357	0.14059
3660.03684	0.13583
3656.18011	0.13115
3652.32338	0.12584
3648.46665	0.11901
3644.60992	0.11331
3640.75319	0.10999
3636.89646	0.10851
3633.03973	0.10841
3629.18300	0.10660
3625.32627	0.10385
3621.46954	0.10475
3617.61281	0.10668
3613.75608	0.10550
3609.89935	0.10283
3606.04262	0.10038
3602.18589	0.09918
3598.32916	0.09978
3594.47243	0.10128
3590.61570	0.10129
3586.75897	0.09851
3582.90224	0.09591
3579.04551	0.09614
3575.18878	0.09875
3571.33205	0.10130
3567.47532	0.10082
3563.61859	0.09782
3559.76186	0.09458
3555.90513	0.09248
3552.04840	0.09443
3548.19167	0.09862
3544.33494	0.09875
3540.47821	0.09696
3536.62148	0.09792
3532.76475	0.09932
3528.90802	0.09838
3525.05129	0.09584
3521.19456	0.09253
3517.33783	0.08863
3513.48110	0.08675
3509.62437	0.08816
3505.76764	0.08980
3501.91091	0.09066
3498.05418	0.09140
3494.19745	0.09124
3490.34072	0.08869
3486.48399	0.08627
3482.62726	0.08658
3478.77053	0.08821
3474.91380	0.08854
3471.05707	0.08710
3467.20034	0.08755
3463.34361	0.08934
3459.48688	0.08807
3455.63015	0.08607
3451.77342	0.08758
3447.91669	0.08868
3444.05996	0.08534
3440.20323	0.08241
3436.34650	0.08388
3432.48977	0.08599
3428.63304	0.08667
3424.77631	0.08649
3420.91958	0.08492
3417.06285	0.08014
3413.20612	0.07420
3409.34939	0.07411
3405.49266	0.08090
3401.63593	0.08738
3397.77920	0.08857
3393.92247	0.08640
3390.06574	0.08587
3386.20901	0.08802
3382.35228	0.08859
3378.49555	0.08678
3374.63881	0.08884
3370.78208	0.09335
3366.92535	0.09322
3363.06862	0.09025
3359.21189	0.08743
3355.35516	0.08491
3351.49843	0.08506
3347.64170	0.08912
3343.78497	0.09312
3339.92824	0.09286
3336.07151	0.09051
3332.21478	0.09151
3328.35805	0.09408
3324.50132	0.09317
3320.64459	0.09009
3316.78786	0.08886
3312.93113	0.09021
3309.07440	0.09231
3305.21767	0.09403
3301.36094	0.09552
3297.50421	0.09496
3293.64748	0.09179
3289.79075	0.09008
3285.93402	0.09150
3282.07729	0.09289
3278.22056	0.09088
3274.36383	0.08658
3270.50710	0.08427
3266.65037	0.08510
3262.79364	0.08764
3258.93691	0.09087
3255.08018	0.09271
3251.22345	0.09351
3247.36672	0.09494
3243.50999	0.09586
3239.65326	0.09693
3235.79653	0.09869
3231.93980	0.09701
3228.08307	0.09158
3224.22634	0.08754
3220.36961	0.08852
3216.51288	0.09468
3212.65615	0.10049
3208.79942	0.10005
3204.94269	0.09531
3201.08596	0.09201
3197.22923	0.09209
3193.37250	0.09447
3189.51577	0.09757
3185.65904	0.09945
3181.80231	0.09893
3177.94558	0.09680
3174.08885	0.09429
3170.23212	0.09176
3166.37539	0.09134
3162.51866	0.09351
3158.66193	0.09585
3154.80520	0.09727
3150.94847	0.09668
3147.09174	0.09240
3143.23501	0.08878
3139.37828	0.09118
3135.52155	0.09591
3131.66482	0.09786
3127.80809	0.09716
3123.95136	0.09440
3120.09463	0.09148
3116.23790	0.08990
3112.38117	0.08972
3108.52444	0.09144
3104.66771	0.09397
3100.81098	0.09685
3096.95425	0.10013
3093.09752	0.10141
3089.24079	0.10097
3085.38406	0.10049
3081.52733	0.09917
3077.67060	0.09634
3073.81387	0.09320
3069.95714	0.09337
3066.10041	0.09868
3062.24368	0.10422
3058.38695	0.10423
3054.53022	0.09889
3050.67349	0.09424
3046.81676	0.09454
3042.96003	0.09804
3039.10330	0.10107
3035.24657	0.10197
3031.38984	0.10144
3027.53311	0.10119
3023.67638	0.10157
3019.81965	0.10163
3015.96292	0.10121
3012.10619	0.10044
3008.24946	0.09997
3004.39273	0.10049
3000.53600	0.10079
2996.67927	0.10012
2992.82254	0.09934
2988.96581	0.09977
2985.10908	0.10287
2981.25235	0.10471
2977.39562	0.10054
2973.53889	0.09564
2969.68216	0.09573
2965.82543	0.09910
2961.96870	0.10295
2958.11197	0.10435
2954.25524	0.10382
2950.39851	0.10407
2946.54178	0.10392
2942.68505	0.10363
2938.82832	0.10372
2934.97159	0.10095
2931.11486	0.09510
2927.25813	0.09347
2923.40140	0.09979
2919.54467	0.10639
2915.68794	0.10650
2911.83121	0.10586
2907.97448	0.10978
2904.11775	0.11135
2900.26102	0.10604
2896.40429	0.10189
2892.54756	0.10304
2888.69083	0.10498
2884.83410	0.10374
2880.97737	0.10095
2877.12064	0.09963
2873.26391	0.09913
2869.40718	0.10111
2865.55045	0.10574
2861.69372	0.10807
2857.83698	0.10844
2853.98025	0.10850
2850.12352	0.10825
2846.26679	0.10869
2842.41006	0.10828
2838.55333	0.10770
2834.69660	0.10878
2830.83987	0.10866
2826.98314	0.10670
2823.12641	0.10639
2819.26968	0.10721
2815.41295	0.10729
2811.55622	0.10704
2807.69949	0.10587
2803.84276	0.10468
2799.98603	0.10550
2796.12930	0.10692
2792.27257	0.10714
2788.41584	0.10579
2784.55911	0.10327
2780.70238	0.10172
2776.84565	0.10274
2772.98892	0.10450
2769.13219	0.10465
2765.27546	0.10408
2761.41873	0.10498
2757.56200	0.10696
2753.70527	0.10771
2749.84854	0.10739
2745.99181	0.10811
2742.13508	0.10951
2738.27835	0.10892
2734.42162	0.10685
2730.56489	0.10659
2726.70816	0.10883
2722.85143	0.11049
2718.99470	0.10961
2715.13797	0.10821
2711.28124	0.10761
2707.42451	0.10652
2703.56778	0.10454
2699.71105	0.10360
2695.85432	0.10520
2691.99759	0.10669
2688.14086	0.10598
2684.28413	0.10557
2680.42740	0.10713
2676.57067	0.10869
2672.71394	0.10816
2668.85721	0.10595
2665.00048	0.10451
2661.14375	0.10513
2657.28702	0.10646
2653.43029	0.10742
2649.57356	0.10851
2645.71683	0.11035
2641.86010	0.11077
2638.00337	0.10832
2634.14664	0.10552
2630.28991	0.10462
2626.43318	0.10601
2622.57645	0.10830
2618.71972	0.10849
2614.86299	0.10631
2611.00626	0.10416
2607.14953	0.10324
2603.29280	0.10316
2599.43607	0.10344
2595.57934	0.10344
2591.72261	0.10315
2587.86588	0.10431
2584.00915	0.10637
2580.15242	0.10701
2576.29569	0.10705
2572.43896	0.10779
2568.58223	0.10826
2564.72550	0.10739
2560.86877	0.10607
2557.01204	0.10566
2553.15531	0.10539
2549.29858	0.10396
2545.44185	0.10271
2541.58512	0.10339
2537.72839	0.10423
2533.87166	0.10351
2530.01493	0.10328
2526.15820	0.10420
2522.30147	0.10440
2518.44474	0.10492
2514.58801	0.10595
2510.73128	0.10544
2506.87455	0.10536
2503.01782	0.10693
2499.16109	0.10709
2495.30436	0.10559
2491.44763	0.10472
2487.59090	0.10485
2483.73417	0.10585
2479.87744	0.10684
2476.02071	0.10744
2472.16398	0.10818
2468.30725	0.10861
2464.45052	0.10849
2460.59379	0.10903
2456.73706	0.11020
2452.88033	0.11050
2449.02360	0.10937
2445.16687	0.10828
2441.31014	0.10829
2437.45341	0.10820
2433.59668	0.10829
2429.73995	0.10949
2425.88322	0.11039
2422.02649	0.10997
2418.16976	0.10992
2414.31303	0.11124
2410.45630	0.11147
2406.59957	0.10941
2402.74284	0.10778
2398.88611	0.10737
2395.02938	0.10626
2391.17265	0.10420
2387.31592	0.10310
2383.45919	0.10433
2379.60246	0.10715
2375.74573	0.10948
2371.88900	0.10924
2368.03227	0.10806
2364.17554	0.11178
2360.31881	0.11607
2356.46208	0.11236
2352.60535	0.10884
2348.74862	0.10954
2344.89189	0.11132
2341.03516	0.11224
2337.17842	0.11383
2333.32169	0.11414
2329.46496	0.10928
2325.60823	0.10424
2321.75150	0.10440
2317.89477	0.10615
2314.03804	0.10742
2310.18131	0.11024
2306.32458	0.11293
2302.46785	0.11302
2298.61112	0.11175
2294.75439	0.11134
2290.89766	0.11230
2287.04093	0.11299
2283.18420	0.11235
2279.32747	0.11113
2275.47074	0.11030
2271.61401	0.11085
2267.75728	0.11239
2263.90055	0.11311
2260.04382	0.11314
2256.18709	0.11402
2252.33036	0.11531
2248.47363	0.11586
2244.61690	0.11541
2240.76017	0.11404
2236.90344	0.11277
2233.04671	0.11206
2229.18998	0.11178
2225.33325	0.11264
2221.47652	0.11437
2217.61979	0.11567
2213.76306	0.11565
2209.90633	0.11446
2206.04960	0.11404
2202.19287	0.11533
2198.33614	0.11563
2194.47941	0.11336
2190.62268	0.11075
2186.76595	0.11017
2182.90922	0.11137
2179.05249	0.11302
2175.19576	0.11431
2171.33903	0.11498
2167.48230	0.11480
2163.62557	0.11402
2159.76884	0.11358
2155.91211	0.11406
2152.05538	0.11501
2148.19865	0.11550
2144.34192	0.11502
2140.48519	0.11384
2136.62846	0.11300
2132.77173	0.11327
2128.91500	0.11402
2125.05827	0.11406
2121.20154	0.11403
2117.34481	0.11526
2113.48808	0.11700
2109.63135	0.11752
2105.77462	0.11708
2101.91789	0.11729
2098.06116	0.11865
2094.20443	0.11975
2090.34770	0.11987
2086.49097	0.11957
2082.63424	0.11864
2078.77751	0.11758
2074.92078	0.11795
2071.06405	0.11895
2067.20732	0.11853
2063.35059	0.11684
2059.49386	0.11532
2055.63713	0.11499
2051.78040	0.11582
2047.92367	0.11636
2044.06694	0.11598
2040.21021	0.11588
2036.35348	0.11660
2032.49675	0.11791
2028.64002	0.11921
2024.78329	0.11910
2020.92656	0.11787
2017.06983	0.11750
2013.21310	0.11706
2009.35637	0.11555
2005.49964	0.11506
2001.64291	0.11598
1997.78618	0.11661
1993.92945	0.11644
1990.07272	0.11554
1986.21599	0.11489
1982.35926	0.11519
1978.50253	0.11571
1974.64580	0.11585
1970.78907	0.11564
1966.93234	0.11552
1963.07561	0.11521
1959.21888	0.11418
1955.36215	0.11338
1951.50542	0.11351
1947.64869	0.11441
1943.79196	0.11656
1939.93523	0.11875
1936.07850	0.11901
1932.22177	0.11877
1928.36504	0.11973
1924.50831	0.12113
1920.65158	0.12162
1916.79485	0.12066
1912.93812	0.11855
1909.08139	0.11636
1905.22466	0.11597
1901.36793	0.11724
1897.51120	0.11812
1893.65447	0.11778
1889.79774	0.11681
1885.94101	0.11631
1882.08428	0.11676
1878.22755	0.11714
1874.37082	0.11645
1870.51409	0.11538
1866.65736	0.11462
1862.80063	0.11381
1858.94390	0.11304
1855.08717	0.11248
1851.23044	0.11213
1847.37371	0.11280
1843.51698	0.11431
1839.66025	0.11484
1835.80352	0.11416
1831.94679	0.11291
1828.09006	0.11097
1824.23333	0.10980
1820.37660	0.10979
1816.51986	0.10899
1812.66313	0.10776
1808.80640	0.10745
1804.94967	0.10751
1801.09294	0.10678
1797.23621	0.10488
1793.37948	0.10322
1789.52275	0.10281
1785.66602	0.10146
1781.80929	0.09824
1777.95256	0.09554
1774.09583	0.09547
1770.23910	0.09727
1766.38237	0.09783
1762.52564	0.09713
1758.66891	0.09671
1754.81218	0.09638
1750.95545	0.09659
1747.09872	0.09927
1743.24199	0.10536
1739.38526	0.11297
1735.52853	0.11885
1731.67180	0.11961
1727.81507	0.11546
1723.95834	0.11111
1720.10161	0.10779
1716.24488	0.10202
1712.38815	0.09461
1708.53142	0.08800
1704.67469	0.08126
1700.81796	0.07648
1696.96123	0.07567
1693.10450	0.07527
1689.24777	0.07463
1685.39104	0.07638
1681.53431	0.07995
1677.67758	0.08186
1673.82085	0.08355
1669.96412	0.08724
1666.10739	0.09007
1662.25066	0.09017
1658.39393	0.09110
1654.53720	0.09377
1650.68047	0.09400
1646.82374	0.09317
1642.96701	0.09631
1639.11028	0.09937
1635.25355	0.09896
1631.39682	0.09868
1627.54009	0.09947
1623.68336	0.09863
1619.82663	0.09764
1615.96990	0.09871
1612.11317	0.10036
1608.25644	0.10064
1604.39971	0.09852
1600.54298	0.09396
1596.68625	0.08912
1592.82952	0.08770
1588.97279	0.09017
1585.11606	0.09304
1581.25933	0.09426
1577.40260	0.09444
1573.54587	0.09420
1569.68914	0.09407
1565.83241	0.09379
1561.97568	0.09184
1558.11895	0.08956
1554.26222	0.09140
1550.40549	0.09474
1546.54876	0.09702
1542.69203	0.09904
1538.83530	0.10017
1534.97857	0.10003
1531.12184	0.10031
1527.26511	0.10057
1523.40838	0.09954
1519.55165	0.09993
1515.69492	0.10420
1511.83819	0.10822
1507.98146	0.10929
1504.12473	0.10972
1500.26800	0.10998
1496.41127	0.10878
1492.55454	0.10872
1488.69781	0.10994
1484.84108	0.10940
1480.98435	0.10724
1477.12762	0.10290
1473.27089	0.09686
1469.41416	0.09423
1465.55743	0.09528
1461.70070	0.09703
1457.84397	0.09890
1453.98724	0.09943
1450.13051	0.09907
1446.27378	0.09975
1442.41705	0.10124
1438.56032	0.10155
1434.70359	0.09942
1430.84686	0.09686
1426.99013	0.09654
1423.13340	0.09775
1419.27667	0.09801
1415.41994	0.09796
1411.56321	0.09945
1407.70648	0.10075
1403.84975	0.10038
1399.99302	0.09900
1396.13629	0.09609
1392.27956	0.09453
1388.42283	0.09745
1384.56610	0.09980
1380.70937	0.09687
1376.85264	0.09223
1372.99591	0.08992
1369.13918	0.09023
1365.28245	0.09104
1361.42572	0.09302
1357.56899	0.09739
1353.71226	0.09933
1349.85553	0.09570
1345.99880	0.08951
1342.14207	0.08589
1338.28534	0.08772
1334.42861	0.09193
1330.57188	0.09377
1326.71515	0.09194
1322.85842	0.08844
1319.00169	0.08656
1315.14496	0.08712
1311.28823	0.08810
1307.43150	0.08773
1303.57477	0.08784
1299.71804	0.08889
1295.86130	0.08756
1292.00457	0.08677
1288.14784	0.09118
1284.29111	0.09518
1280.43438	0.09418
1276.57765	0.09340
1272.72092	0.09648
1268.86419	0.10099
1265.00746	0.10433
1261.15073	0.10384
1257.29400	0.09879
1253.43727	0.09256
1249.58054	0.08961
1245.72381	0.08999
1241.86708	0.09207
1238.01035	0.09593
1234.15362	0.10043
1230.29689	0.10543
1226.44016	0.10979
1222.58343	0.10303
1218.72670	0.08673
1214.86997	0.07829
1211.01324	0.07989
1207.15651	0.08634
1203.29978	0.09002
1199.44305	0.08904
1195.58632	0.09049
1191.72959	0.09382
1187.87286	0.09589
1184.01613	0.09728
1180.15940	0.09459
1176.30267	0.08681
1172.44594	0.08169
1168.58921	0.08523
1164.73248	0.09174
1160.87575	0.09553
1157.01902	0.09665
1153.16229	0.09794
1149.30556	0.09959
1145.44883	0.10141
1141.59210	0.10221
1137.73537	0.09916
1133.87864	0.09256
1130.02191	0.08666
1126.16518	0.08369
1122.30845	0.08448
1118.45172	0.08976
1114.59499	0.09390
1110.73826	0.09450
1106.88153	0.09527
1103.02480	0.09792
1099.16807	0.09787
1095.31134	0.09544
1091.45461	0.09584
1087.59788	0.09742
1083.74115	0.09788
1079.88442	0.10123
1076.02769	0.10563
1072.17096	0.10690
1068.31423	0.10414
1064.45750	0.09734
1060.60077	0.09367
1056.74404	0.09535
1052.88731	0.09683
1049.03058	0.09558
1045.17385	0.09515
1041.31712	0.09855
1037.46039	0.10086
1033.60366	0.09926
1029.74693	0.10063
1025.89020	0.10440
1022.03347	0.10204
1018.17674	0.09393
1014.32001	0.09016
1010.46328	0.09106
1006.60655	0.09148
1002.74982	0.09184
998.89309	0.09317
995.03636	0.09354
991.17963	0.09338
987.32290	0.09302
983.46617	0.09128
979.60944	0.08835
975.75271	0.08665
971.89598	0.08771
968.03925	0.09039
964.18252	0.09086
960.32579	0.08992
956.46906	0.08998
952.61233	0.08936
948.75560	0.08944
944.89887	0.09039
941.04214	0.09070
937.18541	0.09152
933.32868	0.09190
929.47195	0.09170
925.61522	0.09411
921.75849	0.09698
917.90176	0.09457
914.04503	0.09053
910.18830	0.09096
906.33157	0.09476
902.47484	0.09775
898.61811	0.09681
894.76138	0.09079
890.90465	0.08484
887.04792	0.08681
883.19119	0.09222
879.33446	0.09427
875.47773	0.09268
871.62100	0.08948
867.76427	0.08787
863.90754	0.09046
860.05081	0.10082
856.19408	0.11301
852.33735	0.11407
848.48062	0.10655
844.62389	0.09705
840.76716	0.08600
836.91043	0.07990
833.05370	0.08314
829.19697	0.08916
825.34024	0.09078
821.48351	0.08809
817.62678	0.08305
813.77005	0.07936
809.91332	0.08118
806.05659	0.08598
802.19986	0.08764
798.34313	0.08440
794.48640	0.08320
790.62967	0.09093
786.77294	0.09835
782.91621	0.09641
779.05947	0.09044
775.20274	0.08822
771.34601	0.08942
767.48928	0.09026
763.63255	0.08895
759.77582	0.08537
755.91909	0.08170
752.06236	0.08391
748.20563	0.08977
744.34890	0.09172
740.49217	0.08663
736.63544	0.07805
732.77871	0.07521
728.92198	0.08120
725.06525	0.09198
721.20852	0.10188
717.35179	0.10418
713.49506	0.10178
709.63833	0.10157
705.78160	0.10000
701.92487	0.09724
698.06814	0.09999
694.21141	0.10399
690.35468	0.10688
686.49795	0.11546
682.64122	0.12118
678.78449	0.11052
674.92776	0.09541
671.07103	0.09372
667.21430	0.10592
663.35757	0.11527
659.50084	0.11744
655.64411	0.11644
651.78738	0.11575
647.93065	0.11667
644.07392	0.11329
640.21719	0.10892
636.36046	0.10549
632.50373	0.09561
628.64700	0.08655
624.79027	0.08875
620.93354	0.09325
617.07681	0.10187
613.22008	0.10913
609.36335	0.10684
605.50662	0.10491
601.64989	0.10663
597.79316	0.10448
