3995.57236	0.21422
3991.71563	0.22344
3987.85890	0.22897
3984.00217	0.22818
3980.14544	0.22545
3976.28871	0.22374
3972.43198	0.22417
3968.57525	0.22809
3964.71852	0.23359
3960.86179	0.23536
3957.00506	0.23222
3953.14833	0.22950
3949.29160	0.22958
3945.43487	0.23097
3941.57814	0.23485
3937.72141	0.23947
3933.86468	0.24069
3930.00795	0.23966
3926.15122	0.23862
3922.29449	0.23784
3918.43776	0.23905
3914.58103	0.24340
3910.72430	0.24857
3906.86757	0.25291
3903.01084	0.25658
3899.15411	0.25714
3895.29737	0.25278
3891.44064	0.24775
3887.58391	0.24796
3883.72718	0.25255
3879.87045	0.25679
3876.01372	0.25874
3872.15699	0.25828
3868.30026	0.25821
3864.44353	0.26130
3860.58680	0.26505
3856.73007	0.26758
3852.87334	0.26876
3849.01661	0.26902
3845.15988	0.27090
3841.30315	0.27307
3837.44642	0.27011
3833.58969	0.26489
3829.73296	0.26550
3825.87623	0.27148
3822.01950	0.27725
3818.16277	0.27770
3814.30604	0.27318
3810.44931	0.26725
3806.59258	0.26193
3802.73585	0.25870
3798.87912	0.25887
3795.02239	0.26164
3791.16566	0.26348
3787.30893	0.26385
3783.45220	0.26480
3779.59547	0.26521
3775.73874	0.26404
3771.88201	0.26284
3768.02528	0.26179
3764.16855	0.26032
3760.31182	0.25937
3756.45509	0.26119
3752.59836	0.26540
3748.74163	0.26529
3744.88490	0.25860
3741.02817	0.25192
3737.17144	0.24708
3733.31471	0.24262
3729.45798	0.23975
3725.60125	0.23769
3721.74452	0.23375
3717.88779	0.22921
3714.03106	0.22609
3710.17433	0.22211
3706.31760	0.21542
3702.46087	0.20836
3698.60414	0.20228
3694.74741	0.19543
3690.89068	0.18705
3687.03395	0.17978
3683.17722	0.17453
3679.32049	0.16864
3675.46376	0.16003
3671.60703	0.15170
3667.75030	0.14532
3663.89357	0.13728
3660.03684	0.13008
3656.18011	0.12614
3652.32338	0.12247
3648.46665	0.11856
3644.60992	0.11485
3640.75319	0.11014
3636.89646	0.10610
3633.03973	0.10348
3629.18300	0.10238
3625.32627	0.10279
3621.46954	0.10275
3617.61281	0.10100
3613.75608	0.09811
3609.89935	0.09674
3606.04262	0.09677
3602.18589	0.09347
3598.32916	0.08714
3594.47243	0.08398
3590.61570	0.08520
3586.75897	0.08783
3582.90224	0.09053
3579.04551	0.09185
3575.18878	0.08871
3571.33205	0.08257
3567.47532	0.07958
3563.61859	0.08182
3559.76186	0.08474
3555.90513	0.08568
3552.04840	0.08628
3548.19167	0.08601
3544.33494	0.08469
3540.47821	0.08692
3536.62148	0.09343
3532.76475	0.09894
3528.90802	0.10058
3525.05129	0.09982
3521.19456	0.09864
3517.33783	0.09887
3513.48110	0.09906
3509.62437	0.09618
3505.76764	0.09156
3501.91091	0.08881
3498.05418	0.08891
3494.19745	0.09161
3490.34072	0.09665
3486.48399	0.10013
3482.62726	0.09768
3478.77053	0.09327
3474.91380	0.09096
3471.05707	0.08946
3467.20034	0.08760
3463.34361	0.08610
3459.48688	0.08610
3455.63015	0.08840
3451.77342	0.09120
3447.91669	0.09203
3444.05996	0.08989
3440.20323	0.08573
3436.34650	0.08308
3432.48977	0.08422
3428.63304	0.08639
3424.77631	0.08678
3420.91958	0.08641
3417.06285	0.08629
3413.20612	0.08489
3409.34939	0.08406
3405.49266	0.08593
3401.63593	0.08734
3397.77920	0.08753
3393.92247	0.08833
3390.06574	0.08779
3386.20901	0.08598
3382.35228	0.08635
3378.49555	0.08990
3374.63881	0.09339
3370.78208	0.09616
3366.92535	0.09777
3363.06862	0.09548
3359.21189	0.09089
3355.35516	0.08831
3351.49843	0.08841
3347.64170	0.09030
3343.78497	0.09239
3339.92824	0.09294
3336.07151	0.09223
3332.21478	0.09165
3328.35805	0.09208
3324.50132	0.09180
3320.64459	0.08761
3316.78786	0.08214
3312.93113	0.08299
3309.07440	0.08970
3305.21767	0.09345
3301.36094	0.09179
3297.50421	0.09089
3293.64748	0.09412
3289.79075	0.09822
3285.93402	0.10096
3282.07729	0.10253
3278.22056	0.10193
3274.36383	0.09993
3270.50710	0.09640
3266.65037	0.09092
3262.79364	0.08772
3258.93691	0.08788
3255.08018	0.08910
3251.22345	0.09195
3247.36672	0.09526
3243.50999	0.09661
3239.65326	0.09661
3235.79653	0.09691
3231.93980	0.09541
3228.08307	0.09233
3224.22634	0.09302
3220.36961	0.09520
3216.51288	0.09416
3212.65615	0.09289
3208.79942	0.09323
3204.94269	0.09391
3201.08596	0.09418
3197.22923	0.09263
3193.37250	0.09110
3189.51577	0.09283
3185.65904	0.09708
3181.80231	0.10064
3177.94558	0.10024
3174.08885	0.09669
3170.23212	0.09377
3166.37539	0.09139
3162.51866	0.09028
3158.66193	0.09254
3154.80520	0.09544
3150.94847	0.09489
3147.09174	0.09381
3143.23501	0.09577
3139.37828	0.09717
3135.52155	0.09474
3131.66482	0.09111
3127.80809	0.09013
3123.95136	0.09113
3120.09463	0.09138
3116.23790	0.09253
3112.38117	0.09626
3108.52444	0.09953
3104.66771	0.09958
3100.81098	0.09916
3096.95425	0.10122
3093.09752	0.10292
3089.24079	0.10115
3085.38406	0.09691
3081.52733	0.09404
3077.67060	0.09423
3073.81387	0.09508
3069.95714	0.09530
3066.10041	0.09566
3062.24368	0.09608
3058.38695	0.09549
3054.53022	0.09361
3050.67349	0.09331
3046.81676	0.09630
3042.96003	0.09919
3039.10330	0.09935
3035.24657	0.09816
3031.38984	0.09834
3027.53311	0.09869
3023.67638	0.09790
3019.81965	0.09766
3015.96292	0.09911
3012.10619	0.10109
3008.24946	0.10111
3004.39273	0.09853
3000.53600	0.09571
2996.67927	0.09551
2992.82254	0.09798
2988.96581	0.10067
2985.10908	0.10093
2981.25235	0.09913
2977.39562	0.09761
2973.53889	0.09760
2969.68216	0.10172
2965.82543	0.10988
2961.96870	0.11509
2958.11197	0.11282
2954.25524	0.10586
2950.39851	0.09877
2946.54178	0.09396
2942.68505	0.09419
2938.82832	0.09974
2934.97159	0.10476
2931.11486	0.10404
2927.25813	0.09890
2923.40140	0.09463
2919.54467	0.09240
2915.68794	0.09191
2911.83121	0.09324
2907.97448	0.09457
2904.11775	0.09606
2900.26102	0.09668
2896.40429	0.09673
2892.54756	0.09872
2888.69083	0.10134
2884.83410	0.10347
2880.97737	0.10444
2877.12064	0.10227
2873.26391	0.09933
2869.40718	0.09834
2865.55045	0.09676
2861.69372	0.09371
2857.83698	0.09302
2853.98025	0.09610
2850.12352	0.10020
2846.26679	0.10371
2842.41006	0.10533
2838.55333	0.10469
2834.69660	0.10360
2830.83987	0.10249
2826.98314	0.10110
2823.12641	0.10071
2819.26968	0.10196
2815.41295	0.10387
2811.55622	0.10487
2807.69949	0.10375
2803.84276	0.10126
2799.98603	0.10051
2796.12930	0.10312
2792.27257	0.10641
2788.41584	0.10700
2784.55911	0.10546
2780.70238	0.10412
2776.84565	0.10334
2772.98892	0.10321
2769.13219	0.10384
2765.27546	0.10457
2761.41873	0.10512
2757.56200	0.10497
2753.70527	0.10337
2749.84854	0.10152
2745.99181	0.10112
2742.13508	0.10115
2738.27835	0.10044
2734.42162	0.10008
2730.56489	0.10108
2726.70816	0.10354
2722.85143	0.10548
2718.99470	0.10451
2715.13797	0.10221
2711.28124	0.10237
2707.42451	0.10494
2703.56778	0.10658
2699.71105	0.10604
2695.85432	0.10516
2691.99759	0.10586
2688.14086	0.10874
2684.28413	0.11235
2680.42740	0.11445
2676.57067	0.11387
2672.71394	0.11162
2668.85721	0.10965
2665.00048	0.10809
2661.14375	0.10737
2657.28702	0.10820
2653.43029	0.10902
2649.57356	0.10861
2645.71683	0.10800
2641.86010	0.10817
2638.00337	0.10959
2634.14664	0.11166
2630.28991	0.11197
2626.43318	0.10969
2622.57645	0.10760
2618.71972	0.10829
2614.86299	0.11076
2611.00626	0.11296
2607.14953	0.11440
2603.29280	0.11576
2599.43607	0.11602
2595.57934	0.11398
2591.72261	0.11209
2587.86588	0.11217
2584.00915	0.11220
2580.15242	0.11136
2576.29569	0.11034
2572.43896	0.10926
2568.58223	0.10877
2564.72550	0.10946
2560.86877	0.11096
2557.01204	0.11217
2553.15531	0.11288
2549.29858	0.11451
2545.44185	0.11685
2541.58512	0.11761
2537.72839	0.11669
2533.87166	0.11669
2530.01493	0.11783
2526.15820	0.11808
2522.30147	0.11819
2518.44474	0.11972
2514.58801	0.12080
2510.73128	0.11979
2506.87455	0.11901
2503.01782	0.12089
2499.16109	0.12340
2495.30436	0.12359
2491.44763	0.12215
2487.59090	0.12086
2483.73417	0.11977
2479.87744	0.11965
2476.02071	0.12152
2472.16398	0.12427
2468.30725	0.12636
2464.45052	0.12737
2460.59379	0.12775
2456.73706	0.12834
2452.88033	0.12931
2449.02360	0.12964
2445.16687	0.12899
2441.31014	0.12862
2437.45341	0.12891
2433.59668	0.12894
2429.73995	0.12858
2425.88322	0.12934
2422.02649	0.13145
2418.16976	0.13211
2414.31303	0.13081
2410.45630	0.13010
2406.59957	0.13075
2402.74284	0.13132
2398.88611	0.13152
2395.02938	0.13288
2391.17265	0.13483
2387.31592	0.13644
2383.45919	0.13881
2379.60246	0.14151
2375.74573	0.14236
2371.88900	0.14006
2368.03227	0.13714
2364.17554	0.13817
2360.31881	0.14043
2356.46208	0.14203
2352.60535	0.14413
2348.74862	0.14520
2344.89189	0.14643
2341.03516	0.14920
2337.17842	0.15057
2333.32169	0.14712
2329.46496	0.14251
2325.60823	0.14124
2321.75150	0.14295
2317.89477	0.14455
2314.03804	0.14509
2310.18131	0.14606
2306.32458	0.14741
2302.46785	0.14722
2298.61112	0.14553
2294.75439	0.14449
2290.89766	0.14510
2287.04093	0.14713
2283.18420	0.14946
2279.32747	0.15018
2275.47074	0.14880
2271.61401	0.14700
2267.75728	0.14630
2263.90055	0.14639
2260.04382	0.14609
2256.18709	0.14571
2252.33036	0.14630
2248.47363	0.14744
2244.61690	0.14850
2240.76017	0.14975
2236.90344	0.15024
2233.04671	0.14830
2229.18998	0.14498
2225.33325	0.14300
2221.47652	0.14326
2217.61979	0.14438
2213.76306	0.14479
2209.90633	0.14483
2206.04960	0.14510
2202.19287	0.14451
2198.33614	0.14274
2194.47941	0.14108
2190.62268	0.14020
2186.76595	0.14018
2182.90922	0.14137
2179.05249	0.14309
2175.19576	0.14393
2171.33903	0.14389
2167.48230	0.14351
2163.62557	0.14241
2159.76884	0.14036
2155.91211	0.13868
2152.05538	0.13824
2148.19865	0.13913
2144.34192	0.14111
2140.48519	0.14246
2136.62846	0.14184
2132.77173	0.14107
2128.91500	0.14232
2125.05827	0.14434
2121.20154	0.14450
2117.34481	0.14309
2113.48808	0.14286
2109.63135	0.14445
2105.77462	0.14483
2101.91789	0.14360
2098.06116	0.14391
2094.20443	0.14504
2090.34770	0.14508
2086.49097	0.14539
2082.63424	0.14622
2078.77751	0.14640
2074.92078	0.14656
2071.06405	0.14697
2067.20732	0.14637
2063.35059	0.14472
2059.49386	0.14341
2055.63713	0.14377
2051.78040	0.14535
2047.92367	0.14609
2044.06694	0.14550
2040.21021	0.14518
2036.35348	0.14625
2032.49675	0.14749
2028.64002	0.14789
2024.78329	0.14798
2020.92656	0.14684
2017.06983	0.14464
2013.21310	0.14442
2009.35637	0.14604
2005.49964	0.14658
2001.64291	0.14645
1997.78618	0.14785
1993.92945	0.14963
1990.07272	0.14963
1986.21599	0.14891
1982.35926	0.14912
1978.50253	0.15028
1974.64580	0.15110
1970.78907	0.14959
1966.93234	0.14656
1963.07561	0.14487
1959.21888	0.14494
1955.36215	0.14614
1951.50542	0.14805
1947.64869	0.14920
1943.79196	0.14909
1939.93523	0.14849
1936.07850	0.14780
1932.22177	0.14757
1928.36504	0.14819
1924.50831	0.14921
1920.65158	0.15040
1916.79485	0.15125
1912.93812	0.15083
1909.08139	0.14945
1905.22466	0.14866
1901.36793	0.14901
1897.51120	0.14915
1893.65447	0.14789
1889.79774	0.14524
1885.94101	0.14350
1882.08428	0.14485
1878.22755	0.14710
1874.37082	0.14720
1870.51409	0.14573
1866.65736	0.14462
1862.80063	0.14391
1858.94390	0.14279
1855.08717	0.14139
1851.23044	0.14002
1847.37371	0.13824
1843.51698	0.13612
1839.66025	0.13517
1835.80352	0.13571
1831.94679	0.13591
1828.09006	0.13404
1824.23333	0.13111
1820.37660	0.12863
1816.51986	0.12639
1812.66313	0.12432
1808.80640	0.12251
1804.94967	0.12007
1801.09294	0.11659
1797.23621	0.11329
1793.37948	0.11151
1789.52275	0.11138
1785.66602	0.11167
1781.80929	0.11050
1777.95256	0.10697
1774.09583	0.10207
1770.23910	0.09771
1766.38237	0.09532
1762.52564	0.09377
1758.66891	0.09126
1754.81218	0.08864
1750.95545	0.08789
1747.09872	0.08847
1743.24199	0.08870
1739.38526	0.08866
1735.52853	0.08862
1731.67180	0.08864
1727.81507	0.08803
1723.95834	0.08713
1720.10161	0.08821
1716.24488	0.09020
1712.38815	0.08840
1708.53142	0.08366
1704.67469	0.07928
1700.81796	0.07760
1696.96123	0.07883
1693.10450	0.07935
1689.24777	0.07889
1685.39104	0.08026
1681.53431	0.08241
1677.67758	0.08204
1673.82085	0.08167
1669.96412	0.08397
1666.10739	0.08726
1662.25066	0.09027
1658.39393	0.09302
1654.53720	0.09513
1650.68047	0.09672
1646.82374	0.09846
1642.96701	0.09994
1639.11028	0.09964
1635.25355	0.09825
1631.39682	0.09779
1627.54009	0.09756
1623.68336	0.09722
1619.82663	0.09713
1615.96990	0.09673
1612.11317	0.09700
1608.25644	0.09838
1604.39971	0.09930
1600.54298	0.09856
1596.68625	0.09570
1592.82952	0.09117
1588.97279	0.08761
1585.11606	0.08722
1581.25933	0.08928
1577.40260	0.09102
1573.54587	0.09015
1569.68914	0.08816
1565.83241	0.08662
1561.97568	0.08587
1558.11895	0.08768
1554.26222	0.08992
1550.40549	0.09108
1546.54876	0.09333
1542.69203	0.09645
1538.83530	0.09865
1534.97857	0.10054
1531.12184	0.10274
1527.26511	0.10391
1523.40838	0.10349
1519.55165	0.10257
1515.69492	0.10268
1511.83819	0.10403
1507.98146	0.10411
1504.12473	0.10171
1500.26800	0.10031
1496.41127	0.10084
1492.55454	0.10245
1488.69781	0.10349
1484.84108	0.10173
1480.98435	0.09915
1477.12762	0.09892
1473.27089	0.09964
1469.41416	0.09809
1465.55743	0.09716
1461.70070	0.09989
1457.84397	0.10342
1453.98724	0.10280
1450.13051	0.09994
1446.27378	0.09768
1442.41705	0.09544
1438.56032	0.09377
1434.70359	0.09464
1430.84686	0.09475
1426.99013	0.09061
1423.13340	0.08656
1419.27667	0.08800
1415.41994	0.09232
1411.56321	0.09335
1407.70648	0.09256
1403.84975	0.09347
1399.99302	0.09305
1396.13629	0.09004
1392.27956	0.08912
1388.42283	0.09026
1384.56610	0.09155
1380.70937	0.09275
1376.85264	0.09164
1372.99591	0.08815
1369.13918	0.08642
1365.28245	0.08820
1361.42572	0.09174
1357.56899	0.09508
1353.71226	0.09756
1349.85553	0.09868
1345.99880	0.09737
1342.14207	0.09479
1338.28534	0.09273
1334.42861	0.09053
1330.57188	0.08890
1326.71515	0.08822
1322.85842	0.08745
1319.00169	0.08786
1315.14496	0.08811
1311.28823	0.08700
1307.43150	0.08761
1303.57477	0.08923
1299.71804	0.08907
1295.86130	0.08971
1292.00457	0.09325
1288.14784	0.09701
1284.29111	0.09732
1280.43438	0.09451
1276.57765	0.09369
1272.72092	0.09543
1268.86419	0.09434
1265.00746	0.09036
1261.15073	0.08977
1257.29400	0.09437
1253.43727	0.09798
1249.58054	0.09848
1245.72381	0.09968
1241.86708	0.10084
1238.01035	0.09981
1234.15362	0.09656
1230.29689	0.09217
1226.44016	0.08764
1222.58343	0.08270
1218.72670	0.08250
1214.86997	0.09183
1211.01324	0.09875
1207.15651	0.09229
1203.29978	0.08244
1199.44305	0.08390
1195.58632	0.09143
1191.72959	0.09223
1187.87286	0.08853
1184.01613	0.09074
1180.15940	0.09865
1176.30267	0.10525
1172.44594	0.10765
1168.58921	0.10050
1164.73248	0.08558
1160.87575	0.07846
1157.01902	0.08529
1153.16229	0.09530
1149.30556	0.10304
1145.44883	0.10873
1141.59210	0.10968
1137.73537	0.10538
1133.87864	0.10007
1130.02191	0.09915
1126.16518	0.10101
1122.30845	0.09889
1118.45172	0.09584
1114.59499	0.09913
1110.73826	0.10177
1106.88153	0.09597
1103.02480	0.08946
1099.16807	0.08889
1095.31134	0.09257
1091.45461	0.09539
1087.59788	0.09344
1083.74115	0.08951
1079.88442	0.09134
1076.02769	0.09813
1072.17096	0.10192
1068.31423	0.09809
1064.45750	0.09464
1060.60077	0.09792
1056.74404	0.09964
1052.88731	0.09321
1049.03058	0.08514
1045.17385	0.08517
1041.31712	0.09150
1037.46039	0.09562
1033.60366	0.09373
1029.74693	0.08822
1025.89020	0.08588
1022.03347	0.08821
1018.17674	0.09071
1014.32001	0.09242
1010.46328	0.09700
1006.60655	0.10399
1002.74982	0.10718
998.89309	0.10428
995.03636	0.10099
991.17963	0.09964
987.32290	0.09747
983.46617	0.09470
979.60944	0.09283
975.75271	0.09383
971.89598	0.09963
968.03925	0.10469
964.18252	0.10492
960.32579	0.10299
956.46906	0.10008
952.61233	0.09730
948.75560	0.09519
944.89887	0.09369
941.04214	0.09449
937.18541	0.09663
933.32868	0.09772
929.47195	0.09735
925.61522	0.09627
921.75849	0.09699
917.90176	0.10109
914.04503	0.10705
910.18830	0.10777
906.33157	0.10000
902.47484	0.09438
898.61811	0.09596
894.76138	0.09699
890.90465	0.09235
887.04792	0.08908
883.19119	0.09412
879.33446	0.10185
875.47773	0.10463
871.62100	0.10394
867.76427	0.10351
863.90754	0.10372
860.05081	0.10534
856.19408	0.10552
852.33735	0.10143
848.48062	0.09546
844.62389	0.09092
840.76716	0.09160
836.91043	0.09752
833.05370	0.10075
829.19697	0.09971
825.34024	0.10253
821.48351	0.10475
817.62678	0.09870
813.77005	0.09217
809.91332	0.09592
806.05659	0.10174
802.19986	0.09907
798.34313	0.09490
794.48640	0.09632
790.62967	0.10214
786.77294	0.10449
782.91621	0.10030
779.05947	0.09671
775.20274	0.09732
771.34601	0.09771
767.48928	0.09676
763.63255	0.09508
759.77582	0.09314
755.91909	0.09483
752.06236	0.09877
748.20563	0.09941
744.34890	0.09497
740.49217	0.08892
736.63544	0.08750
732.77871	0.09349
728.92198	0.09764
725.06525	0.09613
721.20852	0.09760
717.35179	0.10205
713.49506	0.10384
709.63833	0.10213
705.78160	0.10062
701.92487	0.10349
698.06814	0.11064
694.21141	0.11369
690.35468	0.10886
686.49795	0.10373
682.64122	0.10074
678.78449	0.09555
674.92776	0.09376
671.07103	0.09811
667.21430	0.09721
663.35757	0.09030
659.50084	0.09028
655.64411	0.09791
651.78738	0.10415
647.93065	0.10374
644.07392	0.09842
640.21719	0.09377
636.36046	0.09411
632.50373	0.10048
628.64700	0.11020
624.79027	0.11478
620.93354	0.11034
617.07681	0.10610
613.22008	0.11007
609.36335	0.12126
605.50662	0.12865
601.64989	0.12021
597.79316	0.10686
