3995.57236	0.21460
3991.71563	0.21734
3987.85890	0.21702
3984.00217	0.21404
3980.14544	0.21179
3976.28871	0.21099
3972.43198	0.21167
3968.57525	0.21372
3964.71852	0.21737
3960.86179	0.22120
3957.00506	0.22159
3953.14833	0.21908
3949.29160	0.21853
3945.43487	0.22214
3941.57814	0.22616
3937.72141	0.22837
3933.86468	0.23125
3930.00795	0.23417
3926.15122	0.23558
3922.29449	0.23745
3918.43776	0.23929
3914.58103	0.23971
3910.72430	0.24157
3906.86757	0.24570
3903.01084	0.24896
3899.15411	0.24921
3895.29737	0.24812
3891.44064	0.24815
3887.58391	0.24889
3883.72718	0.24848
3879.87045	0.24853
3876.01372	0.25018
3872.15699	0.25056
3868.30026	0.24672
3864.44353	0.24163
3860.58680	0.24049
3856.73007	0.24389
3852.87334	0.24755
3849.01661	0.24729
3845.15988	0.24661
3841.30315	0.24767
3837.44642	0.24881
3833.58969	0.25128
3829.73296	0.25417
3825.87623	0.25300
3822.01950	0.24999
3818.16277	0.24992
3814.30604	0.25207
3810.44931	0.25440
3806.59258	0.25665
3802.73585	0.25811
3798.87912	0.25643
3795.02239	0.25305
3791.16566	0.25144
3787.30893	0.25136
3783.45220	0.25143
3779.59547	0.25084
3775.73874	0.24962
3771.88201	0.24878
3768.02528	0.24888
3764.16855	0.24896
3760.31182	0.24654
3756.45509	0.24142
3752.59836	0.23924
3748.74163	0.24325
3744.88490	0.24541
3741.02817	0.24199
3737.17144	0.23868
3733.31471	0.23664
3729.45798	0.23462
3725.60125	0.23022
3721.74452	0.22192
3717.88779	0.21560
3714.03106	0.21590
3710.17433	0.21757
3706.31760	0.21233
3702.46087	0.20241
3698.60414	0.19390
3694.74741	0.18789
3690.89068	0.18225
3687.03395	0.17529
3683.17722	0.16617
3679.32049	0.15628
3675.46376	0.14936
3671.60703	0.14568
3667.75030	0.14026
3663.89357	0.13294
3660.03684	0.12685
3656.18011	0.12202
3652.32338	0.11572
3648.46665	0.10900
3644.60992	0.10821
3640.75319	0.11190
3636.89646	0.11343
3633.03973	0.11174
3629.18300	0.10983
3625.32627	0.10810
3621.46954	0.10632
3617.61281	0.10361
3613.75608	0.10007
3609.89935	0.10148
3606.04262	0.10775
3602.18589	0.11189
3598.32916	0.11127
3594.47243	0.10926
3590.61570	0.10933
3586.75897	0.11074
3582.90224	0.11032
3579.04551	0.10508
3575.18878	0.09816
3571.33205	0.09632
3567.47532	0.10020
3563.61859	0.10317
3559.76186	0.10109
3555.90513	0.09759
3552.04840	0.09689
3548.19167	0.09871
3544.33494	0.10078
3540.47821	0.10170
3536.62148	0.10181
3532.76475	0.10225
3528.90802	0.10317
3525.05129	0.10399
3521.19456	0.10352
3517.33783	0.10073
3513.48110	0.09847
3509.62437	0.09786
3505.76764	0.09650
3501.91091	0.09453
3498.05418	0.09369
3494.19745	0.09467
3490.34072	0.09524
3486.48399	0.09448
3482.62726	0.09589
3478.77053	0.09923
3474.91380	0.10049
3471.05707	0.09851
3467.20034	0.09693
3463.34361	0.09778
3459.48688	0.09667
3455.63015	0.09378
3451.77342	0.09307
3447.91669	0.09446
3444.05996	0.09529
3440.20323	0.09541
3436.34650	0.09502
3432.48977	0.09535
3428.63304	0.09731
3424.77631	0.09730
3420.91958	0.09346
3417.06285	0.09155
3413.20612	0.09406
3409.34939	0.09523
3405.49266	0.09209
3401.63593	0.08781
3397.77920	0.08622
3393.92247	0.08816
3390.06574	0.09081
3386.20901	0.09249
3382.35228	0.09463
3378.49555	0.09740
3374.63881	0.09795
3370.78208	0.09442
3366.92535	0.08899
3363.06862	0.08744
3359.21189	0.09008
3355.35516	0.09549
3351.49843	0.10032
3347.64170	0.09992
3343.78497	0.09640
3339.92824	0.09423
3336.07151	0.09447
3332.21478	0.09634
3328.35805	0.09677
3324.50132	0.09585
3320.64459	0.09520
3316.78786	0.09351
3312.93113	0.09165
3309.07440	0.09171
3305.21767	0.09353
3301.36094	0.09648
3297.50421	0.10056
3293.64748	0.10352
3289.79075	0.10240
3285.93402	0.09969
3282.07729	0.09798
3278.22056	0.09753
3274.36383	0.09920
3270.50710	0.10137
3266.65037	0.10131
3262.79364	0.09933
3258.93691	0.09598
3255.08018	0.09270
3251.22345	0.09326
3247.36672	0.09731
3243.50999	0.09815
3239.65326	0.09364
3235.79653	0.08891
3231.93980	0.08653
3228.08307	0.08702
3224.22634	0.09080
3220.36961	0.09437
3216.51288	0.09691
3212.65615	0.10039
3208.79942	0.10225
3204.94269	0.10210
3201.08596	0.10176
3197.22923	0.10039
3193.37250	0.09880
3189.51577	0.09923
3185.65904	0.10216
3181.80231	0.10477
3177.94558	0.10433
3174.08885	0.10295
3170.23212	0.10218
3166.37539	0.10045
3162.51866	0.09838
3158.66193	0.09709
3154.80520	0.09558
3150.94847	0.09412
3147.09174	0.09552
3143.23501	0.10028
3139.37828	0.10293
3135.52155	0.10099
3131.66482	0.09937
3127.80809	0.09943
3123.95136	0.09796
3120.09463	0.09642
3116.23790	0.09789
3112.38117	0.10038
3108.52444	0.10099
3104.66771	0.09972
3100.81098	0.09799
3096.95425	0.09796
3093.09752	0.09988
3089.24079	0.10260
3085.38406	0.10527
3081.52733	0.10636
3077.67060	0.10525
3073.81387	0.10409
3069.95714	0.10484
3066.10041	0.10654
3062.24368	0.10709
3058.38695	0.10498
3054.53022	0.10175
3050.67349	0.10127
3046.81676	0.10546
3042.96003	0.11215
3039.10330	0.11592
3035.24657	0.11213
3031.38984	0.10455
3027.53311	0.10296
3023.67638	0.10785
3019.81965	0.11093
3015.96292	0.10884
3012.10619	0.10441
3008.24946	0.10172
3004.39273	0.10374
3000.53600	0.10807
2996.67927	0.11125
2992.82254	0.11193
2988.96581	0.10871
2985.10908	0.10465
2981.25235	0.10400
2977.39562	0.10609
2973.53889	0.10975
2969.68216	0.11317
2965.82543	0.11254
2961.96870	0.10948
2958.11197	0.11015
2954.25524	0.11409
2950.39851	0.11430
2946.54178	0.11031
2942.68505	0.10702
2938.82832	0.10576
2934.97159	0.10484
2931.11486	0.10446
2927.25813	0.10648
2923.40140	0.10992
2919.54467	0.11146
2915.68794	0.10906
2911.83121	0.10561
2907.97448	0.10541
2904.11775	0.10711
2900.26102	0.10654
2896.40429	0.10286
2892.54756	0.09962
2888.69083	0.10049
2884.83410	0.10477
2880.97737	0.10879
2877.12064	0.10959
2873.26391	0.10828
2869.40718	0.10729
2865.55045	0.10581
2861.69372	0.10379
2857.83698	0.10396
2853.98025	0.10738
2850.12352	0.10994
2846.26679	0.10877
2842.41006	0.10638
2838.55333	0.10430
2834.69660	0.10302
2830.83987	0.10332
2826.98314	0.10433
2823.12641	0.10630
2819.26968	0.10916
2815.41295	0.10908
2811.55622	0.10604
2807.69949	0.10513
2803.84276	0.10663
2799.98603	0.10747
2796.12930	0.10722
2792.27257	0.10761
2788.41584	0.10903
2784.55911	0.10876
2780.70238	0.10701
2776.84565	0.10687
2772.98892	0.10830
2769.13219	0.10933
2765.27546	0.10960
2761.41873	0.10966
2757.56200	0.10947
2753.70527	0.10917
2749.84854	0.10911
2745.99181	0.10987
2742.13508	0.11118
2738.27835	0.11110
2734.42162	0.11028
2730.56489	0.11054
2726.70816	0.11107
2722.85143	0.11126
2718.99470	0.11132
2715.13797	0.11087
2711.28124	0.11035
2707.42451	0.10996
2703.56778	0.10869
2699.71105	0.10711
2695.85432	0.10687
2691.99759	0.10796
2688.14086	0.10954
2684.28413	0.11100
2680.42740	0.11150
2676.57067	0.11001
2672.71394	0.10795
2668.85721	0.10870
2665.00048	0.11188
2661.14375	0.11331
2657.28702	0.11151
2653.43029	0.10933
2649.57356	0.10986
2645.71683	0.11230
2641.86010	0.11361
2638.00337	0.11281
2634.14664	0.11123
2630.28991	0.11090
2626.43318	0.11181
2622.57645	0.11199
2618.71972	0.11119
2614.86299	0.11059
2611.00626	0.11081
2607.14953	0.11248
2603.29280	0.11497
2599.43607	0.11620
2595.57934	0.11618
2591.72261	0.11617
2587.86588	0.11524
2584.00915	0.11285
2580.15242	0.11111
2576.29569	0.11205
2572.43896	0.11394
2568.58223	0.11400
2564.72550	0.11306
2560.86877	0.11341
2557.01204	0.11503
2553.15531	0.11580
2549.29858	0.11423
2545.44185	0.11268
2541.58512	0.11311
2537.72839	0.11358
2533.87166	0.11277
2530.01493	0.11200
2526.15820	0.11238
2522.30147	0.11329
2518.44474	0.11431
2514.58801	0.11591
2510.73128	0.11793
2506.87455	0.11865
2503.01782	0.11739
2499.16109	0.11602
2495.30436	0.11624
2491.44763	0.11788
2487.59090	0.11983
2483.73417	0.12094
2479.87744	0.12030
2476.02071	0.11868
2472.16398	0.11825
2468.30725	0.11855
2464.45052	0.11825
2460.59379	0.11869
2456.73706	0.11993
2452.88033	0.12002
2449.02360	0.11947
2445.16687	0.12029
2441.31014	0.12185
2437.45341	0.12264
2433.59668	0.12271
2429.73995	0.12159
2425.88322	0.11985
2422.02649	0.11936
2418.16976	0.11974
2414.31303	0.11980
2410.45630	0.12010
2406.59957	0.12118
2402.74284	0.12244
2398.88611	0.12300
2395.02938	0.12276
2391.17265	0.12237
2387.31592	0.12201
2383.45919	0.12141
2379.60246	0.12076
2375.74573	0.11969
2371.88900	0.11752
2368.03227	0.11499
2364.17554	0.11377
2360.31881	0.11515
2356.46208	0.11805
2352.60535	0.12138
2348.74862	0.12504
2344.89189	0.12841
2341.03516	0.13199
2337.17842	0.13577
2333.32169	0.13714
2329.46496	0.13545
2325.60823	0.13334
2321.75150	0.13256
2317.89477	0.13122
2314.03804	0.12880
2310.18131	0.12707
2306.32458	0.12621
2302.46785	0.12655
2298.61112	0.12864
2294.75439	0.13046
2290.89766	0.13098
2287.04093	0.13153
2283.18420	0.13213
2279.32747	0.13286
2275.47074	0.13387
2271.61401	0.13376
2267.75728	0.13213
2263.90055	0.13061
2260.04382	0.13080
2256.18709	0.13221
2252.33036	0.13321
2248.47363	0.13388
2244.61690	0.13476
2240.76017	0.13503
2236.90344	0.13459
2233.04671	0.13490
2229.18998	0.13550
2225.33325	0.13487
2221.47652	0.13412
2217.61979	0.13386
2213.76306	0.13268
2209.90633	0.13048
2206.04960	0.12856
2202.19287	0.12782
2198.33614	0.12828
2194.47941	0.12881
2190.62268	0.12830
2186.76595	0.12803
2182.90922	0.12879
2179.05249	0.12886
2175.19576	0.12821
2171.33903	0.12840
2167.48230	0.12895
2163.62557	0.12851
2159.76884	0.12792
2155.91211	0.12872
2152.05538	0.12975
2148.19865	0.12914
2144.34192	0.12804
2140.48519	0.12851
2136.62846	0.12981
2132.77173	0.12997
2128.91500	0.12919
2125.05827	0.12958
2121.20154	0.13139
2117.34481	0.13179
2113.48808	0.12944
2109.63135	0.12734
2105.77462	0.12773
2101.91789	0.12904
2098.06116	0.13031
2094.20443	0.13176
2090.34770	0.13297
2086.49097	0.13346
2082.63424	0.13306
2078.77751	0.13280
2074.92078	0.13318
2071.06405	0.13280
2067.20732	0.13194
2063.35059	0.13193
2059.49386	0.13207
2055.63713	0.13173
2051.78040	0.13218
2047.92367	0.13389
2044.06694	0.13466
2040.21021	0.13409
2036.35348	0.13473
2032.49675	0.13601
2028.64002	0.13527
2024.78329	0.13331
2020.92656	0.13243
2017.06983	0.13239
2013.21310	0.13239
2009.35637	0.13364
2005.49964	0.13572
2001.64291	0.13597
1997.78618	0.13485
1993.92945	0.13454
1990.07272	0.13447
1986.21599	0.13351
1982.35926	0.13268
1978.50253	0.13313
1974.64580	0.13407
1970.78907	0.13407
1966.93234	0.13318
1963.07561	0.13231
1959.21888	0.13185
1955.36215	0.13193
1951.50542	0.13274
1947.64869	0.13326
1943.79196	0.13268
1939.93523	0.13204
1936.07850	0.13254
1932.22177	0.13374
1928.36504	0.13460
1924.50831	0.13542
1920.65158	0.13705
1916.79485	0.13828
1912.93812	0.13787
1909.08139	0.13699
1905.22466	0.13668
1901.36793	0.13580
1897.51120	0.13372
1893.65447	0.13232
1889.79774	0.13328
1885.94101	0.13499
1882.08428	0.13475
1878.22755	0.13324
1874.37082	0.13274
1870.51409	0.13219
1866.65736	0.13085
1862.80063	0.13079
1858.94390	0.13107
1855.08717	0.13002
1851.23044	0.12895
1847.37371	0.12835
1843.51698	0.12702
1839.66025	0.12569
1835.80352	0.12554
1831.94679	0.12576
1828.09006	0.12537
1824.23333	0.12398
1820.37660	0.12199
1816.51986	0.12038
1812.66313	0.11896
1808.80640	0.11729
1804.94967	0.11612
1801.09294	0.11540
1797.23621	0.11460
1793.37948	0.11324
1789.52275	0.11110
1785.66602	0.11003
1781.80929	0.10988
1777.95256	0.10767
1774.09583	0.10377
1770.23910	0.10105
1766.38237	0.09935
1762.52564	0.09711
1758.66891	0.09486
1754.81218	0.09390
1750.95545	0.09472
1747.09872	0.09785
1743.24199	0.10251
1739.38526	0.10583
1735.52853	0.10607
1731.67180	0.10372
1727.81507	0.10145
1723.95834	0.10103
1720.10161	0.10091
1716.24488	0.09747
1712.38815	0.09139
1708.53142	0.08643
1704.67469	0.08422
1700.81796	0.08528
1696.96123	0.08692
1693.10450	0.08704
1689.24777	0.08763
1685.39104	0.08992
1681.53431	0.09261
1677.67758	0.09426
1673.82085	0.09603
1669.96412	0.09910
1666.10739	0.10297
1662.25066	0.10604
1658.39393	0.10608
1654.53720	0.10338
1650.68047	0.10222
1646.82374	0.10293
1642.96701	0.10221
1639.11028	0.10168
1635.25355	0.10440
1631.39682	0.10912
1627.54009	0.11293
1623.68336	0.11396
1619.82663	0.11172
1615.96990	0.10997
1612.11317	0.11049
1608.25644	0.11072
1604.39971	0.10892
1600.54298	0.10612
1596.68625	0.10346
1592.82952	0.10070
1588.97279	0.09887
1585.11606	0.09929
1581.25933	0.10031
1577.40260	0.09976
1573.54587	0.09877
1569.68914	0.09963
1565.83241	0.10143
1561.97568	0.10372
1558.11895	0.10796
1554.26222	0.11234
1550.40549	0.11468
1546.54876	0.11557
1542.69203	0.11531
1538.83530	0.11312
1534.97857	0.11020
1531.12184	0.10988
1527.26511	0.11229
1523.40838	0.11380
1519.55165	0.11200
1515.69492	0.10965
1511.83819	0.10876
1507.98146	0.10876
1504.12473	0.10929
1500.26800	0.11137
1496.41127	0.11439
1492.55454	0.11542
1488.69781	0.11462
1484.84108	0.11439
1480.98435	0.11456
1477.12762	0.11393
1473.27089	0.11159
1469.41416	0.10908
1465.55743	0.10987
1461.70070	0.11361
1457.84397	0.11486
1453.98724	0.11052
1450.13051	0.10794
1446.27378	0.11051
1442.41705	0.11405
1438.56032	0.11531
1434.70359	0.11360
1430.84686	0.10863
1426.99013	0.10272
1423.13340	0.10000
1419.27667	0.09983
1415.41994	0.09904
1411.56321	0.09945
1407.70648	0.10096
1403.84975	0.09998
1399.99302	0.09774
1396.13629	0.09895
1392.27956	0.10201
1388.42283	0.10332
1384.56610	0.10451
1380.70937	0.10602
1376.85264	0.10638
1372.99591	0.10705
1369.13918	0.10849
1365.28245	0.10843
1361.42572	0.10608
1357.56899	0.10267
1353.71226	0.10078
1349.85553	0.10187
1345.99880	0.10361
1342.14207	0.10375
1338.28534	0.10196
1334.42861	0.10039
1330.57188	0.10228
1326.71515	0.10586
1322.85842	0.10606
1319.00169	0.10291
1315.14496	0.09984
1311.28823	0.09904
1307.43150	0.10029
1303.57477	0.10068
1299.71804	0.10067
1295.86130	0.10280
1292.00457	0.10394
1288.14784	0.10091
1284.29111	0.09756
1280.43438	0.09786
1276.57765	0.09797
1272.72092	0.09395
1268.86419	0.09074
1265.00746	0.09334
1261.15073	0.09771
1257.29400	0.09700
1253.43727	0.09198
1249.58054	0.09022
1245.72381	0.09309
1241.86708	0.09543
1238.01035	0.09345
1234.15362	0.08776
1230.29689	0.08344
1226.44016	0.08259
1222.58343	0.08337
1218.72670	0.08592
1214.86997	0.08945
1211.01324	0.08958
1207.15651	0.09175
1203.29978	0.09943
1199.44305	0.10381
1195.58632	0.10323
1191.72959	0.10102
1187.87286	0.09723
1184.01613	0.09230
1180.15940	0.08979
1176.30267	0.09385
1172.44594	0.10139
1168.58921	0.10565
1164.73248	0.10978
1160.87575	0.11430
1157.01902	0.11378
1153.16229	0.10952
1149.30556	0.10339
1145.44883	0.09950
1141.59210	0.10349
1137.73537	0.10775
1133.87864	0.10464
1130.02191	0.09752
1126.16518	0.09056
1122.30845	0.08687
1118.45172	0.08779
1114.59499	0.09337
1110.73826	0.10167
1106.88153	0.10903
1103.02480	0.10902
1099.16807	0.09348
1095.31134	0.07378
1091.45461	0.06934
1087.59788	0.08294
1083.74115	0.09916
1079.88442	0.10774
1076.02769	0.10917
1072.17096	0.10604
1068.31423	0.10094
1064.45750	0.09476
1060.60077	0.09179
1056.74404	0.09386
1052.88731	0.09806
1049.03058	0.10380
1045.17385	0.10984
1041.31712	0.11016
1037.46039	0.10692
1033.60366	0.10611
1029.74693	0.10335
1025.89020	0.09613
1022.03347	0.09350
1018.17674	0.09696
1014.32001	0.10019
1010.46328	0.10168
1006.60655	0.10280
1002.74982	0.10413
998.89309	0.10467
995.03636	0.10590
991.17963	0.10933
987.32290	0.10997
983.46617	0.10454
979.60944	0.09902
975.75271	0.09897
971.89598	0.10059
968.03925	0.10057
964.18252	0.10128
960.32579	0.10241
956.46906	0.10330
952.61233	0.10380
948.75560	0.10224
944.89887	0.09880
941.04214	0.09597
937.18541	0.09626
933.32868	0.09879
929.47195	0.09909
925.61522	0.09708
921.75849	0.09672
917.90176	0.09608
914.04503	0.09291
910.18830	0.09033
906.33157	0.08845
902.47484	0.09025
898.61811	0.09632
894.76138	0.09794
890.90465	0.09564
887.04792	0.09806
883.19119	0.10187
879.33446	0.10187
875.47773	0.10099
871.62100	0.09855
867.76427	0.09557
863.90754	0.09614
860.05081	0.09759
856.19408	0.09908
852.33735	0.10136
848.48062	0.10109
844.62389	0.09600
840.76716	0.08879
836.91043	0.08504
833.05370	0.08721
829.19697	0.09067
825.34024	0.08900
821.48351	0.08431
817.62678	0.08012
813.77005	0.07583
809.91332	0.07596
806.05659	0.08566
802.19986	0.10016
798.34313	0.10669
794.48640	0.10353
790.62967	0.09996
786.77294	0.10036
782.91621	0.09995
779.05947	0.09624
775.20274	0.09593
771.34601	0.10035
767.48928	0.10153
763.63255	0.09818
759.77582	0.09418
755.91909	0.09230
752.06236	0.09653
748.20563	0.10268
744.34890	0.10083
740.49217	0.09556
736.63544	0.09666
732.77871	0.09823
728.92198	0.09363
725.06525	0.09016
721.20852	0.09534
717.35179	0.10034
713.49506	0.09765
709.63833	0.09402
705.78160	0.09509
701.92487	0.09769
698.06814	0.09746
694.21141	0.09737
690.35468	0.10354
686.49795	0.10658
682.64122	0.09967
678.78449	0.09413
674.92776	0.09671
671.07103	0.10416
667.21430	0.11333
663.35757	0.10995
659.50084	0.10359
655.64411	0.10412
651.78738	0.10430
647.93065	0.09873
644.07392	0.09412
640.21719	0.09571
636.36046	0.09480
632.50373	0.08966
628.64700	0.09033
624.79027	0.09592
620.93354	0.10381
617.07681	0.11312
613.22008	0.11988
609.36335	0.11966
605.50662	0.11228
601.64989	0.10714
597.79316	0.10909
