3995.57236	0.22706
3991.71563	0.22895
3987.85890	0.23333
3984.00217	0.23782
3980.14544	0.24143
3976.28871	0.24348
3972.43198	0.24159
3968.57525	0.23802
3964.71852	0.23765
3960.86179	0.24057
3957.00506	0.24309
3953.14833	0.24351
3949.29160	0.24571
3945.43487	0.24981
3941.57814	0.25045
3937.72141	0.24887
3933.86468	0.24820
3930.00795	0.24873
3926.15122	0.25247
3922.29449	0.25762
3918.43776	0.25859
3914.58103	0.25793
3910.72430	0.26231
3906.86757	0.27011
3903.01084	0.27435
3899.15411	0.27080
3895.29737	0.26446
3891.44064	0.26190
3887.58391	0.26425
3883.72718	0.26758
3879.87045	0.26674
3876.01372	0.26557
3872.15699	0.27038
3868.30026	0.27647
3864.44353	0.27763
3860.58680	0.27659
3856.73007	0.27745
3852.87334	0.28253
3849.01661	0.28732
3845.15988	0.28895
3841.30315	0.29133
3837.44642	0.29495
3833.58969	0.29504
3829.73296	0.29155
3825.87623	0.28886
3822.01950	0.28889
3818.16277	0.28954
3814.30604	0.28799
3810.44931	0.28640
3806.59258	0.28776
3802.73585	0.28929
3798.87912	0.28708
3795.02239	0.28361
3791.16566	0.28071
3787.30893	0.27802
3783.45220	0.27695
3779.59547	0.27757
3775.73874	0.27744
3771.88201	0.27515
3768.02528	0.27106
3764.16855	0.26882
3760.31182	0.27121
3756.45509	0.27339
3752.59836	0.26900
3748.74163	0.25961
3744.88490	0.25557
3741.02817	0.26212
3737.17144	0.27276
3733.31471	0.27558
3729.45798	0.26646
3725.60125	0.25484
3721.74452	0.24840
3717.88779	0.24680
3714.03106	0.24412
3710.17433	0.23742
3706.31760	0.22865
3702.46087	0.22039
3698.60414	0.21477
3694.74741	0.21034
3690.89068	0.20271
3687.03395	0.19224
3683.17722	0.18301
3679.32049	0.17430
3675.46376	0.16360
3671.60703	0.15232
3667.75030	0.14292
3663.89357	0.13354
3660.03684	0.12387
3656.18011	0.11581
3652.32338	0.11007
3648.46665	0.10498
3644.60992	0.10047
3640.75319	0.09878
3636.89646	0.09909
3633.03973	0.09687
3629.18300	0.09381
3625.32627	0.09496
3621.46954	0.09574
3617.61281	0.09186
3613.75608	0.08601
3609.89935	0.08397
3606.04262	0.08689
3602.18589	0.08897
3598.32916	0.08615
3594.47243	0.08402
3590.61570	0.08827
3586.75897	0.09411
3582.90224	0.09529
3579.04551	0.09177
3575.18878	0.08530
3571.33205	0.08007
3567.47532	0.08063
3563.61859	0.08481
3559.76186	0.08632
3555.90513	0.08432
3552.04840	0.08092
3548.19167	0.07708
3544.33494	0.07628
3540.47821	0.08092
3536.62148	0.08621
3532.76475	0.08501
3528.90802	0.07825
3525.05129	0.07556
3521.19456	0.08006
3517.33783	0.08480
3513.48110	0.08496
3509.62437	0.08187
3505.76764	0.07913
3501.91091	0.07840
3498.05418	0.07932
3494.19745	0.08037
3490.34072	0.08079
3486.48399	0.08134
3482.62726	0.08183
3478.77053	0.08194
3474.91380	0.08114
3471.05707	0.07986
3467.20034	0.07956
3463.34361	0.08005
3459.48688	0.07909
3455.63015	0.07815
3451.77342	0.07854
3447.91669	0.07971
3444.05996	0.08073
3440.20323	0.07988
3436.34650	0.07853
3432.48977	0.07808
3428.63304	0.07674
3424.77631	0.07577
3420.91958	0.07696
3417.06285	0.07729
3413.20612	0.07547
3409.34939	0.07421
3405.49266	0.07430
3401.63593	0.07406
3397.77920	0.07231
3393.92247	0.07057
3390.06574	0.07007
3386.20901	0.07136
3382.35228	0.07327
3378.49555	0.07526
3374.63881	0.07725
3370.78208	0.07833
3366.92535	0.08001
3363.06862	0.08260
3359.21189	0.08438
3355.35516	0.08402
3351.49843	0.08164
3347.64170	0.07972
3343.78497	0.07978
3339.92824	0.08021
3336.07151	0.07970
3332.21478	0.07635
3328.35805	0.07336
3324.50132	0.07360
3320.64459	0.07400
3316.78786	0.07438
3312.93113	0.07697
3309.07440	0.07947
3305.21767	0.07911
3301.36094	0.07877
3297.50421	0.07857
3293.64748	0.07750
3289.79075	0.07850
3285.93402	0.08079
3282.07729	0.07943
3278.22056	0.07616
3274.36383	0.07530
3270.50710	0.07686
3266.65037	0.07855
3262.79364	0.07876
3258.93691	0.07878
3255.08018	0.07970
3251.22345	0.08002
3247.36672	0.08038
3243.50999	0.08023
3239.65326	0.07715
3235.79653	0.07365
3231.93980	0.07324
3228.08307	0.07504
3224.22634	0.07665
3220.36961	0.07628
3216.51288	0.07451
3212.65615	0.07671
3208.79942	0.08424
3204.94269	0.08898
3201.08596	0.08601
3197.22923	0.08105
3193.37250	0.07960
3189.51577	0.08064
3185.65904	0.08333
3181.80231	0.08597
3177.94558	0.08483
3174.08885	0.08220
3170.23212	0.08221
3166.37539	0.08252
3162.51866	0.07956
3158.66193	0.07476
3154.80520	0.07227
3150.94847	0.07369
3147.09174	0.07629
3143.23501	0.07967
3139.37828	0.08389
3135.52155	0.08464
3131.66482	0.08259
3127.80809	0.08179
3123.95136	0.08079
3120.09463	0.07938
3116.23790	0.08113
3112.38117	0.08465
3108.52444	0.08579
3104.66771	0.08559
3100.81098	0.08651
3096.95425	0.08843
3093.09752	0.08888
3089.24079	0.08659
3085.38406	0.08429
3081.52733	0.08325
3077.67060	0.08297
3073.81387	0.08485
3069.95714	0.08681
3066.10041	0.08627
3062.24368	0.08594
3058.38695	0.08583
3054.53022	0.08451
3050.67349	0.08481
3046.81676	0.08862
3042.96003	0.09262
3039.10330	0.09268
3035.24657	0.08952
3031.38984	0.08640
3027.53311	0.08609
3023.67638	0.08909
3019.81965	0.09204
3015.96292	0.09133
3012.10619	0.08741
3008.24946	0.08415
3004.39273	0.08400
3000.53600	0.08577
2996.67927	0.08749
2992.82254	0.08701
2988.96581	0.08477
2985.10908	0.08324
2981.25235	0.08362
2977.39562	0.08666
2973.53889	0.09079
2969.68216	0.09049
2965.82543	0.08549
2961.96870	0.08341
2958.11197	0.08622
2954.25524	0.08668
2950.39851	0.08275
2946.54178	0.08081
2942.68505	0.08359
2938.82832	0.08598
2934.97159	0.08642
2931.11486	0.08602
2927.25813	0.08395
2923.40140	0.08589
2919.54467	0.09311
2915.68794	0.09754
2911.83121	0.09708
2907.97448	0.09475
2904.11775	0.09225
2900.26102	0.09092
2896.40429	0.09033
2892.54756	0.08964
2888.69083	0.08796
2884.83410	0.08629
2880.97737	0.08696
2877.12064	0.08862
2873.26391	0.09106
2869.40718	0.09280
2865.55045	0.08928
2861.69372	0.08534
2857.83698	0.08935
2853.98025	0.09603
2850.12352	0.09614
2846.26679	0.09162
2842.41006	0.08818
2838.55333	0.08783
2834.69660	0.09080
2830.83987	0.09460
2826.98314	0.09605
2823.12641	0.09496
2819.26968	0.09238
2815.41295	0.09008
2811.55622	0.09037
2807.69949	0.09159
2803.84276	0.09044
2799.98603	0.08822
2796.12930	0.08799
2792.27257	0.09015
2788.41584	0.09149
2784.55911	0.09088
2780.70238	0.09152
2776.84565	0.09412
2772.98892	0.09538
2769.13219	0.09445
2765.27546	0.09313
2761.41873	0.09209
2757.56200	0.09146
2753.70527	0.09169
2749.84854	0.09341
2745.99181	0.09517
2742.13508	0.09514
2738.27835	0.09431
2734.42162	0.09355
2730.56489	0.09277
2726.70816	0.09140
2722.85143	0.08933
2718.99470	0.08875
2715.13797	0.09077
2711.28124	0.09402
2707.42451	0.09683
2703.56778	0.09899
2699.71105	0.10005
2695.85432	0.09824
2691.99759	0.09518
2688.14086	0.09418
2684.28413	0.09486
2680.42740	0.09592
2676.57067	0.09725
2672.71394	0.09819
2668.85721	0.09751
2665.00048	0.09598
2661.14375	0.09602
2657.28702	0.09753
2653.43029	0.09900
2649.57356	0.10052
2645.71683	0.10131
2641.86010	0.09979
2638.00337	0.09736
2634.14664	0.09671
2630.28991	0.09900
2626.43318	0.10271
2622.57645	0.10430
2618.71972	0.10304
2614.86299	0.10068
2611.00626	0.09925
2607.14953	0.10056
2603.29280	0.10270
2599.43607	0.10320
2595.57934	0.10333
2591.72261	0.10368
2587.86588	0.10302
2584.00915	0.10252
2580.15242	0.10378
2576.29569	0.10530
2572.43896	0.10562
2568.58223	0.10567
2564.72550	0.10557
2560.86877	0.10493
2557.01204	0.10526
2553.15531	0.10681
2549.29858	0.10813
2545.44185	0.10814
2541.58512	0.10661
2537.72839	0.10507
2533.87166	0.10487
2530.01493	0.10525
2526.15820	0.10481
2522.30147	0.10417
2518.44474	0.10543
2514.58801	0.10819
2510.73128	0.11005
2506.87455	0.11003
2503.01782	0.10916
2499.16109	0.10895
2495.30436	0.11010
2491.44763	0.11161
2487.59090	0.11175
2483.73417	0.11100
2479.87744	0.11180
2476.02071	0.11410
2472.16398	0.11615
2468.30725	0.11623
2464.45052	0.11383
2460.59379	0.11213
2456.73706	0.11314
2452.88033	0.11474
2449.02360	0.11565
2445.16687	0.11622
2441.31014	0.11664
2437.45341	0.11718
2433.59668	0.11839
2429.73995	0.12003
2425.88322	0.12063
2422.02649	0.12000
2418.16976	0.11937
2414.31303	0.11933
2410.45630	0.11975
2406.59957	0.12054
2402.74284	0.12176
2398.88611	0.12380
2395.02938	0.12653
2391.17265	0.12776
2387.31592	0.12613
2383.45919	0.12331
2379.60246	0.12149
2375.74573	0.12222
2371.88900	0.12585
2368.03227	0.12942
2364.17554	0.13046
2360.31881	0.13156
2356.46208	0.12817
2352.60535	0.12088
2348.74862	0.11878
2344.89189	0.12016
2341.03516	0.11987
2337.17842	0.12088
2333.32169	0.12594
2329.46496	0.12787
2325.60823	0.12543
2321.75150	0.12383
2317.89477	0.12528
2314.03804	0.12935
2310.18131	0.13386
2306.32458	0.13627
2302.46785	0.13662
2298.61112	0.13629
2294.75439	0.13626
2290.89766	0.13648
2287.04093	0.13615
2283.18420	0.13526
2279.32747	0.13463
2275.47074	0.13447
2271.61401	0.13481
2267.75728	0.13585
2263.90055	0.13691
2260.04382	0.13699
2256.18709	0.13610
2252.33036	0.13545
2248.47363	0.13582
2244.61690	0.13615
2240.76017	0.13557
2236.90344	0.13534
2233.04671	0.13598
2229.18998	0.13729
2225.33325	0.13925
2221.47652	0.14016
2217.61979	0.13869
2213.76306	0.13663
2209.90633	0.13570
2206.04960	0.13514
2202.19287	0.13433
2198.33614	0.13389
2194.47941	0.13379
2190.62268	0.13350
2186.76595	0.13310
2182.90922	0.13290
2179.05249	0.13317
2175.19576	0.13399
2171.33903	0.13409
2167.48230	0.13241
2163.62557	0.13007
2159.76884	0.12876
2155.91211	0.12956
2152.05538	0.13197
2148.19865	0.13356
2144.34192	0.13362
2140.48519	0.13350
2136.62846	0.13374
2132.77173	0.13426
2128.91500	0.13489
2125.05827	0.13515
2121.20154	0.13492
2117.34481	0.13449
2113.48808	0.13415
2109.63135	0.13466
2105.77462	0.13596
2101.91789	0.13700
2098.06116	0.13778
2094.20443	0.13776
2090.34770	0.13616
2086.49097	0.13414
2082.63424	0.13276
2078.77751	0.13254
2074.92078	0.13339
2071.06405	0.13388
2067.20732	0.13317
2063.35059	0.13210
2059.49386	0.13202
2055.63713	0.13345
2051.78040	0.13555
2047.92367	0.13711
2044.06694	0.13759
2040.21021	0.13803
2036.35348	0.13941
2032.49675	0.14028
2028.64002	0.13993
2024.78329	0.14011
2020.92656	0.14110
2017.06983	0.14202
2013.21310	0.14303
2009.35637	0.14337
2005.49964	0.14220
2001.64291	0.14095
1997.78618	0.14105
1993.92945	0.14118
1990.07272	0.13984
1986.21599	0.13854
1982.35926	0.13940
1978.50253	0.14158
1974.64580	0.14238
1970.78907	0.14098
1966.93234	0.13891
1963.07561	0.13776
1959.21888	0.13799
1955.36215	0.13865
1951.50542	0.13880
1947.64869	0.13882
1943.79196	0.13922
1939.93523	0.13982
1936.07850	0.14039
1932.22177	0.14041
1928.36504	0.13995
1924.50831	0.14030
1920.65158	0.14147
1916.79485	0.14254
1912.93812	0.14278
1909.08139	0.14166
1905.22466	0.14051
1901.36793	0.14031
1897.51120	0.13985
1893.65447	0.13875
1889.79774	0.13754
1885.94101	0.13594
1882.08428	0.13375
1878.22755	0.13219
1874.37082	0.13207
1870.51409	0.13255
1866.65736	0.13333
1862.80063	0.13418
1858.94390	0.13387
1855.08717	0.13273
1851.23044	0.13213
1847.37371	0.13183
1843.51698	0.13095
1839.66025	0.12951
1835.80352	0.12773
1831.94679	0.12587
1828.09006	0.12427
1824.23333	0.12248
1820.37660	0.12008
1816.51986	0.11732
1812.66313	0.11476
1808.80640	0.11308
1804.94967	0.11170
1801.09294	0.10941
1797.23621	0.10697
1793.37948	0.10500
1789.52275	0.10238
1785.66602	0.09956
1781.80929	0.09804
1777.95256	0.09704
1774.09583	0.09399
1770.23910	0.08854
1766.38237	0.08391
1762.52564	0.08242
1758.66891	0.08327
1754.81218	0.08372
1750.95545	0.08260
1747.09872	0.08115
1743.24199	0.08020
1739.38526	0.07999
1735.52853	0.08046
1731.67180	0.08043
1727.81507	0.08000
1723.95834	0.07992
1720.10161	0.07862
1716.24488	0.07620
1712.38815	0.07543
1708.53142	0.07455
1704.67469	0.07243
1700.81796	0.07244
1696.96123	0.07387
1693.10450	0.07312
1689.24777	0.07148
1685.39104	0.07086
1681.53431	0.07336
1677.67758	0.07766
1673.82085	0.08136
1669.96412	0.08293
1666.10739	0.08208
1662.25066	0.08182
1658.39393	0.08442
1654.53720	0.08755
1650.68047	0.08702
1646.82374	0.08350
1642.96701	0.08040
1639.11028	0.07958
1635.25355	0.08186
1631.39682	0.08536
1627.54009	0.08667
1623.68336	0.08557
1619.82663	0.08627
1615.96990	0.08816
1612.11317	0.08611
1608.25644	0.08214
1604.39971	0.07985
1600.54298	0.07938
1596.68625	0.07913
1592.82952	0.07785
1588.97279	0.07733
1585.11606	0.07865
1581.25933	0.07890
1577.40260	0.07603
1573.54587	0.07336
1569.68914	0.07372
1565.83241	0.07530
1561.97568	0.07680
1558.11895	0.07895
1554.26222	0.08194
1550.40549	0.08438
1546.54876	0.08637
1542.69203	0.08796
1538.83530	0.08865
1534.97857	0.08764
1531.12184	0.08477
1527.26511	0.08234
1523.40838	0.08449
1519.55165	0.09123
1515.69492	0.09581
1511.83819	0.09555
1507.98146	0.09332
1504.12473	0.09284
1500.26800	0.09361
1496.41127	0.09157
1492.55454	0.08621
1488.69781	0.08287
1484.84108	0.08368
1480.98435	0.08500
1477.12762	0.08517
1473.27089	0.08449
1469.41416	0.08338
1465.55743	0.08367
1461.70070	0.08540
1457.84397	0.08737
1453.98724	0.08818
1450.13051	0.08785
1446.27378	0.08813
1442.41705	0.08890
1438.56032	0.09053
1434.70359	0.09329
1430.84686	0.09327
1426.99013	0.08957
1423.13340	0.08550
1419.27667	0.08304
1415.41994	0.08289
1411.56321	0.08485
1407.70648	0.08658
1403.84975	0.08490
1399.99302	0.07936
1396.13629	0.07434
1392.27956	0.07469
1388.42283	0.07970
1384.56610	0.08464
1380.70937	0.08648
1376.85264	0.08701
1372.99591	0.08920
1369.13918	0.09154
1365.28245	0.09028
1361.42572	0.08549
1357.56899	0.08051
1353.71226	0.07894
1349.85553	0.08024
1345.99880	0.08073
1342.14207	0.08032
1338.28534	0.08156
1334.42861	0.08333
1330.57188	0.08285
1326.71515	0.08209
1322.85842	0.08436
1319.00169	0.08629
1315.14496	0.08463
1311.28823	0.08318
1307.43150	0.08295
1303.57477	0.08178
1299.71804	0.08074
1295.86130	0.07998
1292.00457	0.07881
1288.14784	0.07623
1284.29111	0.07236
1280.43438	0.07191
1276.57765	0.07647
1272.72092	0.08177
1268.86419	0.08746
1265.00746	0.09240
1261.15073	0.09011
1257.29400	0.08156
1253.43727	0.07605
1249.58054	0.07534
1245.72381	0.07760
1241.86708	0.08702
1238.01035	0.09901
1234.15362	0.09912
1230.29689	0.09066
1226.44016	0.08869
1222.58343	0.09125
1218.72670	0.09013
1214.86997	0.08716
1211.01324	0.08847
1207.15651	0.09424
1203.29978	0.09273
1199.44305	0.08482
1195.58632	0.08116
1191.72959	0.08241
1187.87286	0.08604
1184.01613	0.09279
1180.15940	0.09639
1176.30267	0.08969
1172.44594	0.08145
1168.58921	0.08273
1164.73248	0.08831
1160.87575	0.09094
1157.01902	0.09039
1153.16229	0.08788
1149.30556	0.08292
1145.44883	0.07881
1141.59210	0.07935
1137.73537	0.08063
1133.87864	0.07895
1130.02191	0.07995
1126.16518	0.08609
1122.30845	0.09108
1118.45172	0.09285
1114.59499	0.09468
1110.73826	0.09577
1106.88153	0.09311
1103.02480	0.08600
1099.16807	0.08147
1095.31134	0.08388
1091.45461	0.08649
1087.59788	0.08340
1083.74115	0.07791
1079.88442	0.07691
1076.02769	0.07961
1072.17096	0.08525
1068.31423	0.08777
1064.45750	0.08158
1060.60077	0.07661
1056.74404	0.07917
1052.88731	0.08224
1049.03058	0.07995
1045.17385	0.07609
1041.31712	0.07644
1037.46039	0.08196
1033.60366	0.08603
1029.74693	0.08363
1025.89020	0.08023
1022.03347	0.08311
1018.17674	0.08670
1014.32001	0.08437
1010.46328	0.08415
1006.60655	0.09029
1002.74982	0.09543
998.89309	0.09176
995.03636	0.08466
991.17963	0.08498
987.32290	0.08966
983.46617	0.09065
979.60944	0.08805
975.75271	0.08575
971.89598	0.08533
968.03925	0.08558
964.18252	0.08587
960.32579	0.08874
956.46906	0.09019
952.61233	0.08492
948.75560	0.07831
944.89887	0.07597
941.04214	0.08024
937.18541	0.08736
933.32868	0.08977
929.47195	0.08479
925.61522	0.07890
921.75849	0.08038
917.90176	0.08479
914.04503	0.08732
910.18830	0.08916
906.33157	0.08922
902.47484	0.08884
898.61811	0.08950
894.76138	0.08972
890.90465	0.09082
887.04792	0.09026
883.19119	0.08796
879.33446	0.08660
875.47773	0.08826
871.62100	0.09107
867.76427	0.08886
863.90754	0.08307
860.05081	0.08176
856.19408	0.08341
852.33735	0.08173
848.48062	0.07995
844.62389	0.08159
840.76716	0.08219
836.91043	0.07967
833.05370	0.07476
829.19697	0.07029
825.34024	0.07629
821.48351	0.08929
817.62678	0.09579
813.77005	0.09303
809.91332	0.08591
806.05659	0.07795
802.19986	0.07214
798.34313	0.06858
794.48640	0.06822
790.62967	0.07516
786.77294	0.08807
782.91621	0.09531
779.05947	0.09213
775.20274	0.08700
771.34601	0.08438
767.48928	0.08146
763.63255	0.07771
759.77582	0.07549
755.91909	0.07680
752.06236	0.08288
748.20563	0.09313
744.34890	0.10089
740.49217	0.09736
736.63544	0.08468
732.77871	0.07669
728.92198	0.08183
725.06525	0.09192
721.20852	0.09746
717.35179	0.09525
713.49506	0.08956
709.63833	0.08645
705.78160	0.08556
701.92487	0.08672
698.06814	0.08476
694.21141	0.08201
690.35468	0.08472
686.49795	0.08867
682.64122	0.08908
678.78449	0.08473
674.92776	0.08019
671.07103	0.08105
667.21430	0.08600
663.35757	0.08809
659.50084	0.08693
655.64411	0.08709
651.78738	0.09097
647.93065	0.09820
644.07392	0.09817
640.21719	0.09354
636.36046	0.09671
632.50373	0.10251
628.64700	0.10138
624.79027	0.09026
620.93354	0.07832
617.07681	0.08192
613.22008	0.09399
609.36335	0.10067
605.50662	0.10229
601.64989	0.10251
597.79316	0.10198
