3995.57236	0.25608
3991.71563	0.26096
3987.85890	0.26423
3984.00217	0.26378
3980.14544	0.26150
3976.28871	0.25918
3972.43198	0.25804
3968.57525	0.25801
3964.71852	0.25756
3960.86179	0.25775
3957.00506	0.25981
3953.14833	0.26122
3949.29160	0.26014
3945.43487	0.25917
3941.57814	0.26012
3937.72141	0.26212
3933.86468	0.26511
3930.00795	0.26756
3926.15122	0.26634
3922.29449	0.26112
3918.43776	0.25732
3914.58103	0.25996
3910.72430	0.26459
3906.86757	0.26731
3903.01084	0.26946
3899.15411	0.27161
3895.29737	0.27500
3891.44064	0.27870
3887.58391	0.27904
3883.72718	0.27761
3879.87045	0.27778
3876.01372	0.27897
3872.15699	0.28060
3868.30026	0.28042
3864.44353	0.27685
3860.58680	0.27435
3856.73007	0.27612
3852.87334	0.27918
3849.01661	0.27962
3845.15988	0.27959
3841.30315	0.27972
3837.44642	0.27980
3833.58969	0.28015
3829.73296	0.27907
3825.87623	0.27795
3822.01950	0.27945
3818.16277	0.28171
3814.30604	0.28125
3810.44931	0.27882
3806.59258	0.27589
3802.73585	0.27373
3798.87912	0.27556
3795.02239	0.27943
3791.16566	0.27976
3787.30893	0.27814
3783.45220	0.27815
3779.59547	0.27900
3775.73874	0.27780
3771.88201	0.27401
3768.02528	0.27128
3764.16855	0.27111
3760.31182	0.27066
3756.45509	0.27017
3752.59836	0.27128
3748.74163	0.27176
3744.88490	0.26808
3741.02817	0.26330
3737.17144	0.26295
3733.31471	0.26401
3729.45798	0.25866
3725.60125	0.25083
3721.74452	0.24814
3717.88779	0.25123
3714.03106	0.25559
3710.17433	0.25587
3706.31760	0.25011
3702.46087	0.24057
3698.60414	0.23023
3694.74741	0.22449
3690.89068	0.22472
3687.03395	0.22384
3683.17722	0.21648
3679.32049	0.20619
3675.46376	0.19781
3671.60703	0.19143
3667.75030	0.18198
3663.89357	0.17052
3660.03684	0.16278
3656.18011	0.16049
3652.32338	0.15688
3648.46665	0.14712
3644.60992	0.13836
3640.75319	0.13435
3636.89646	0.13197
3633.03973	0.12969
3629.18300	0.12876
3625.32627	0.12952
3621.46954	0.12778
3617.61281	0.12122
3613.75608	0.11539
3609.89935	0.11583
3606.04262	0.11736
3602.18589	0.11642
3598.32916	0.11523
3594.47243	0.11260
3590.61570	0.11049
3586.75897	0.11248
3582.90224	0.11320
3579.04551	0.11183
3575.18878	0.11468
3571.33205	0.11889
3567.47532	0.11780
3563.61859	0.11308
3559.76186	0.11121
3555.90513	0.11180
3552.04840	0.11035
3548.19167	0.10678
3544.33494	0.10537
3540.47821	0.10619
3536.62148	0.10631
3532.76475	0.10712
3528.90802	0.11098
3525.05129	0.11481
3521.19456	0.11443
3517.33783	0.11117
3513.48110	0.10887
3509.62437	0.10762
3505.76764	0.10629
3501.91091	0.10752
3498.05418	0.11303
3494.19745	0.11864
3490.34072	0.11988
3486.48399	0.11973
3482.62726	0.12049
3478.77053	0.11711
3474.91380	0.11224
3471.05707	0.11389
3467.20034	0.11772
3463.34361	0.11765
3459.48688	0.11630
3455.63015	0.11360
3451.77342	0.10873
3447.91669	0.10658
3444.05996	0.10678
3440.20323	0.10574
3436.34650	0.10645
3432.48977	0.10859
3428.63304	0.10844
3424.77631	0.10901
3420.91958	0.11156
3417.06285	0.11185
3413.20612	0.10956
3409.34939	0.10886
3405.49266	0.11074
3401.63593	0.11141
3397.77920	0.10929
3393.92247	0.10614
3390.06574	0.10417
3386.20901	0.10489
3382.35228	0.10846
3378.49555	0.11347
3374.63881	0.11711
3370.78208	0.11750
3366.92535	0.11576
3363.06862	0.11437
3359.21189	0.11413
3355.35516	0.11354
3351.49843	0.11197
3347.64170	0.11083
3343.78497	0.10997
3339.92824	0.10678
3336.07151	0.10108
3332.21478	0.09722
3328.35805	0.09881
3324.50132	0.10387
3320.64459	0.10829
3316.78786	0.11029
3312.93113	0.11142
3309.07440	0.11361
3305.21767	0.11348
3301.36094	0.10958
3297.50421	0.10760
3293.64748	0.10897
3289.79075	0.10947
3285.93402	0.10953
3282.07729	0.11236
3278.22056	0.11697
3274.36383	0.11920
3270.50710	0.11830
3266.65037	0.11723
3262.79364	0.11791
3258.93691	0.11898
3255.08018	0.11643
3251.22345	0.11266
3247.36672	0.11450
3243.50999	0.11884
3239.65326	0.11859
3235.79653	0.11523
3231.93980	0.11408
3228.08307	0.11624
3224.22634	0.11781
3220.36961	0.11662
3216.51288	0.11515
3212.65615	0.11402
3208.79942	0.11227
3204.94269	0.11245
3201.08596	0.11468
3197.22923	0.11431
3193.37250	0.11227
3189.51577	0.11292
3185.65904	0.11406
3181.80231	0.11454
3177.94558	0.11622
3174.08885	0.11716
3170.23212	0.11660
3166.37539	0.11577
3162.51866	0.11417
3158.66193	0.11336
3154.80520	0.11536
3150.94847	0.11877
3147.09174	0.11944
3143.23501	0.11644
3139.37828	0.11546
3135.52155	0.11701
3131.66482	0.11578
3127.80809	0.11384
3123.95136	0.11450
3120.09463	0.11497
3116.23790	0.11381
3112.38117	0.11314
3108.52444	0.11303
3104.66771	0.11229
3100.81098	0.11186
3096.95425	0.11152
3093.09752	0.11066
3089.24079	0.11148
3085.38406	0.11397
3081.52733	0.11534
3077.67060	0.11508
3073.81387	0.11515
3069.95714	0.11592
3066.10041	0.11644
3062.24368	0.11768
3058.38695	0.11968
3054.53022	0.11940
3050.67349	0.11716
3046.81676	0.11670
3042.96003	0.11928
3039.10330	0.12164
3035.24657	0.12061
3031.38984	0.11798
3027.53311	0.11768
3023.67638	0.11791
3019.81965	0.11449
3015.96292	0.11183
3012.10619	0.11436
3008.24946	0.11643
3004.39273	0.11437
3000.53600	0.11222
2996.67927	0.11310
2992.82254	0.11614
2988.96581	0.11948
2985.10908	0.12163
2981.25235	0.12252
2977.39562	0.12312
2973.53889	0.12250
2969.68216	0.11913
2965.82543	0.11613
2961.96870	0.11677
2958.11197	0.11873
2954.25524	0.11948
2950.39851	0.11893
2946.54178	0.11701
2942.68505	0.11599
2938.82832	0.11837
2934.97159	0.12122
2931.11486	0.12108
2927.25813	0.11975
2923.40140	0.11844
2919.54467	0.11733
2915.68794	0.11987
2911.83121	0.12657
2907.97448	0.13058
2904.11775	0.12675
2900.26102	0.11901
2896.40429	0.11502
2892.54756	0.11605
2888.69083	0.11644
2884.83410	0.11376
2880.97737	0.11300
2877.12064	0.11521
2873.26391	0.11603
2869.40718	0.11745
2865.55045	0.11955
2861.69372	0.11773
2857.83698	0.11564
2853.98025	0.11687
2850.12352	0.11868
2846.26679	0.12015
2842.41006	0.12108
2838.55333	0.12038
2834.69660	0.11943
2830.83987	0.11899
2826.98314	0.11819
2823.12641	0.11724
2819.26968	0.11800
2815.41295	0.12042
2811.55622	0.12117
2807.69949	0.11944
2803.84276	0.11859
2799.98603	0.11994
2796.12930	0.12078
2792.27257	0.11914
2788.41584	0.11682
2784.55911	0.11606
2780.70238	0.11702
2776.84565	0.11903
2772.98892	0.12109
2769.13219	0.12249
2765.27546	0.12224
2761.41873	0.12144
2757.56200	0.12272
2753.70527	0.12403
2749.84854	0.12281
2745.99181	0.12135
2742.13508	0.11984
2738.27835	0.11677
2734.42162	0.11587
2730.56489	0.11918
2726.70816	0.12245
2722.85143	0.12256
2718.99470	0.12138
2715.13797	0.12117
2711.28124	0.12048
2707.42451	0.11778
2703.56778	0.11598
2699.71105	0.11779
2695.85432	0.12094
2691.99759	0.12297
2688.14086	0.12356
2684.28413	0.12309
2680.42740	0.12283
2676.57067	0.12348
2672.71394	0.12329
2668.85721	0.12220
2665.00048	0.12215
2661.14375	0.12306
2657.28702	0.12380
2653.43029	0.12414
2649.57356	0.12433
2645.71683	0.12460
2641.86010	0.12461
2638.00337	0.12403
2634.14664	0.12316
2630.28991	0.12254
2626.43318	0.12232
2622.57645	0.12187
2618.71972	0.12105
2614.86299	0.12093
2611.00626	0.12194
2607.14953	0.12354
2603.29280	0.12572
2599.43607	0.12701
2595.57934	0.12560
2591.72261	0.12373
2587.86588	0.12367
2584.00915	0.12415
2580.15242	0.12379
2576.29569	0.12261
2572.43896	0.12221
2568.58223	0.12385
2564.72550	0.12605
2560.86877	0.12676
2557.01204	0.12599
2553.15531	0.12526
2549.29858	0.12536
2545.44185	0.12519
2541.58512	0.12440
2537.72839	0.12472
2533.87166	0.12626
2530.01493	0.12693
2526.15820	0.12605
2522.30147	0.12521
2518.44474	0.12659
2514.58801	0.12875
2510.73128	0.12861
2506.87455	0.12726
2503.01782	0.12651
2499.16109	0.12596
2495.30436	0.12581
2491.44763	0.12691
2487.59090	0.12903
2483.73417	0.13044
2479.87744	0.12955
2476.02071	0.12814
2472.16398	0.12985
2468.30725	0.13355
2464.45052	0.13547
2460.59379	0.13525
2456.73706	0.13485
2452.88033	0.13450
2449.02360	0.13370
2445.16687	0.13396
2441.31014	0.13579
2437.45341	0.13709
2433.59668	0.13726
2429.73995	0.13730
2425.88322	0.13759
2422.02649	0.13736
2418.16976	0.13626
2414.31303	0.13606
2410.45630	0.13757
2406.59957	0.13822
2402.74284	0.13759
2398.88611	0.13796
2395.02938	0.13841
2391.17265	0.13855
2387.31592	0.13989
2383.45919	0.14086
2379.60246	0.13978
2375.74573	0.13798
2371.88900	0.13791
2368.03227	0.13919
2364.17554	0.13693
2360.31881	0.13096
2356.46208	0.12788
2352.60535	0.13022
2348.74862	0.13371
2344.89189	0.13501
2341.03516	0.13789
2337.17842	0.14548
2333.32169	0.14998
2329.46496	0.14971
2325.60823	0.14791
2321.75150	0.14448
2317.89477	0.14163
2314.03804	0.14218
2310.18131	0.14448
2306.32458	0.14771
2302.46785	0.15105
2298.61112	0.15225
2294.75439	0.15165
2290.89766	0.15111
2287.04093	0.15097
2283.18420	0.15110
2279.32747	0.15222
2275.47074	0.15384
2271.61401	0.15441
2267.75728	0.15307
2263.90055	0.15047
2260.04382	0.14929
2256.18709	0.15095
2252.33036	0.15398
2248.47363	0.15586
2244.61690	0.15552
2240.76017	0.15485
2236.90344	0.15526
2233.04671	0.15577
2229.18998	0.15544
2225.33325	0.15407
2221.47652	0.15285
2217.61979	0.15382
2213.76306	0.15617
2209.90633	0.15727
2206.04960	0.15660
2202.19287	0.15441
2198.33614	0.15222
2194.47941	0.15212
2190.62268	0.15248
2186.76595	0.15195
2182.90922	0.15234
2179.05249	0.15344
2175.19576	0.15351
2171.33903	0.15343
2167.48230	0.15391
2163.62557	0.15367
2159.76884	0.15296
2155.91211	0.15265
2152.05538	0.15278
2148.19865	0.15387
2144.34192	0.15472
2140.48519	0.15365
2136.62846	0.15249
2132.77173	0.15352
2128.91500	0.15536
2125.05827	0.15594
2121.20154	0.15641
2117.34481	0.15817
2113.48808	0.15968
2109.63135	0.15950
2105.77462	0.15930
2101.91789	0.16002
2098.06116	0.16009
2094.20443	0.15921
2090.34770	0.15824
2086.49097	0.15784
2082.63424	0.15919
2078.77751	0.16179
2074.92078	0.16262
2071.06405	0.16089
2067.20732	0.15982
2063.35059	0.16061
2059.49386	0.16068
2055.63713	0.15921
2051.78040	0.15825
2047.92367	0.15908
2044.06694	0.15989
2040.21021	0.15962
2036.35348	0.16031
2032.49675	0.16118
2028.64002	0.16008
2024.78329	0.15861
2020.92656	0.15811
2017.06983	0.15815
2013.21310	0.15888
2009.35637	0.16000
2005.49964	0.16092
2001.64291	0.16157
1997.78618	0.16159
1993.92945	0.16025
1990.07272	0.15821
1986.21599	0.15750
1982.35926	0.15877
1978.50253	0.16078
1974.64580	0.16207
1970.78907	0.16166
1966.93234	0.15996
1963.07561	0.15923
1959.21888	0.15999
1955.36215	0.16008
1951.50542	0.15917
1947.64869	0.15907
1943.79196	0.16017
1939.93523	0.16117
1936.07850	0.16067
1932.22177	0.15899
1928.36504	0.15786
1924.50831	0.15712
1920.65158	0.15589
1916.79485	0.15589
1912.93812	0.15757
1909.08139	0.15868
1905.22466	0.15800
1901.36793	0.15652
1897.51120	0.15604
1893.65447	0.15692
1889.79774	0.15767
1885.94101	0.15782
1882.08428	0.15783
1878.22755	0.15673
1874.37082	0.15527
1870.51409	0.15595
1866.65736	0.15820
1862.80063	0.15823
1858.94390	0.15504
1855.08717	0.15083
1851.23044	0.14815
1847.37371	0.14880
1843.51698	0.15148
1839.66025	0.15185
1835.80352	0.14925
1831.94679	0.14603
1828.09006	0.14403
1824.23333	0.14372
1820.37660	0.14350
1816.51986	0.14220
1812.66313	0.14040
1808.80640	0.13807
1804.94967	0.13486
1801.09294	0.13186
1797.23621	0.12946
1793.37948	0.12660
1789.52275	0.12340
1785.66602	0.12126
1781.80929	0.12053
1777.95256	0.12022
1774.09583	0.11888
1770.23910	0.11581
1766.38237	0.11261
1762.52564	0.11032
1758.66891	0.10847
1754.81218	0.10663
1750.95545	0.10450
1747.09872	0.10436
1743.24199	0.10837
1739.38526	0.11399
1735.52853	0.11748
1731.67180	0.11963
1727.81507	0.12153
1723.95834	0.12075
1720.10161	0.11721
1716.24488	0.11383
1712.38815	0.11148
1708.53142	0.10837
1704.67469	0.10396
1700.81796	0.09955
1696.96123	0.09770
1693.10450	0.09737
1689.24777	0.09706
1685.39104	0.09897
1681.53431	0.10265
1677.67758	0.10360
1673.82085	0.10295
1669.96412	0.10410
1666.10739	0.10814
1662.25066	0.11375
1658.39393	0.11831
1654.53720	0.12039
1650.68047	0.12178
1646.82374	0.12527
1642.96701	0.12832
1639.11028	0.12812
1635.25355	0.12692
1631.39682	0.12784
1627.54009	0.12868
1623.68336	0.12715
1619.82663	0.12517
1615.96990	0.12454
1612.11317	0.12432
1608.25644	0.12380
1604.39971	0.12214
1600.54298	0.11954
1596.68625	0.11841
1592.82952	0.11766
1588.97279	0.11463
1585.11606	0.11161
1581.25933	0.11072
1577.40260	0.10987
1573.54587	0.10791
1569.68914	0.10755
1565.83241	0.10882
1561.97568	0.11039
1558.11895	0.11274
1554.26222	0.11296
1550.40549	0.11167
1546.54876	0.11271
1542.69203	0.11639
1538.83530	0.12102
1534.97857	0.12509
1531.12184	0.12759
1527.26511	0.12818
1523.40838	0.12866
1519.55165	0.12897
1515.69492	0.12716
1511.83819	0.12668
1507.98146	0.13040
1504.12473	0.13164
1500.26800	0.12616
1496.41127	0.12157
1492.55454	0.12184
1488.69781	0.12275
1484.84108	0.12336
1480.98435	0.12317
1477.12762	0.11947
1473.27089	0.11586
1469.41416	0.11697
1465.55743	0.11991
1461.70070	0.12208
1457.84397	0.12196
1453.98724	0.12042
1450.13051	0.11995
1446.27378	0.11903
1442.41705	0.11690
1438.56032	0.11523
1434.70359	0.11478
1430.84686	0.11587
1426.99013	0.11743
1423.13340	0.11765
1419.27667	0.11757
1415.41994	0.11862
1411.56321	0.11807
1407.70648	0.11444
1403.84975	0.11162
1399.99302	0.11167
1396.13629	0.11116
1392.27956	0.11012
1388.42283	0.11159
1384.56610	0.11360
1380.70937	0.11312
1376.85264	0.11306
1372.99591	0.11530
1369.13918	0.11607
1365.28245	0.11419
1361.42572	0.11274
1357.56899	0.11229
1353.71226	0.11170
1349.85553	0.11220
1345.99880	0.11366
1342.14207	0.11389
1338.28534	0.11246
1334.42861	0.11078
1330.57188	0.10993
1326.71515	0.10933
1322.85842	0.10843
1319.00169	0.10796
1315.14496	0.10800
1311.28823	0.10826
1307.43150	0.10774
1303.57477	0.10514
1299.71804	0.10281
1295.86130	0.10342
1292.00457	0.10341
1288.14784	0.09991
1284.29111	0.09761
1280.43438	0.09983
1276.57765	0.10408
1272.72092	0.10885
1268.86419	0.11414
1265.00746	0.11667
1261.15073	0.11520
1257.29400	0.11234
1253.43727	0.10760
1249.58054	0.09921
1245.72381	0.09092
1241.86708	0.08751
1238.01035	0.09058
1234.15362	0.09697
1230.29689	0.09973
1226.44016	0.09867
1222.58343	0.10009
1218.72670	0.10504
1214.86997	0.10673
1211.01324	0.10209
1207.15651	0.09728
1203.29978	0.09688
1199.44305	0.09996
1195.58632	0.10346
1191.72959	0.10135
1187.87286	0.09621
1184.01613	0.09605
1180.15940	0.09932
1176.30267	0.10318
1172.44594	0.10768
1168.58921	0.11330
1164.73248	0.12062
1160.87575	0.12471
1157.01902	0.12359
1153.16229	0.12189
1149.30556	0.11892
1145.44883	0.11495
1141.59210	0.11698
1137.73537	0.11830
1133.87864	0.10831
1130.02191	0.09746
1126.16518	0.09364
1122.30845	0.09271
1118.45172	0.09697
1114.59499	0.10488
1110.73826	0.10841
1106.88153	0.10711
1103.02480	0.10474
1099.16807	0.10402
1095.31134	0.10423
1091.45461	0.10301
1087.59788	0.10453
1083.74115	0.11055
1079.88442	0.11578
1076.02769	0.11467
1072.17096	0.11128
1068.31423	0.11062
1064.45750	0.11379
1060.60077	0.12090
1056.74404	0.12438
1052.88731	0.11701
1049.03058	0.10888
1045.17385	0.10789
1041.31712	0.10857
1037.46039	0.11091
1033.60366	0.11590
1029.74693	0.11570
1025.89020	0.11361
1022.03347	0.11548
1018.17674	0.11785
1014.32001	0.12133
1010.46328	0.12331
1006.60655	0.12211
1002.74982	0.12279
998.89309	0.12246
995.03636	0.11728
991.17963	0.10995
987.32290	0.10315
983.46617	0.10151
979.60944	0.10769
975.75271	0.11419
971.89598	0.11344
968.03925	0.11044
964.18252	0.11293
960.32579	0.11657
956.46906	0.11472
952.61233	0.10924
948.75560	0.10503
944.89887	0.10442
941.04214	0.10557
937.18541	0.10703
933.32868	0.11094
929.47195	0.11694
925.61522	0.11846
921.75849	0.11340
917.90176	0.10799
914.04503	0.10817
910.18830	0.11327
906.33157	0.11537
902.47484	0.10923
898.61811	0.09867
894.76138	0.09065
890.90465	0.09427
887.04792	0.10539
883.19119	0.10991
879.33446	0.10691
875.47773	0.10264
871.62100	0.09816
867.76427	0.09645
863.90754	0.09846
860.05081	0.10060
856.19408	0.09980
852.33735	0.09567
848.48062	0.09059
844.62389	0.08766
840.76716	0.08907
836.91043	0.09577
833.05370	0.10492
829.19697	0.11014
825.34024	0.11054
821.48351	0.10938
817.62678	0.10536
813.77005	0.10520
809.91332	0.11182
806.05659	0.10862
802.19986	0.09188
798.34313	0.08160
794.48640	0.08467
790.62967	0.08822
786.77294	0.08697
782.91621	0.08617
779.05947	0.09132
775.20274	0.09723
771.34601	0.09558
767.48928	0.09346
763.63255	0.09517
759.77582	0.09612
755.91909	0.09723
752.06236	0.09872
748.20563	0.09927
744.34890	0.10020
740.49217	0.09817
736.63544	0.09252
732.77871	0.09369
728.92198	0.10405
725.06525	0.11013
721.20852	0.10229
717.35179	0.08962
713.49506	0.08475
709.63833	0.08849
705.78160	0.09527
701.92487	0.10245
698.06814	0.11168
694.21141	0.11579
690.35468	0.10922
686.49795	0.10298
682.64122	0.10171
678.78449	0.10222
674.92776	0.10746
671.07103	0.11577
667.21430	0.11858
663.35757	0.11494
659.50084	0.10941
655.64411	0.10612
651.78738	0.10986
647.93065	0.10927
644.07392	0.09702
640.21719	0.09177
636.36046	0.10198
632.50373	0.11180
628.64700	0.11188
624.79027	0.11206
620.93354	0.11179
617.07681	0.10425
613.22008	0.09666
609.36335	0.09990
605.50662	0.10676
601.64989	0.10750
597.79316	0.10727
