3995.57236	0.16299
3991.71563	0.16427
3987.85890	0.16525
3984.00217	0.16533
3980.14544	0.16382
3976.28871	0.16137
3972.43198	0.15974
3968.57525	0.16025
3964.71852	0.16480
3960.86179	0.17126
3957.00506	0.17275
3953.14833	0.16882
3949.29160	0.16434
3945.43487	0.16148
3941.57814	0.16170
3937.72141	0.16543
3933.86468	0.16912
3930.00795	0.17000
3926.15122	0.16944
3922.29449	0.16980
3918.43776	0.17142
3914.58103	0.17238
3910.72430	0.17194
3906.86757	0.17162
3903.01084	0.17222
3899.15411	0.17337
3895.29737	0.17394
3891.44064	0.17337
3887.58391	0.17483
3883.72718	0.17836
3879.87045	0.17980
3876.01372	0.17936
3872.15699	0.17908
3868.30026	0.17935
3864.44353	0.17948
3860.58680	0.17993
3856.73007	0.18148
3852.87334	0.18132
3849.01661	0.17794
3845.15988	0.17372
3841.30315	0.17124
3837.44642	0.17367
3833.58969	0.17871
3829.73296	0.18293
3825.87623	0.18489
3822.01950	0.18513
3818.16277	0.18607
3814.30604	0.18711
3810.44931	0.18719
3806.59258	0.18587
3802.73585	0.18322
3798.87912	0.18183
3795.02239	0.18266
3791.16566	0.18502
3787.30893	0.18711
3783.45220	0.18695
3779.59547	0.18610
3775.73874	0.18595
3771.88201	0.18419
3768.02528	0.18018
3764.16855	0.17761
3760.31182	0.17714
3756.45509	0.17515
3752.59836	0.17215
3748.74163	0.17253
3744.88490	0.17397
3741.02817	0.17342
3737.17144	0.17459
3733.31471	0.17528
3729.45798	0.17282
3725.60125	0.17078
3721.74452	0.16859
3717.88779	0.16591
3714.03106	0.16631
3710.17433	0.16710
3706.31760	0.16324
3702.46087	0.15925
3698.60414	0.15780
3694.74741	0.15641
3690.89068	0.15397
3687.03395	0.15010
3683.17722	0.14596
3679.32049	0.14275
3675.46376	0.13938
3671.60703	0.13559
3667.75030	0.13235
3663.89357	0.12939
3660.03684	0.12705
3656.18011	0.12840
3652.32338	0.13339
3648.46665	0.13477
3644.60992	0.13163
3640.75319	0.13105
3636.89646	0.13162
3633.03973	0.12904
3629.18300	0.12522
3625.32627	0.12459
3621.46954	0.12538
3617.61281	0.12464
3613.75608	0.12211
3609.89935	0.11794
3606.04262	0.11510
3602.18589	0.11765
3598.32916	0.12248
3594.47243	0.12419
3590.61570	0.12259
3586.75897	0.12089
3582.90224	0.11953
3579.04551	0.11687
3575.18878	0.11483
3571.33205	0.11559
3567.47532	0.11756
3563.61859	0.11822
3559.76186	0.11711
3555.90513	0.11701
3552.04840	0.11898
3548.19167	0.12093
3544.33494	0.12114
3540.47821	0.12066
3536.62148	0.12250
3532.76475	0.12546
3528.90802	0.12400
3525.05129	0.11917
3521.19456	0.11812
3517.33783	0.12076
3513.48110	0.12215
3509.62437	0.12147
3505.76764	0.11856
3501.91091	0.11301
3498.05418	0.10983
3494.19745	0.11101
3490.34072	0.11417
3486.48399	0.11676
3482.62726	0.11727
3478.77053	0.11653
3474.91380	0.11849
3471.05707	0.12452
3467.20034	0.12730
3463.34361	0.12328
3459.48688	0.12021
3455.63015	0.12158
3451.77342	0.12196
3447.91669	0.12008
3444.05996	0.11765
3440.20323	0.11484
3436.34650	0.11383
3432.48977	0.11492
3428.63304	0.11458
3424.77631	0.11337
3420.91958	0.11164
3417.06285	0.10831
3413.20612	0.10843
3409.34939	0.11295
3405.49266	0.11502
3401.63593	0.11425
3397.77920	0.11558
3393.92247	0.11728
3390.06574	0.11682
3386.20901	0.11583
3382.35228	0.11603
3378.49555	0.11792
3374.63881	0.12026
3370.78208	0.11924
3366.92535	0.11485
3363.06862	0.11287
3359.21189	0.11528
3355.35516	0.11662
3351.49843	0.11333
3347.64170	0.10986
3343.78497	0.11185
3339.92824	0.11539
3336.07151	0.11475
3332.21478	0.11385
3328.35805	0.11541
3324.50132	0.11609
3320.64459	0.11494
3316.78786	0.11251
3312.93113	0.11041
3309.07440	0.11189
3305.21767	0.11315
3301.36094	0.10889
3297.50421	0.10416
3293.64748	0.10363
3289.79075	0.10593
3285.93402	0.11006
3282.07729	0.11400
3278.22056	0.11729
3274.36383	0.12057
3270.50710	0.12139
3266.65037	0.11968
3262.79364	0.11819
3258.93691	0.11735
3255.08018	0.11712
3251.22345	0.11714
3247.36672	0.11581
3243.50999	0.11331
3239.65326	0.11130
3235.79653	0.11104
3231.93980	0.11344
3228.08307	0.11763
3224.22634	0.12016
3220.36961	0.11867
3216.51288	0.11424
3212.65615	0.11183
3208.79942	0.11529
3204.94269	0.12102
3201.08596	0.12231
3197.22923	0.11959
3193.37250	0.11766
3189.51577	0.11718
3185.65904	0.11778
3181.80231	0.11849
3177.94558	0.11943
3174.08885	0.12196
3170.23212	0.12399
3166.37539	0.12362
3162.51866	0.12280
3158.66193	0.12255
3154.80520	0.12118
3150.94847	0.11806
3147.09174	0.11527
3143.23501	0.11463
3139.37828	0.11706
3135.52155	0.11932
3131.66482	0.11851
3127.80809	0.11715
3123.95136	0.11641
3120.09463	0.11615
3116.23790	0.11907
3112.38117	0.12407
3108.52444	0.12728
3104.66771	0.12933
3100.81098	0.13055
3096.95425	0.12908
3093.09752	0.12565
3089.24079	0.12354
3085.38406	0.12398
3081.52733	0.12391
3077.67060	0.12108
3073.81387	0.11910
3069.95714	0.12115
3066.10041	0.12421
3062.24368	0.12552
3058.38695	0.12510
3054.53022	0.12343
3050.67349	0.12419
3046.81676	0.12752
3042.96003	0.12807
3039.10330	0.12647
3035.24657	0.12688
3031.38984	0.12823
3027.53311	0.12663
3023.67638	0.12338
3019.81965	0.12249
3015.96292	0.12183
3012.10619	0.12058
3008.24946	0.12244
3004.39273	0.12503
3000.53600	0.12323
2996.67927	0.12065
2992.82254	0.12312
2988.96581	0.12749
2985.10908	0.12817
2981.25235	0.12517
2977.39562	0.12279
2973.53889	0.12512
2969.68216	0.12998
2965.82543	0.12952
2961.96870	0.12284
2958.11197	0.11886
2954.25524	0.12000
2950.39851	0.12192
2946.54178	0.12532
2942.68505	0.12957
2938.82832	0.12975
2934.97159	0.12658
2931.11486	0.12539
2927.25813	0.12793
2923.40140	0.12873
2919.54467	0.12651
2915.68794	0.12941
2911.83121	0.13551
2907.97448	0.13385
2904.11775	0.12648
2900.26102	0.12355
2896.40429	0.12560
2892.54756	0.12766
2888.69083	0.12803
2884.83410	0.12764
2880.97737	0.12861
2877.12064	0.13112
2873.26391	0.13192
2869.40718	0.12933
2865.55045	0.12738
2861.69372	0.12807
2857.83698	0.12913
2853.98025	0.13117
2850.12352	0.13277
2846.26679	0.12918
2842.41006	0.12408
2838.55333	0.12290
2834.69660	0.12421
2830.83987	0.12623
2826.98314	0.12877
2823.12641	0.13006
2819.26968	0.12964
2815.41295	0.12998
2811.55622	0.13174
2807.69949	0.13312
2803.84276	0.13412
2799.98603	0.13577
2796.12930	0.13549
2792.27257	0.13071
2788.41584	0.12606
2784.55911	0.12597
2780.70238	0.12776
2776.84565	0.12809
2772.98892	0.12799
2769.13219	0.12808
2765.27546	0.12752
2761.41873	0.12793
2757.56200	0.12993
2753.70527	0.13033
2749.84854	0.12830
2745.99181	0.12698
2742.13508	0.12793
2738.27835	0.12973
2734.42162	0.13117
2730.56489	0.13229
2726.70816	0.13287
2722.85143	0.13137
2718.99470	0.12821
2715.13797	0.12650
2711.28124	0.12695
2707.42451	0.12772
2703.56778	0.12868
2699.71105	0.13002
2695.85432	0.13025
2691.99759	0.12985
2688.14086	0.12991
2684.28413	0.12873
2680.42740	0.12732
2676.57067	0.12907
2672.71394	0.13226
2668.85721	0.13311
2665.00048	0.13184
2661.14375	0.13013
2657.28702	0.12819
2653.43029	0.12741
2649.57356	0.13035
2645.71683	0.13457
2641.86010	0.13550
2638.00337	0.13378
2634.14664	0.13197
2630.28991	0.13120
2626.43318	0.13123
2622.57645	0.13019
2618.71972	0.12853
2614.86299	0.12775
2611.00626	0.12681
2607.14953	0.12604
2603.29280	0.12723
2599.43607	0.13010
2595.57934	0.13235
2591.72261	0.13165
2587.86588	0.12984
2584.00915	0.13045
2580.15242	0.13263
2576.29569	0.13327
2572.43896	0.13169
2568.58223	0.12940
2564.72550	0.12787
2560.86877	0.12785
2557.01204	0.12932
2553.15531	0.13068
2549.29858	0.13053
2545.44185	0.12989
2541.58512	0.13037
2537.72839	0.13201
2533.87166	0.13232
2530.01493	0.12994
2526.15820	0.12735
2522.30147	0.12679
2518.44474	0.12846
2514.58801	0.13083
2510.73128	0.13185
2506.87455	0.13189
2503.01782	0.13179
2499.16109	0.13220
2495.30436	0.13312
2491.44763	0.13292
2487.59090	0.13159
2483.73417	0.13050
2479.87744	0.12947
2476.02071	0.12854
2472.16398	0.12843
2468.30725	0.12965
2464.45052	0.13234
2460.59379	0.13466
2456.73706	0.13464
2452.88033	0.13310
2449.02360	0.13207
2445.16687	0.13204
2441.31014	0.13179
2437.45341	0.13143
2433.59668	0.13257
2429.73995	0.13433
2425.88322	0.13475
2422.02649	0.13454
2418.16976	0.13473
2414.31303	0.13500
2410.45630	0.13434
2406.59957	0.13191
2402.74284	0.12985
2398.88611	0.13103
2395.02938	0.13365
2391.17265	0.13492
2387.31592	0.13537
2383.45919	0.13596
2379.60246	0.13591
2375.74573	0.13493
2371.88900	0.13379
2368.03227	0.13102
2364.17554	0.12604
2360.31881	0.12348
2356.46208	0.12440
2352.60535	0.12756
2348.74862	0.13023
2344.89189	0.13035
2341.03516	0.12939
2337.17842	0.12946
2333.32169	0.13018
2329.46496	0.13198
2325.60823	0.13348
2321.75150	0.13214
2317.89477	0.13072
2314.03804	0.13204
2310.18131	0.13363
2306.32458	0.13385
2302.46785	0.13450
2298.61112	0.13591
2294.75439	0.13609
2290.89766	0.13472
2287.04093	0.13333
2283.18420	0.13281
2279.32747	0.13362
2275.47074	0.13516
2271.61401	0.13544
2267.75728	0.13530
2263.90055	0.13700
2260.04382	0.13912
2256.18709	0.13933
2252.33036	0.13837
2248.47363	0.13869
2244.61690	0.14030
2240.76017	0.14055
2236.90344	0.13921
2233.04671	0.13816
2229.18998	0.13770
2225.33325	0.13717
2221.47652	0.13617
2217.61979	0.13497
2213.76306	0.13374
2209.90633	0.13235
2206.04960	0.13215
2202.19287	0.13356
2198.33614	0.13431
2194.47941	0.13292
2190.62268	0.13069
2186.76595	0.13000
2182.90922	0.13171
2179.05249	0.13362
2175.19576	0.13344
2171.33903	0.13209
2167.48230	0.13134
2163.62557	0.13137
2159.76884	0.13165
2155.91211	0.13113
2152.05538	0.12975
2148.19865	0.12911
2144.34192	0.12985
2140.48519	0.13116
2136.62846	0.13199
2132.77173	0.13173
2128.91500	0.13127
2125.05827	0.13105
2121.20154	0.12987
2117.34481	0.12853
2113.48808	0.12942
2109.63135	0.13103
2105.77462	0.13089
2101.91789	0.13090
2098.06116	0.13283
2094.20443	0.13469
2090.34770	0.13467
2086.49097	0.13383
2082.63424	0.13425
2078.77751	0.13560
2074.92078	0.13557
2071.06405	0.13377
2067.20732	0.13168
2063.35059	0.13081
2059.49386	0.13192
2055.63713	0.13337
2051.78040	0.13332
2047.92367	0.13229
2044.06694	0.13179
2040.21021	0.13254
2036.35348	0.13404
2032.49675	0.13458
2028.64002	0.13353
2024.78329	0.13253
2020.92656	0.13256
2017.06983	0.13264
2013.21310	0.13215
2009.35637	0.13181
2005.49964	0.13181
2001.64291	0.13180
1997.78618	0.13235
1993.92945	0.13328
1990.07272	0.13283
1986.21599	0.13080
1982.35926	0.12931
1978.50253	0.12998
1974.64580	0.13159
1970.78907	0.13208
1966.93234	0.13157
1963.07561	0.13112
1959.21888	0.13120
1955.36215	0.13120
1951.50542	0.13049
1947.64869	0.13035
1943.79196	0.13151
1939.93523	0.13239
1936.07850	0.13176
1932.22177	0.13082
1928.36504	0.13094
1924.50831	0.13169
1920.65158	0.13219
1916.79485	0.13174
1912.93812	0.13083
1909.08139	0.13076
1905.22466	0.13169
1901.36793	0.13319
1897.51120	0.13403
1893.65447	0.13371
1889.79774	0.13347
1885.94101	0.13335
1882.08428	0.13282
1878.22755	0.13269
1874.37082	0.13264
1870.51409	0.13136
1866.65736	0.12961
1862.80063	0.12890
1858.94390	0.12877
1855.08717	0.12894
1851.23044	0.12984
1847.37371	0.13085
1843.51698	0.12988
1839.66025	0.12657
1835.80352	0.12402
1831.94679	0.12366
1828.09006	0.12363
1824.23333	0.12258
1820.37660	0.12130
1816.51986	0.12067
1812.66313	0.12086
1808.80640	0.12107
1804.94967	0.12072
1801.09294	0.11988
1797.23621	0.11884
1793.37948	0.11827
1789.52275	0.11743
1785.66602	0.11579
1781.80929	0.11422
1777.95256	0.11256
1774.09583	0.11093
1770.23910	0.11046
1766.38237	0.11031
1762.52564	0.10947
1758.66891	0.10884
1754.81218	0.10981
1750.95545	0.11133
1747.09872	0.11283
1743.24199	0.11534
1739.38526	0.11695
1735.52853	0.11683
1731.67180	0.11750
1727.81507	0.11834
1723.95834	0.11735
1720.10161	0.11488
1716.24488	0.11209
1712.38815	0.10926
1708.53142	0.10715
1704.67469	0.10802
1700.81796	0.11058
1696.96123	0.10978
1693.10450	0.10732
1689.24777	0.10615
1685.39104	0.10540
1681.53431	0.10676
1677.67758	0.11008
1673.82085	0.11250
1669.96412	0.11329
1666.10739	0.11258
1662.25066	0.11085
1658.39393	0.10919
1654.53720	0.10842
1650.68047	0.11065
1646.82374	0.11698
1642.96701	0.12390
1639.11028	0.12731
1635.25355	0.12645
1631.39682	0.12565
1627.54009	0.12654
1623.68336	0.12729
1619.82663	0.12762
1615.96990	0.12767
1612.11317	0.12695
1608.25644	0.12603
1604.39971	0.12595
1600.54298	0.12617
1596.68625	0.12546
1592.82952	0.12331
1588.97279	0.12025
1585.11606	0.11867
1581.25933	0.11971
1577.40260	0.12152
1573.54587	0.12292
1569.68914	0.12443
1565.83241	0.12539
1561.97568	0.12565
1558.11895	0.12786
1554.26222	0.13145
1550.40549	0.13308
1546.54876	0.13310
1542.69203	0.13128
1538.83530	0.12992
1534.97857	0.13185
1531.12184	0.13293
1527.26511	0.13141
1523.40838	0.12975
1519.55165	0.12979
1515.69492	0.12974
1511.83819	0.12957
1507.98146	0.13224
1504.12473	0.13610
1500.26800	0.13694
1496.41127	0.13680
1492.55454	0.13636
1488.69781	0.13426
1484.84108	0.13165
1480.98435	0.12989
1477.12762	0.12877
1473.27089	0.12767
1469.41416	0.12682
1465.55743	0.12809
1461.70070	0.13025
1457.84397	0.12920
1453.98724	0.12589
1450.13051	0.12634
1446.27378	0.13082
1442.41705	0.13457
1438.56032	0.13522
1434.70359	0.13504
1430.84686	0.13456
1426.99013	0.13335
1423.13340	0.13156
1419.27667	0.12920
1415.41994	0.12847
1411.56321	0.12948
1407.70648	0.12946
1403.84975	0.13057
1399.99302	0.13393
1396.13629	0.13405
1392.27956	0.13146
1388.42283	0.13115
1384.56610	0.13152
1380.70937	0.13116
1376.85264	0.13146
1372.99591	0.13101
1369.13918	0.12933
1365.28245	0.12870
1361.42572	0.12770
1357.56899	0.12609
1353.71226	0.12708
1349.85553	0.12881
1345.99880	0.12678
1342.14207	0.12362
1338.28534	0.12395
1334.42861	0.12568
1330.57188	0.12630
1326.71515	0.12630
1322.85842	0.12658
1319.00169	0.12850
1315.14496	0.12991
1311.28823	0.12780
1307.43150	0.12472
1303.57477	0.12379
1299.71804	0.12394
1295.86130	0.12333
1292.00457	0.12204
1288.14784	0.12065
1284.29111	0.11933
1280.43438	0.11960
1276.57765	0.12261
1272.72092	0.12638
1268.86419	0.12791
1265.00746	0.12600
1261.15073	0.12215
1257.29400	0.12053
1253.43727	0.12097
1249.58054	0.11828
1245.72381	0.11238
1241.86708	0.10927
1238.01035	0.11230
1234.15362	0.11516
1230.29689	0.11120
1226.44016	0.10748
1222.58343	0.11041
1218.72670	0.11303
1214.86997	0.11185
1211.01324	0.11340
1207.15651	0.11778
1203.29978	0.12061
1199.44305	0.11961
1195.58632	0.11822
1191.72959	0.12177
1187.87286	0.12759
1184.01613	0.12872
1180.15940	0.12519
1176.30267	0.12273
1172.44594	0.12051
1168.58921	0.11555
1164.73248	0.11388
1160.87575	0.11706
1157.01902	0.11930
1153.16229	0.12137
1149.30556	0.12289
1145.44883	0.11983
1141.59210	0.11496
1137.73537	0.11534
1133.87864	0.12162
1130.02191	0.12686
1126.16518	0.12804
1122.30845	0.12851
1118.45172	0.12890
1114.59499	0.12457
1110.73826	0.11577
1106.88153	0.11129
1103.02480	0.11444
1099.16807	0.12007
1095.31134	0.12265
1091.45461	0.11859
1087.59788	0.10876
1083.74115	0.10434
1079.88442	0.10958
1076.02769	0.11670
1072.17096	0.11753
1068.31423	0.11137
1064.45750	0.10974
1060.60077	0.11842
1056.74404	0.12599
1052.88731	0.12679
1049.03058	0.12570
1045.17385	0.12522
1041.31712	0.12511
1037.46039	0.12459
1033.60366	0.12184
1029.74693	0.11880
1025.89020	0.12173
1022.03347	0.12852
1018.17674	0.13078
1014.32001	0.12708
1010.46328	0.12190
1006.60655	0.11971
1002.74982	0.12126
998.89309	0.12279
995.03636	0.12150
991.17963	0.12047
987.32290	0.12279
983.46617	0.12351
979.60944	0.11838
975.75271	0.11195
971.89598	0.10933
968.03925	0.11016
964.18252	0.11231
960.32579	0.11273
956.46906	0.11105
952.61233	0.11116
948.75560	0.11202
944.89887	0.10890
941.04214	0.10685
937.18541	0.11032
933.32868	0.11073
929.47195	0.10712
925.61522	0.10583
921.75849	0.10625
917.90176	0.10609
914.04503	0.10621
910.18830	0.10741
906.33157	0.10836
902.47484	0.10832
898.61811	0.10915
894.76138	0.11559
890.90465	0.12254
887.04792	0.12147
883.19119	0.11734
879.33446	0.11677
875.47773	0.11691
871.62100	0.11245
867.76427	0.10610
863.90754	0.10664
860.05081	0.11443
856.19408	0.12073
852.33735	0.12105
848.48062	0.11891
844.62389	0.11750
840.76716	0.11452
836.91043	0.10769
833.05370	0.10241
829.19697	0.10416
825.34024	0.10980
821.48351	0.11182
817.62678	0.10833
813.77005	0.10410
809.91332	0.10601
806.05659	0.10905
802.19986	0.10778
798.34313	0.10663
794.48640	0.10961
790.62967	0.11450
786.77294	0.11329
782.91621	0.10553
779.05947	0.10463
775.20274	0.11670
771.34601	0.12758
767.48928	0.12805
763.63255	0.12713
759.77582	0.12804
755.91909	0.12300
752.06236	0.11301
748.20563	0.10811
744.34890	0.10939
740.49217	0.11174
736.63544	0.11606
732.77871	0.12186
728.92198	0.12366
725.06525	0.11903
721.20852	0.11167
717.35179	0.10747
713.49506	0.10617
709.63833	0.10793
705.78160	0.11526
701.92487	0.12038
698.06814	0.11792
694.21141	0.11690
690.35468	0.12035
686.49795	0.12146
682.64122	0.12009
678.78449	0.12340
674.92776	0.12998
671.07103	0.13337
667.21430	0.13319
663.35757	0.13240
659.50084	0.13381
655.64411	0.13637
651.78738	0.13585
647.93065	0.13137
644.07392	0.12693
640.21719	0.12476
636.36046	0.12597
632.50373	0.12501
628.64700	0.11953
624.79027	0.11715
620.93354	0.11878
617.07681	0.12460
613.22008	0.13163
609.36335	0.13161
605.50662	0.13180
601.64989	0.13839
597.79316	0.14157
