3995.57236	0.16441
3991.71563	0.16426
3987.85890	0.16310
3984.00217	0.16232
3980.14544	0.16282
3976.28871	0.16321
3972.43198	0.16294
3968.57525	0.16360
3964.71852	0.16370
3960.86179	0.16273
3957.00506	0.16250
3953.14833	0.16277
3949.29160	0.16282
3945.43487	0.16225
3941.57814	0.16151
3937.72141	0.16307
3933.86468	0.16705
3930.00795	0.17036
3926.15122	0.17180
3922.29449	0.17372
3918.43776	0.17532
3914.58103	0.17319
3910.72430	0.17063
3906.86757	0.17065
3903.01084	0.17054
3899.15411	0.17155
3895.29737	0.17593
3891.44064	0.17840
3887.58391	0.17725
3883.72718	0.17674
3879.87045	0.17790
3876.01372	0.17979
3872.15699	0.18242
3868.30026	0.18293
3864.44353	0.18141
3860.58680	0.18117
3856.73007	0.18078
3852.87334	0.18035
3849.01661	0.18025
3845.15988	0.17705
3841.30315	0.17597
3837.44642	0.18368
3833.58969	0.18964
3829.73296	0.18733
3825.87623	0.18440
3822.01950	0.18448
3818.16277	0.18713
3814.30604	0.19080
3810.44931	0.19125
3806.59258	0.18646
3802.73585	0.18078
3798.87912	0.18093
3795.02239	0.18365
3791.16566	0.18407
3787.30893	0.18345
3783.45220	0.18319
3779.59547	0.18291
3775.73874	0.18174
3771.88201	0.17949
3768.02528	0.17899
3764.16855	0.18152
3760.31182	0.18302
3756.45509	0.18143
3752.59836	0.17594
3748.74163	0.16866
3744.88490	0.16702
3741.02817	0.16952
3737.17144	0.16986
3733.31471	0.16828
3729.45798	0.16782
3725.60125	0.16715
3721.74452	0.16472
3717.88779	0.16289
3714.03106	0.16286
3710.17433	0.15945
3706.31760	0.15027
3702.46087	0.14093
3698.60414	0.13724
3694.74741	0.13959
3690.89068	0.13938
3687.03395	0.12888
3683.17722	0.11501
3679.32049	0.10223
3675.46376	0.09139
3671.60703	0.08946
3667.75030	0.09103
3663.89357	0.08687
3660.03684	0.08015
3656.18011	0.07536
3652.32338	0.07416
3648.46665	0.07505
3644.60992	0.07398
3640.75319	0.07150
3636.89646	0.06950
3633.03973	0.06765
3629.18300	0.06439
3625.32627	0.06197
3621.46954	0.06314
3617.61281	0.06661
3613.75608	0.06920
3609.89935	0.07100
3606.04262	0.07327
3602.18589	0.07507
3598.32916	0.07202
3594.47243	0.06760
3590.61570	0.06649
3586.75897	0.06405
3582.90224	0.05868
3579.04551	0.05527
3575.18878	0.05337
3571.33205	0.05145
3567.47532	0.05354
3563.61859	0.05788
3559.76186	0.06300
3555.90513	0.06875
3552.04840	0.07155
3548.19167	0.06781
3544.33494	0.06155
3540.47821	0.06104
3536.62148	0.06528
3532.76475	0.06604
3528.90802	0.06226
3525.05129	0.05991
3521.19456	0.06173
3517.33783	0.06505
3513.48110	0.06596
3509.62437	0.06388
3505.76764	0.06124
3501.91091	0.05945
3498.05418	0.05673
3494.19745	0.05449
3490.34072	0.05921
3486.48399	0.06869
3482.62726	0.07217
3478.77053	0.06702
3474.91380	0.06022
3471.05707	0.05755
3467.20034	0.05983
3463.34361	0.06260
3459.48688	0.06200
3455.63015	0.05909
3451.77342	0.05621
3447.91669	0.05547
3444.05996	0.05636
3440.20323	0.05610
3436.34650	0.05712
3432.48977	0.06228
3428.63304	0.06541
3424.77631	0.06294
3420.91958	0.06099
3417.06285	0.06170
3413.20612	0.06196
3409.34939	0.06453
3405.49266	0.06576
3401.63593	0.06234
3397.77920	0.05891
3393.92247	0.05762
3390.06574	0.06061
3386.20901	0.06542
3382.35228	0.06724
3378.49555	0.06588
3374.63881	0.06219
3370.78208	0.06045
3366.92535	0.06573
3363.06862	0.07158
3359.21189	0.06909
3355.35516	0.06304
3351.49843	0.06160
3347.64170	0.06056
3343.78497	0.05545
3339.92824	0.05398
3336.07151	0.05981
3332.21478	0.06506
3328.35805	0.06765
3324.50132	0.07132
3320.64459	0.07305
3316.78786	0.06801
3312.93113	0.06093
3309.07440	0.05780
3305.21767	0.05918
3301.36094	0.06356
3297.50421	0.06896
3293.64748	0.07136
3289.79075	0.06997
3285.93402	0.06723
3282.07729	0.06523
3278.22056	0.06601
3274.36383	0.06917
3270.50710	0.07084
3266.65037	0.06832
3262.79364	0.06456
3258.93691	0.06122
3255.08018	0.05819
3251.22345	0.05885
3247.36672	0.06071
3243.50999	0.06084
3239.65326	0.06211
3235.79653	0.06323
3231.93980	0.06226
3228.08307	0.06233
3224.22634	0.06601
3220.36961	0.07075
3216.51288	0.07201
3212.65615	0.06922
3208.79942	0.06600
3204.94269	0.06617
3201.08596	0.06870
3197.22923	0.07128
3193.37250	0.07365
3189.51577	0.07444
3185.65904	0.07429
3181.80231	0.07566
3177.94558	0.07686
3174.08885	0.07406
3170.23212	0.06966
3166.37539	0.06808
3162.51866	0.06928
3158.66193	0.06998
3154.80520	0.06938
3150.94847	0.06932
3147.09174	0.06996
3143.23501	0.06978
3139.37828	0.06812
3135.52155	0.06753
3131.66482	0.06948
3127.80809	0.07182
3123.95136	0.07138
3120.09463	0.06882
3116.23790	0.06771
3112.38117	0.06808
3108.52444	0.06885
3104.66771	0.07077
3100.81098	0.07362
3096.95425	0.07508
3093.09752	0.07375
3089.24079	0.07023
3085.38406	0.06865
3081.52733	0.07086
3077.67060	0.07235
3073.81387	0.07087
3069.95714	0.06894
3066.10041	0.06880
3062.24368	0.07021
3058.38695	0.07221
3054.53022	0.07439
3050.67349	0.07561
3046.81676	0.07597
3042.96003	0.07742
3039.10330	0.07712
3035.24657	0.07312
3031.38984	0.07013
3027.53311	0.07147
3023.67638	0.07486
3019.81965	0.07637
3015.96292	0.07484
3012.10619	0.07408
3008.24946	0.07423
3004.39273	0.07324
3000.53600	0.07335
2996.67927	0.07537
2992.82254	0.07666
2988.96581	0.07578
2985.10908	0.07407
2981.25235	0.07329
2977.39562	0.07284
2973.53889	0.07296
2969.68216	0.07454
2965.82543	0.07670
2961.96870	0.07800
2958.11197	0.07842
2954.25524	0.07988
2950.39851	0.08126
2946.54178	0.07948
2942.68505	0.07519
2938.82832	0.07133
2934.97159	0.07039
2931.11486	0.07226
2927.25813	0.07562
2923.40140	0.07788
2919.54467	0.07853
2915.68794	0.07896
2911.83121	0.07857
2907.97448	0.07839
2904.11775	0.07894
2900.26102	0.07765
2896.40429	0.07472
2892.54756	0.07520
2888.69083	0.07983
2884.83410	0.08210
2880.97737	0.07928
2877.12064	0.07603
2873.26391	0.07644
2869.40718	0.07899
2865.55045	0.08036
2861.69372	0.07985
2857.83698	0.07811
2853.98025	0.07475
2850.12352	0.07105
2846.26679	0.07003
2842.41006	0.07144
2838.55333	0.07433
2834.69660	0.07842
2830.83987	0.08050
2826.98314	0.07899
2823.12641	0.07663
2819.26968	0.07590
2815.41295	0.07656
2811.55622	0.07643
2807.69949	0.07459
2803.84276	0.07364
2799.98603	0.07481
2796.12930	0.07555
2792.27257	0.07549
2788.41584	0.07656
2784.55911	0.07776
2780.70238	0.07589
2776.84565	0.07234
2772.98892	0.07225
2769.13219	0.07507
2765.27546	0.07578
2761.41873	0.07498
2757.56200	0.07665
2753.70527	0.07943
2749.84854	0.07902
2745.99181	0.07637
2742.13508	0.07554
2738.27835	0.07657
2734.42162	0.07766
2730.56489	0.07858
2726.70816	0.07945
2722.85143	0.07978
2718.99470	0.07899
2715.13797	0.07811
2711.28124	0.07886
2707.42451	0.08032
2703.56778	0.08077
2699.71105	0.07961
2695.85432	0.07673
2691.99759	0.07469
2688.14086	0.07637
2684.28413	0.07989
2680.42740	0.08131
2676.57067	0.08135
2672.71394	0.08238
2668.85721	0.08364
2665.00048	0.08412
2661.14375	0.08340
2657.28702	0.08167
2653.43029	0.07990
2649.57356	0.07895
2645.71683	0.07949
2641.86010	0.08051
2638.00337	0.08044
2634.14664	0.07887
2630.28991	0.07731
2626.43318	0.07803
2622.57645	0.07982
2618.71972	0.08036
2614.86299	0.08091
2611.00626	0.08209
2607.14953	0.08274
2603.29280	0.08316
2599.43607	0.08426
2595.57934	0.08548
2591.72261	0.08527
2587.86588	0.08362
2584.00915	0.08211
2580.15242	0.08165
2576.29569	0.08255
2572.43896	0.08410
2568.58223	0.08427
2564.72550	0.08255
2560.86877	0.08084
2557.01204	0.08060
2553.15531	0.08110
2549.29858	0.08147
2545.44185	0.08253
2541.58512	0.08504
2537.72839	0.08775
2533.87166	0.08868
2530.01493	0.08794
2526.15820	0.08731
2522.30147	0.08786
2518.44474	0.08868
2514.58801	0.08904
2510.73128	0.08894
2506.87455	0.08755
2503.01782	0.08598
2499.16109	0.08605
2495.30436	0.08668
2491.44763	0.08663
2487.59090	0.08642
2483.73417	0.08693
2479.87744	0.08794
2476.02071	0.08891
2472.16398	0.08982
2468.30725	0.09082
2464.45052	0.09126
2460.59379	0.09065
2456.73706	0.09052
2452.88033	0.09110
2449.02360	0.09062
2445.16687	0.09010
2441.31014	0.09176
2437.45341	0.09405
2433.59668	0.09490
2429.73995	0.09510
2425.88322	0.09528
2422.02649	0.09535
2418.16976	0.09513
2414.31303	0.09403
2410.45630	0.09241
2406.59957	0.09105
2402.74284	0.09079
2398.88611	0.09211
2395.02938	0.09374
2391.17265	0.09448
2387.31592	0.09487
2383.45919	0.09575
2379.60246	0.09749
2375.74573	0.10178
2371.88900	0.10919
2368.03227	0.11395
2364.17554	0.11266
2360.31881	0.11066
2356.46208	0.10807
2352.60535	0.10463
2348.74862	0.10398
2344.89189	0.10626
2341.03516	0.10843
2337.17842	0.10708
2333.32169	0.10341
2329.46496	0.10166
2325.60823	0.10404
2321.75150	0.10668
2317.89477	0.10634
2314.03804	0.10441
2310.18131	0.10337
2306.32458	0.10332
2302.46785	0.10308
2298.61112	0.10167
2294.75439	0.10034
2290.89766	0.10071
2287.04093	0.10206
2283.18420	0.10318
2279.32747	0.10394
2275.47074	0.10446
2271.61401	0.10466
2267.75728	0.10404
2263.90055	0.10292
2260.04382	0.10260
2256.18709	0.10305
2252.33036	0.10330
2248.47363	0.10318
2244.61690	0.10232
2240.76017	0.10126
2236.90344	0.10219
2233.04671	0.10430
2229.18998	0.10479
2225.33325	0.10392
2221.47652	0.10301
2217.61979	0.10185
2213.76306	0.10105
2209.90633	0.10139
2206.04960	0.10185
2202.19287	0.10116
2198.33614	0.09919
2194.47941	0.09757
2190.62268	0.09825
2186.76595	0.09991
2182.90922	0.09975
2179.05249	0.09723
2175.19576	0.09483
2171.33903	0.09515
2167.48230	0.09677
2163.62557	0.09678
2159.76884	0.09598
2155.91211	0.09571
2152.05538	0.09499
2148.19865	0.09425
2144.34192	0.09481
2140.48519	0.09589
2136.62846	0.09651
2132.77173	0.09713
2128.91500	0.09796
2125.05827	0.09854
2121.20154	0.09849
2117.34481	0.09858
2113.48808	0.09995
2109.63135	0.10142
2105.77462	0.10121
2101.91789	0.10014
2098.06116	0.09981
2094.20443	0.09940
2090.34770	0.09817
2086.49097	0.09766
2082.63424	0.09876
2078.77751	0.09990
2074.92078	0.09961
2071.06405	0.09912
2067.20732	0.10000
2063.35059	0.10078
2059.49386	0.09954
2055.63713	0.09751
2051.78040	0.09734
2047.92367	0.09926
2044.06694	0.10093
2040.21021	0.10063
2036.35348	0.09916
2032.49675	0.09867
2028.64002	0.09964
2024.78329	0.10072
2020.92656	0.10090
2017.06983	0.10108
2013.21310	0.10240
2009.35637	0.10390
2005.49964	0.10415
2001.64291	0.10307
1997.78618	0.10160
1993.92945	0.10046
1990.07272	0.10005
1986.21599	0.10043
1982.35926	0.10090
1978.50253	0.10082
1974.64580	0.10013
1970.78907	0.09956
1966.93234	0.09974
1963.07561	0.10037
1959.21888	0.10136
1955.36215	0.10208
1951.50542	0.10191
1947.64869	0.10135
1943.79196	0.10102
1939.93523	0.10123
1936.07850	0.10159
1932.22177	0.10157
1928.36504	0.10125
1924.50831	0.10113
1920.65158	0.10161
1916.79485	0.10165
1912.93812	0.10106
1909.08139	0.10158
1905.22466	0.10326
1901.36793	0.10384
1897.51120	0.10227
1893.65447	0.10061
1889.79774	0.10074
1885.94101	0.10146
1882.08428	0.10131
1878.22755	0.10026
1874.37082	0.09906
1870.51409	0.09859
1866.65736	0.09839
1862.80063	0.09733
1858.94390	0.09632
1855.08717	0.09642
1851.23044	0.09714
1847.37371	0.09801
1843.51698	0.09860
1839.66025	0.09799
1835.80352	0.09632
1831.94679	0.09419
1828.09006	0.09228
1824.23333	0.09134
1820.37660	0.09053
1816.51986	0.08880
1812.66313	0.08687
1808.80640	0.08598
1804.94967	0.08578
1801.09294	0.08491
1797.23621	0.08234
1793.37948	0.07836
1789.52275	0.07545
1785.66602	0.07439
1781.80929	0.07296
1777.95256	0.07086
1774.09583	0.06988
1770.23910	0.07057
1766.38237	0.07091
1762.52564	0.06998
1758.66891	0.06874
1754.81218	0.06744
1750.95545	0.06562
1747.09872	0.06327
1743.24199	0.06034
1739.38526	0.05708
1735.52853	0.05480
1731.67180	0.05679
1727.81507	0.06253
1723.95834	0.06746
1720.10161	0.06739
1716.24488	0.06156
1712.38815	0.05649
1708.53142	0.05507
1704.67469	0.05570
1700.81796	0.05688
1696.96123	0.05548
1693.10450	0.05136
1689.24777	0.04870
1685.39104	0.04935
1681.53431	0.05027
1677.67758	0.04927
1673.82085	0.04964
1669.96412	0.05443
1666.10739	0.05837
1662.25066	0.05856
1658.39393	0.05731
1654.53720	0.05688
1650.68047	0.05874
1646.82374	0.06283
1642.96701	0.06670
1639.11028	0.06965
1635.25355	0.07092
1631.39682	0.07092
1627.54009	0.07367
1623.68336	0.07886
1619.82663	0.08075
1615.96990	0.07795
1612.11317	0.07435
1608.25644	0.07193
1604.39971	0.07100
1600.54298	0.07149
1596.68625	0.07242
1592.82952	0.07257
1588.97279	0.07105
1585.11606	0.06886
1581.25933	0.06840
1577.40260	0.07023
1573.54587	0.07161
1569.68914	0.07138
1565.83241	0.07081
1561.97568	0.06929
1558.11895	0.06646
1554.26222	0.06637
1550.40549	0.06863
1546.54876	0.06950
1542.69203	0.06875
1538.83530	0.07136
1534.97857	0.07624
1531.12184	0.07899
1527.26511	0.08164
1523.40838	0.08530
1519.55165	0.08608
1515.69492	0.08335
1511.83819	0.08257
1507.98146	0.08456
1504.12473	0.08426
1500.26800	0.08177
1496.41127	0.08105
1492.55454	0.08198
1488.69781	0.08104
1484.84108	0.07844
1480.98435	0.07783
1477.12762	0.07941
1473.27089	0.08067
1469.41416	0.08119
1465.55743	0.08177
1461.70070	0.08126
1457.84397	0.07864
1453.98724	0.07662
1450.13051	0.07717
1446.27378	0.07676
1442.41705	0.07521
1438.56032	0.07442
1434.70359	0.07495
1430.84686	0.07608
1426.99013	0.07607
1423.13340	0.07529
1419.27667	0.07557
1415.41994	0.07702
1411.56321	0.07766
1407.70648	0.07709
1403.84975	0.07725
1399.99302	0.07982
1396.13629	0.08270
1392.27956	0.08219
1388.42283	0.07961
1384.56610	0.07794
1380.70937	0.07712
1376.85264	0.07641
1372.99591	0.07675
1369.13918	0.07793
1365.28245	0.07898
1361.42572	0.07976
1357.56899	0.07910
1353.71226	0.07748
1349.85553	0.07751
1345.99880	0.07881
1342.14207	0.07736
1338.28534	0.07265
1334.42861	0.06948
1330.57188	0.06914
1326.71515	0.06862
1322.85842	0.06753
1319.00169	0.06801
1315.14496	0.07048
1311.28823	0.07276
1307.43150	0.07370
1303.57477	0.07414
1299.71804	0.07423
1295.86130	0.07304
1292.00457	0.07182
1288.14784	0.07176
1284.29111	0.07184
1280.43438	0.07135
1276.57765	0.07161
1272.72092	0.07152
1268.86419	0.06912
1265.00746	0.06696
1261.15073	0.06617
1257.29400	0.06711
1253.43727	0.07062
1249.58054	0.07061
1245.72381	0.06815
1241.86708	0.07319
1238.01035	0.07903
1234.15362	0.07359
1230.29689	0.06610
1226.44016	0.06612
1222.58343	0.06724
1218.72670	0.06609
1214.86997	0.06492
1211.01324	0.06079
1207.15651	0.05910
1203.29978	0.06814
1199.44305	0.07817
1195.58632	0.07871
1191.72959	0.07482
1187.87286	0.07253
1184.01613	0.07047
1180.15940	0.07130
1176.30267	0.07476
1172.44594	0.07450
1168.58921	0.07072
1164.73248	0.06760
1160.87575	0.06520
1157.01902	0.06454
1153.16229	0.06933
1149.30556	0.07466
1145.44883	0.07669
1141.59210	0.07925
1137.73537	0.08365
1133.87864	0.08473
1130.02191	0.07695
1126.16518	0.06771
1122.30845	0.06954
1118.45172	0.07818
1114.59499	0.08271
1110.73826	0.07812
1106.88153	0.06895
1103.02480	0.06533
1099.16807	0.06799
1095.31134	0.06921
1091.45461	0.06603
1087.59788	0.06231
1083.74115	0.06310
1079.88442	0.06359
1076.02769	0.05795
1072.17096	0.05517
1068.31423	0.05970
1064.45750	0.06265
1060.60077	0.06357
1056.74404	0.06586
1052.88731	0.06405
1049.03058	0.05799
1045.17385	0.05738
1041.31712	0.06470
1037.46039	0.07066
1033.60366	0.06578
1029.74693	0.05774
1025.89020	0.05796
1022.03347	0.06430
1018.17674	0.07014
1014.32001	0.07027
1010.46328	0.06729
1006.60655	0.06602
1002.74982	0.06601
998.89309	0.06561
995.03636	0.06447
991.17963	0.06385
987.32290	0.06655
983.46617	0.06917
979.60944	0.06775
975.75271	0.06579
971.89598	0.06537
968.03925	0.06543
964.18252	0.06599
960.32579	0.06481
956.46906	0.06009
952.61233	0.05532
948.75560	0.05367
944.89887	0.05571
941.04214	0.05966
937.18541	0.06177
933.32868	0.06188
929.47195	0.06286
925.61522	0.06606
921.75849	0.06647
917.90176	0.06070
914.04503	0.05511
910.18830	0.05640
906.33157	0.06182
902.47484	0.06491
898.61811	0.06284
894.76138	0.06038
890.90465	0.06101
887.04792	0.06210
883.19119	0.06447
879.33446	0.06626
875.47773	0.06341
871.62100	0.05997
867.76427	0.05757
863.90754	0.05603
860.05081	0.06019
856.19408	0.06759
852.33735	0.07520
848.48062	0.07990
844.62389	0.07647
840.76716	0.06814
836.91043	0.06345
833.05370	0.06123
829.19697	0.06359
825.34024	0.06871
821.48351	0.06736
817.62678	0.06415
813.77005	0.06653
809.91332	0.06729
806.05659	0.06254
802.19986	0.06142
798.34313	0.06440
794.48640	0.06366
790.62967	0.06194
786.77294	0.06047
782.91621	0.05826
779.05947	0.05711
775.20274	0.05489
771.34601	0.05174
767.48928	0.04989
763.63255	0.05261
759.77582	0.05398
755.91909	0.05069
752.06236	0.05182
748.20563	0.06247
744.34890	0.07329
740.49217	0.07564
736.63544	0.07312
732.77871	0.07075
728.92198	0.06975
725.06525	0.07328
721.20852	0.07813
717.35179	0.07739
713.49506	0.07530
709.63833	0.07431
705.78160	0.06678
701.92487	0.05568
698.06814	0.05283
694.21141	0.05852
690.35468	0.06533
686.49795	0.07131
682.64122	0.07728
678.78449	0.08180
674.92776	0.08021
671.07103	0.07724
667.21430	0.08032
663.35757	0.08053
659.50084	0.08016
655.64411	0.08164
651.78738	0.08307
647.93065	0.08637
644.07392	0.08743
640.21719	0.08230
636.36046	0.07287
632.50373	0.06520
628.64700	0.06790
624.79027	0.07261
620.93354	0.07009
617.07681	0.06735
613.22008	0.06148
609.36335	0.05891
605.50662	0.07111
601.64989	0.08799
597.79316	0.09182
