3995.57236	0.17818
3991.71563	0.17520
3987.85890	0.17423
3984.00217	0.17450
3980.14544	0.17522
3976.28871	0.17567
3972.43198	0.17578
3968.57525	0.17654
3964.71852	0.17772
3960.86179	0.18015
3957.00506	0.18420
3953.14833	0.18634
3949.29160	0.18536
3945.43487	0.18572
3941.57814	0.18867
3937.72141	0.18912
3933.86468	0.18476
3930.00795	0.18182
3926.15122	0.18476
3922.29449	0.18783
3918.43776	0.18693
3914.58103	0.18657
3910.72430	0.18799
3906.86757	0.18764
3903.01084	0.18770
3899.15411	0.19189
3895.29737	0.19683
3891.44064	0.19987
3887.58391	0.20182
3883.72718	0.20368
3879.87045	0.20506
3876.01372	0.20531
3872.15699	0.20465
3868.30026	0.20372
3864.44353	0.20358
3860.58680	0.20401
3856.73007	0.20406
3852.87334	0.20212
3849.01661	0.19868
3845.15988	0.19798
3841.30315	0.20065
3837.44642	0.20408
3833.58969	0.20651
3829.73296	0.20775
3825.87623	0.20762
3822.01950	0.20652
3818.16277	0.20496
3814.30604	0.20464
3810.44931	0.20594
3806.59258	0.20602
3802.73585	0.20362
3798.87912	0.20175
3795.02239	0.20266
3791.16566	0.20590
3787.30893	0.20864
3783.45220	0.20757
3779.59547	0.20491
3775.73874	0.20554
3771.88201	0.20713
3768.02528	0.20563
3764.16855	0.20184
3760.31182	0.19791
3756.45509	0.19700
3752.59836	0.19975
3748.74163	0.20077
3744.88490	0.19893
3741.02817	0.19897
3737.17144	0.20156
3733.31471	0.20272
3729.45798	0.19872
3725.60125	0.19203
3721.74452	0.18741
3717.88779	0.18645
3714.03106	0.18556
3710.17433	0.18284
3706.31760	0.17912
3702.46087	0.17527
3698.60414	0.17334
3694.74741	0.17150
3690.89068	0.16373
3687.03395	0.15123
3683.17722	0.14426
3679.32049	0.14209
3675.46376	0.13915
3671.60703	0.13555
3667.75030	0.13162
3663.89357	0.12885
3660.03684	0.12812
3656.18011	0.12593
3652.32338	0.12139
3648.46665	0.11766
3644.60992	0.11514
3640.75319	0.11201
3636.89646	0.10888
3633.03973	0.10785
3629.18300	0.11040
3625.32627	0.11352
3621.46954	0.11320
3617.61281	0.11064
3613.75608	0.10806
3609.89935	0.10593
3606.04262	0.10349
3602.18589	0.10220
3598.32916	0.10512
3594.47243	0.11015
3590.61570	0.11207
3586.75897	0.10837
3582.90224	0.10138
3579.04551	0.09709
3575.18878	0.09770
3571.33205	0.09995
3567.47532	0.10129
3563.61859	0.10145
3559.76186	0.10064
3555.90513	0.10086
3552.04840	0.10201
3548.19167	0.09989
3544.33494	0.09354
3540.47821	0.08811
3536.62148	0.08814
3532.76475	0.09431
3528.90802	0.10150
3525.05129	0.10197
3521.19456	0.09761
3517.33783	0.09427
3513.48110	0.09229
3509.62437	0.09228
3505.76764	0.09435
3501.91091	0.09429
3498.05418	0.09055
3494.19745	0.08895
3490.34072	0.09191
3486.48399	0.09437
3482.62726	0.09360
3478.77053	0.09264
3474.91380	0.09394
3471.05707	0.09517
3467.20034	0.09580
3463.34361	0.09821
3459.48688	0.09923
3455.63015	0.09574
3451.77342	0.09205
3447.91669	0.09367
3444.05996	0.09859
3440.20323	0.09965
3436.34650	0.09542
3432.48977	0.09190
3428.63304	0.09281
3424.77631	0.09398
3420.91958	0.09019
3417.06285	0.08578
3413.20612	0.08644
3409.34939	0.08947
3405.49266	0.09306
3401.63593	0.09770
3397.77920	0.09544
3393.92247	0.08575
3390.06574	0.08277
3386.20901	0.08911
3382.35228	0.09311
3378.49555	0.08906
3374.63881	0.08243
3370.78208	0.08163
3366.92535	0.08584
3363.06862	0.08608
3359.21189	0.08047
3355.35516	0.07716
3351.49843	0.08051
3347.64170	0.08631
3343.78497	0.09051
3339.92824	0.09193
3336.07151	0.09227
3332.21478	0.09255
3328.35805	0.08999
3324.50132	0.08699
3320.64459	0.08727
3316.78786	0.08924
3312.93113	0.09118
3309.07440	0.09123
3305.21767	0.08881
3301.36094	0.08742
3297.50421	0.08719
3293.64748	0.08755
3289.79075	0.09181
3285.93402	0.09712
3282.07729	0.09706
3278.22056	0.09480
3274.36383	0.09419
3270.50710	0.09349
3266.65037	0.09122
3262.79364	0.08648
3258.93691	0.08192
3255.08018	0.08169
3251.22345	0.08497
3247.36672	0.08679
3243.50999	0.08805
3239.65326	0.09277
3235.79653	0.09785
3231.93980	0.09816
3228.08307	0.09520
3224.22634	0.09307
3220.36961	0.09259
3216.51288	0.09319
3212.65615	0.09308
3208.79942	0.09090
3204.94269	0.08995
3201.08596	0.09139
3197.22923	0.09258
3193.37250	0.09351
3189.51577	0.09379
3185.65904	0.09298
3181.80231	0.09251
3177.94558	0.09391
3174.08885	0.09688
3170.23212	0.09838
3166.37539	0.09798
3162.51866	0.09586
3158.66193	0.09299
3154.80520	0.09253
3150.94847	0.09415
3147.09174	0.09633
3143.23501	0.09731
3139.37828	0.09646
3135.52155	0.09668
3131.66482	0.09764
3127.80809	0.09601
3123.95136	0.09428
3120.09463	0.09692
3116.23790	0.10085
3112.38117	0.10131
3108.52444	0.10005
3104.66771	0.10017
3100.81098	0.10028
3096.95425	0.09918
3093.09752	0.09826
3089.24079	0.09746
3085.38406	0.09750
3081.52733	0.09952
3077.67060	0.10029
3073.81387	0.09920
3069.95714	0.09956
3066.10041	0.10265
3062.24368	0.10709
3058.38695	0.10923
3054.53022	0.10750
3050.67349	0.10553
3046.81676	0.10656
3042.96003	0.10786
3039.10330	0.10473
3035.24657	0.09983
3031.38984	0.09939
3027.53311	0.10279
3023.67638	0.10526
3019.81965	0.10558
3015.96292	0.10507
3012.10619	0.10456
3008.24946	0.10457
3004.39273	0.10435
3000.53600	0.10224
2996.67927	0.09964
2992.82254	0.10044
2988.96581	0.10420
2985.10908	0.10552
2981.25235	0.10200
2977.39562	0.09609
2973.53889	0.09138
2969.68216	0.09057
2965.82543	0.09337
2961.96870	0.09702
2958.11197	0.09943
2954.25524	0.09934
2950.39851	0.09774
2946.54178	0.09846
2942.68505	0.10163
2938.82832	0.10442
2934.97159	0.10647
2931.11486	0.10901
2927.25813	0.11170
2923.40140	0.11147
2919.54467	0.10775
2915.68794	0.10373
2911.83121	0.10322
2907.97448	0.10706
2904.11775	0.11022
2900.26102	0.10929
2896.40429	0.10762
2892.54756	0.10579
2888.69083	0.10214
2884.83410	0.10092
2880.97737	0.10282
2877.12064	0.10312
2873.26391	0.10164
2869.40718	0.10155
2865.55045	0.10295
2861.69372	0.10331
2857.83698	0.10245
2853.98025	0.10303
2850.12352	0.10506
2846.26679	0.10810
2842.41006	0.11270
2838.55333	0.11490
2834.69660	0.11170
2830.83987	0.10726
2826.98314	0.10522
2823.12641	0.10484
2819.26968	0.10621
2815.41295	0.10909
2811.55622	0.10966
2807.69949	0.10727
2803.84276	0.10546
2799.98603	0.10420
2796.12930	0.10321
2792.27257	0.10485
2788.41584	0.10711
2784.55911	0.10686
2780.70238	0.10601
2776.84565	0.10637
2772.98892	0.10763
2769.13219	0.10914
2765.27546	0.10946
2761.41873	0.10866
2757.56200	0.10863
2753.70527	0.10910
2749.84854	0.10880
2745.99181	0.10847
2742.13508	0.10889
2738.27835	0.11034
2734.42162	0.11191
2730.56489	0.11248
2726.70816	0.11221
2722.85143	0.11112
2718.99470	0.11052
2715.13797	0.11147
2711.28124	0.11254
2707.42451	0.11262
2703.56778	0.11244
2699.71105	0.11263
2695.85432	0.11293
2691.99759	0.11280
2688.14086	0.11282
2684.28413	0.11284
2680.42740	0.11232
2676.57067	0.11224
2672.71394	0.11289
2668.85721	0.11363
2665.00048	0.11472
2661.14375	0.11632
2657.28702	0.11749
2653.43029	0.11668
2649.57356	0.11518
2645.71683	0.11537
2641.86010	0.11633
2638.00337	0.11659
2634.14664	0.11670
2630.28991	0.11647
2626.43318	0.11519
2622.57645	0.11389
2618.71972	0.11394
2614.86299	0.11464
2611.00626	0.11489
2607.14953	0.11502
2603.29280	0.11500
2599.43607	0.11474
2595.57934	0.11426
2591.72261	0.11311
2587.86588	0.11319
2584.00915	0.11591
2580.15242	0.11790
2576.29569	0.11700
2572.43896	0.11659
2568.58223	0.11842
2564.72550	0.11918
2560.86877	0.11779
2557.01204	0.11691
2553.15531	0.11709
2549.29858	0.11752
2545.44185	0.11862
2541.58512	0.11976
2537.72839	0.11969
2533.87166	0.11930
2530.01493	0.11981
2526.15820	0.12074
2522.30147	0.12105
2518.44474	0.12075
2514.58801	0.12104
2510.73128	0.12244
2506.87455	0.12381
2503.01782	0.12378
2499.16109	0.12174
2495.30436	0.11877
2491.44763	0.11718
2487.59090	0.11746
2483.73417	0.11845
2479.87744	0.11984
2476.02071	0.12221
2472.16398	0.12497
2468.30725	0.12606
2464.45052	0.12541
2460.59379	0.12500
2456.73706	0.12498
2452.88033	0.12470
2449.02360	0.12538
2445.16687	0.12710
2441.31014	0.12750
2437.45341	0.12646
2433.59668	0.12537
2429.73995	0.12483
2425.88322	0.12586
2422.02649	0.12748
2418.16976	0.12764
2414.31303	0.12719
2410.45630	0.12714
2406.59957	0.12761
2402.74284	0.12881
2398.88611	0.12965
2395.02938	0.12982
2391.17265	0.12973
2387.31592	0.12837
2383.45919	0.12607
2379.60246	0.12476
2375.74573	0.12520
2371.88900	0.12734
2368.03227	0.13188
2364.17554	0.13608
2360.31881	0.13301
2356.46208	0.12660
2352.60535	0.12537
2348.74862	0.12759
2344.89189	0.13015
2341.03516	0.13098
2337.17842	0.13108
2333.32169	0.13335
2329.46496	0.13661
2325.60823	0.13681
2321.75150	0.13215
2317.89477	0.12728
2314.03804	0.12661
2310.18131	0.12784
2306.32458	0.12805
2302.46785	0.12838
2298.61112	0.12940
2294.75439	0.13119
2290.89766	0.13422
2287.04093	0.13633
2283.18420	0.13670
2279.32747	0.13706
2275.47074	0.13669
2271.61401	0.13520
2267.75728	0.13465
2263.90055	0.13499
2260.04382	0.13507
2256.18709	0.13578
2252.33036	0.13736
2248.47363	0.13771
2244.61690	0.13592
2240.76017	0.13434
2236.90344	0.13503
2233.04671	0.13650
2229.18998	0.13648
2225.33325	0.13508
2221.47652	0.13376
2217.61979	0.13307
2213.76306	0.13236
2209.90633	0.13228
2206.04960	0.13313
2202.19287	0.13254
2198.33614	0.13044
2194.47941	0.12924
2190.62268	0.12945
2186.76595	0.13087
2182.90922	0.13291
2179.05249	0.13361
2175.19576	0.13201
2171.33903	0.12945
2167.48230	0.12813
2163.62557	0.12857
2159.76884	0.12882
2155.91211	0.12838
2152.05538	0.12879
2148.19865	0.12953
2144.34192	0.12897
2140.48519	0.12762
2136.62846	0.12728
2132.77173	0.12828
2128.91500	0.12873
2125.05827	0.12771
2121.20154	0.12679
2117.34481	0.12729
2113.48808	0.12923
2109.63135	0.13139
2105.77462	0.13179
2101.91789	0.13026
2098.06116	0.12912
2094.20443	0.12953
2090.34770	0.13018
2086.49097	0.13043
2082.63424	0.13100
2078.77751	0.13165
2074.92078	0.13136
2071.06405	0.13045
2067.20732	0.12973
2063.35059	0.12891
2059.49386	0.12851
2055.63713	0.12996
2051.78040	0.13233
2047.92367	0.13330
2044.06694	0.13293
2040.21021	0.13310
2036.35348	0.13403
2032.49675	0.13436
2028.64002	0.13357
2024.78329	0.13253
2020.92656	0.13174
2017.06983	0.13101
2013.21310	0.13114
2009.35637	0.13276
2005.49964	0.13441
2001.64291	0.13396
1997.78618	0.13140
1993.92945	0.12974
1990.07272	0.13041
1986.21599	0.13119
1982.35926	0.13127
1978.50253	0.13186
1974.64580	0.13313
1970.78907	0.13447
1966.93234	0.13443
1963.07561	0.13290
1959.21888	0.13152
1955.36215	0.13104
1951.50542	0.13177
1947.64869	0.13286
1943.79196	0.13319
1939.93523	0.13366
1936.07850	0.13477
1932.22177	0.13499
1928.36504	0.13377
1924.50831	0.13280
1920.65158	0.13263
1916.79485	0.13266
1912.93812	0.13286
1909.08139	0.13267
1905.22466	0.13225
1901.36793	0.13236
1897.51120	0.13321
1893.65447	0.13434
1889.79774	0.13513
1885.94101	0.13576
1882.08428	0.13543
1878.22755	0.13354
1874.37082	0.13172
1870.51409	0.13145
1866.65736	0.13220
1862.80063	0.13185
1858.94390	0.13007
1855.08717	0.12815
1851.23044	0.12706
1847.37371	0.12767
1843.51698	0.12939
1839.66025	0.12966
1835.80352	0.12871
1831.94679	0.12810
1828.09006	0.12696
1824.23333	0.12517
1820.37660	0.12405
1816.51986	0.12276
1812.66313	0.12096
1808.80640	0.11996
1804.94967	0.11966
1801.09294	0.11819
1797.23621	0.11463
1793.37948	0.11147
1789.52275	0.11016
1785.66602	0.10841
1781.80929	0.10625
1777.95256	0.10491
1774.09583	0.10366
1770.23910	0.10286
1766.38237	0.10276
1762.52564	0.10161
1758.66891	0.09936
1754.81218	0.09784
1750.95545	0.09817
1747.09872	0.10109
1743.24199	0.10598
1739.38526	0.11045
1735.52853	0.11383
1731.67180	0.11529
1727.81507	0.11299
1723.95834	0.10929
1720.10161	0.10766
1716.24488	0.10723
1712.38815	0.10421
1708.53142	0.10113
1704.67469	0.10080
1700.81796	0.09879
1696.96123	0.09246
1693.10450	0.09019
1689.24777	0.09345
1685.39104	0.09502
1681.53431	0.09058
1677.67758	0.08636
1673.82085	0.08617
1669.96412	0.08816
1666.10739	0.09011
1662.25066	0.09031
1658.39393	0.08787
1654.53720	0.08532
1650.68047	0.08602
1646.82374	0.08938
1642.96701	0.09333
1639.11028	0.09600
1635.25355	0.09784
1631.39682	0.09997
1627.54009	0.10031
1623.68336	0.09924
1619.82663	0.09963
1615.96990	0.10065
1612.11317	0.10083
1608.25644	0.10064
1604.39971	0.09884
1600.54298	0.09566
1596.68625	0.09437
1592.82952	0.09534
1588.97279	0.09577
1585.11606	0.09502
1581.25933	0.09612
1577.40260	0.09932
1573.54587	0.09959
1569.68914	0.09516
1565.83241	0.09055
1561.97568	0.08905
1558.11895	0.09067
1554.26222	0.09258
1550.40549	0.09317
1546.54876	0.09382
1542.69203	0.09679
1538.83530	0.10202
1534.97857	0.10387
1531.12184	0.10182
1527.26511	0.10063
1523.40838	0.10229
1519.55165	0.10383
1515.69492	0.10433
1511.83819	0.10514
1507.98146	0.10464
1504.12473	0.10330
1500.26800	0.10485
1496.41127	0.10747
1492.55454	0.10756
1488.69781	0.10566
1484.84108	0.10424
1480.98435	0.10406
1477.12762	0.10418
1473.27089	0.10351
1469.41416	0.10302
1465.55743	0.10311
1461.70070	0.10269
1457.84397	0.10163
1453.98724	0.10035
1450.13051	0.09920
1446.27378	0.09978
1442.41705	0.10227
1438.56032	0.10460
1434.70359	0.10530
1430.84686	0.10441
1426.99013	0.10254
1423.13340	0.10073
1419.27667	0.10042
1415.41994	0.10144
1411.56321	0.10173
1407.70648	0.10085
1403.84975	0.10038
1399.99302	0.10104
1396.13629	0.10165
1392.27956	0.10071
1388.42283	0.10012
1384.56610	0.10171
1380.70937	0.10140
1376.85264	0.09912
1372.99591	0.10034
1369.13918	0.10306
1365.28245	0.10181
1361.42572	0.09890
1357.56899	0.09919
1353.71226	0.10124
1349.85553	0.10152
1345.99880	0.09900
1342.14207	0.09564
1338.28534	0.09349
1334.42861	0.09293
1330.57188	0.09256
1326.71515	0.09225
1322.85842	0.09389
1319.00169	0.09662
1315.14496	0.09739
1311.28823	0.09564
1307.43150	0.09355
1303.57477	0.09269
1299.71804	0.09136
1295.86130	0.09058
1292.00457	0.09235
1288.14784	0.09401
1284.29111	0.09282
1280.43438	0.09013
1276.57765	0.08943
1272.72092	0.09371
1268.86419	0.10072
1265.00746	0.10499
1261.15073	0.10488
1257.29400	0.10411
1253.43727	0.10217
1249.58054	0.09627
1245.72381	0.08982
1241.86708	0.08629
1238.01035	0.08515
1234.15362	0.08606
1230.29689	0.08729
1226.44016	0.08908
1222.58343	0.09675
1218.72670	0.10538
1214.86997	0.10404
1211.01324	0.10079
1207.15651	0.10471
1203.29978	0.10838
1199.44305	0.10478
1195.58632	0.10038
1191.72959	0.09973
1187.87286	0.09935
1184.01613	0.09853
1180.15940	0.10163
1176.30267	0.10553
1172.44594	0.10248
1168.58921	0.09429
1164.73248	0.08973
1160.87575	0.09095
1157.01902	0.09711
1153.16229	0.10733
1149.30556	0.11689
1145.44883	0.11921
1141.59210	0.11112
1137.73537	0.09823
1133.87864	0.08989
1130.02191	0.09038
1126.16518	0.09633
1122.30845	0.09892
1118.45172	0.09611
1114.59499	0.09055
1110.73826	0.08688
1106.88153	0.08914
1103.02480	0.09497
1099.16807	0.09560
1095.31134	0.08976
1091.45461	0.08717
1087.59788	0.09069
1083.74115	0.09564
1079.88442	0.09733
1076.02769	0.09372
1072.17096	0.09349
1068.31423	0.09973
1064.45750	0.10353
1060.60077	0.10013
1056.74404	0.09373
1052.88731	0.09097
1049.03058	0.09193
1045.17385	0.09142
1041.31712	0.08967
1037.46039	0.08945
1033.60366	0.09189
1029.74693	0.09631
1025.89020	0.10096
1022.03347	0.10620
1018.17674	0.11014
1014.32001	0.11060
1010.46328	0.10994
1006.60655	0.10935
1002.74982	0.10753
998.89309	0.10422
995.03636	0.10109
991.17963	0.09880
987.32290	0.09682
983.46617	0.09662
979.60944	0.10050
975.75271	0.10524
971.89598	0.10490
968.03925	0.10283
964.18252	0.10375
960.32579	0.10316
956.46906	0.10033
952.61233	0.10017
948.75560	0.10317
944.89887	0.10767
941.04214	0.11021
937.18541	0.10736
933.32868	0.10211
929.47195	0.09852
925.61522	0.09637
921.75849	0.09322
917.90176	0.08901
914.04503	0.09181
910.18830	0.10399
906.33157	0.11086
902.47484	0.10454
898.61811	0.09352
894.76138	0.08680
890.90465	0.08536
887.04792	0.08672
883.19119	0.08791
879.33446	0.08595
875.47773	0.08293
871.62100	0.08626
867.76427	0.09635
863.90754	0.10257
860.05081	0.10272
856.19408	0.10446
852.33735	0.10923
848.48062	0.11211
844.62389	0.10776
840.76716	0.10049
836.91043	0.10260
833.05370	0.11037
829.19697	0.11285
825.34024	0.11008
821.48351	0.10259
817.62678	0.09315
813.77005	0.08862
809.91332	0.09366
806.05659	0.10308
802.19986	0.10763
798.34313	0.10866
794.48640	0.10705
790.62967	0.10209
786.77294	0.09861
782.91621	0.09747
779.05947	0.09536
775.20274	0.09116
771.34601	0.08776
767.48928	0.08835
763.63255	0.09216
759.77582	0.09420
755.91909	0.09718
752.06236	0.10209
748.20563	0.10268
744.34890	0.10291
740.49217	0.10266
736.63544	0.09483
732.77871	0.09079
728.92198	0.09881
725.06525	0.10381
721.20852	0.09911
717.35179	0.09515
713.49506	0.09515
709.63833	0.09574
705.78160	0.09747
701.92487	0.10063
698.06814	0.10264
694.21141	0.10081
690.35468	0.09915
686.49795	0.09929
682.64122	0.09559
678.78449	0.08670
674.92776	0.07758
671.07103	0.07659
667.21430	0.08677
663.35757	0.09803
659.50084	0.10429
655.64411	0.10806
651.78738	0.10570
647.93065	0.09703
644.07392	0.09274
640.21719	0.09450
636.36046	0.09801
632.50373	0.10264
628.64700	0.10895
624.79027	0.11316
620.93354	0.10969
617.07681	0.10160
613.22008	0.09691
609.36335	0.09921
605.50662	0.10833
601.64989	0.11978
597.79316	0.12063
