3995.57236	0.18682
3991.71563	0.19111
3987.85890	0.19392
3984.00217	0.19458
3980.14544	0.19396
3976.28871	0.19338
3972.43198	0.19294
3968.57525	0.19189
3964.71852	0.19089
3960.86179	0.19042
3957.00506	0.18989
3953.14833	0.19053
3949.29160	0.19257
3945.43487	0.19332
3941.57814	0.19345
3937.72141	0.19536
3933.86468	0.19835
3930.00795	0.20142
3926.15122	0.20109
3922.29449	0.19612
3918.43776	0.19484
3914.58103	0.20041
3910.72430	0.20425
3906.86757	0.20412
3903.01084	0.20409
3899.15411	0.20336
3895.29737	0.20201
3891.44064	0.20287
3887.58391	0.20369
3883.72718	0.20316
3879.87045	0.20355
3876.01372	0.20558
3872.15699	0.20768
3868.30026	0.20716
3864.44353	0.20638
3860.58680	0.20958
3856.73007	0.21449
3852.87334	0.21681
3849.01661	0.21574
3845.15988	0.21398
3841.30315	0.21255
3837.44642	0.21075
3833.58969	0.20978
3829.73296	0.21142
3825.87623	0.21308
3822.01950	0.21183
3818.16277	0.20793
3814.30604	0.20397
3810.44931	0.20232
3806.59258	0.20372
3802.73585	0.20654
3798.87912	0.20746
3795.02239	0.20691
3791.16566	0.20755
3787.30893	0.21001
3783.45220	0.21314
3779.59547	0.21417
3775.73874	0.21275
3771.88201	0.21150
3768.02528	0.21132
3764.16855	0.21144
3760.31182	0.21081
3756.45509	0.20993
3752.59836	0.20918
3748.74163	0.20716
3744.88490	0.20693
3741.02817	0.20922
3737.17144	0.20759
3733.31471	0.20257
3729.45798	0.19967
3725.60125	0.19762
3721.74452	0.19474
3717.88779	0.19191
3714.03106	0.18785
3710.17433	0.18289
3706.31760	0.18103
3702.46087	0.18158
3698.60414	0.17995
3694.74741	0.17441
3690.89068	0.16768
3687.03395	0.16387
3683.17722	0.16254
3679.32049	0.15955
3675.46376	0.15267
3671.60703	0.14294
3667.75030	0.13402
3663.89357	0.12940
3660.03684	0.12825
3656.18011	0.12674
3652.32338	0.12472
3648.46665	0.12326
3644.60992	0.12005
3640.75319	0.11664
3636.89646	0.11474
3633.03973	0.11222
3629.18300	0.10886
3625.32627	0.10822
3621.46954	0.10987
3617.61281	0.11110
3613.75608	0.11210
3609.89935	0.11229
3606.04262	0.10987
3602.18589	0.10707
3598.32916	0.10690
3594.47243	0.10855
3590.61570	0.11127
3586.75897	0.11419
3582.90224	0.11541
3579.04551	0.11552
3575.18878	0.11322
3571.33205	0.10740
3567.47532	0.10252
3563.61859	0.10177
3559.76186	0.10269
3555.90513	0.10421
3552.04840	0.10880
3548.19167	0.11493
3544.33494	0.11695
3540.47821	0.11574
3536.62148	0.11569
3532.76475	0.11595
3528.90802	0.11520
3525.05129	0.11384
3521.19456	0.11092
3517.33783	0.10623
3513.48110	0.10306
3509.62437	0.10315
3505.76764	0.10493
3501.91091	0.10792
3498.05418	0.11090
3494.19745	0.11032
3490.34072	0.10752
3486.48399	0.10890
3482.62726	0.11355
3478.77053	0.11341
3474.91380	0.10799
3471.05707	0.10428
3467.20034	0.10459
3463.34361	0.10725
3459.48688	0.11051
3455.63015	0.10994
3451.77342	0.10439
3447.91669	0.10074
3444.05996	0.10347
3440.20323	0.10814
3436.34650	0.11041
3432.48977	0.11018
3428.63304	0.10912
3424.77631	0.10724
3420.91958	0.10231
3417.06285	0.09877
3413.20612	0.10216
3409.34939	0.10860
3405.49266	0.10966
3401.63593	0.10509
3397.77920	0.10279
3393.92247	0.10469
3390.06574	0.10739
3386.20901	0.10927
3382.35228	0.10859
3378.49555	0.10537
3374.63881	0.10292
3370.78208	0.10404
3366.92535	0.10552
3363.06862	0.10371
3359.21189	0.10327
3355.35516	0.10638
3351.49843	0.10821
3347.64170	0.10798
3343.78497	0.10763
3339.92824	0.10786
3336.07151	0.10872
3332.21478	0.10710
3328.35805	0.10208
3324.50132	0.09743
3320.64459	0.09452
3316.78786	0.09541
3312.93113	0.10036
3309.07440	0.10331
3305.21767	0.10408
3301.36094	0.10511
3297.50421	0.10360
3293.64748	0.10114
3289.79075	0.10258
3285.93402	0.10609
3282.07729	0.10880
3278.22056	0.11014
3274.36383	0.10817
3270.50710	0.10416
3266.65037	0.10274
3262.79364	0.10332
3258.93691	0.10317
3255.08018	0.10271
3251.22345	0.10269
3247.36672	0.10406
3243.50999	0.10662
3239.65326	0.10822
3235.79653	0.10901
3231.93980	0.10840
3228.08307	0.10531
3224.22634	0.10362
3220.36961	0.10687
3216.51288	0.11103
3212.65615	0.11144
3208.79942	0.10819
3204.94269	0.10436
3201.08596	0.10410
3197.22923	0.10700
3193.37250	0.10823
3189.51577	0.10738
3185.65904	0.10711
3181.80231	0.10604
3177.94558	0.10360
3174.08885	0.10442
3170.23212	0.10933
3166.37539	0.11338
3162.51866	0.11443
3158.66193	0.11424
3154.80520	0.11426
3150.94847	0.11455
3147.09174	0.11407
3143.23501	0.11264
3139.37828	0.11158
3135.52155	0.11319
3131.66482	0.11648
3127.80809	0.11690
3123.95136	0.11400
3120.09463	0.11197
3116.23790	0.11185
3112.38117	0.11044
3108.52444	0.10984
3104.66771	0.11232
3100.81098	0.11393
3096.95425	0.11355
3093.09752	0.11348
3089.24079	0.11416
3085.38406	0.11413
3081.52733	0.11296
3077.67060	0.11173
3073.81387	0.11214
3069.95714	0.11440
3066.10041	0.11735
3062.24368	0.11860
3058.38695	0.11779
3054.53022	0.11678
3050.67349	0.11717
3046.81676	0.11940
3042.96003	0.12131
3039.10330	0.12040
3035.24657	0.11811
3031.38984	0.11698
3027.53311	0.11660
3023.67638	0.11571
3019.81965	0.11417
3015.96292	0.11269
3012.10619	0.11326
3008.24946	0.11639
3004.39273	0.11958
3000.53600	0.11821
2996.67927	0.11382
2992.82254	0.11296
2988.96581	0.11513
2985.10908	0.11701
2981.25235	0.11859
2977.39562	0.11947
2973.53889	0.11987
2969.68216	0.11974
2965.82543	0.11918
2961.96870	0.11834
2958.11197	0.11700
2954.25524	0.11981
2950.39851	0.12624
2946.54178	0.12746
2942.68505	0.12182
2938.82832	0.11587
2934.97159	0.11388
2931.11486	0.11398
2927.25813	0.11304
2923.40140	0.11425
2919.54467	0.11855
2915.68794	0.12026
2911.83121	0.11868
2907.97448	0.11707
2904.11775	0.11669
2900.26102	0.11702
2896.40429	0.11697
2892.54756	0.11804
2888.69083	0.12279
2884.83410	0.12670
2880.97737	0.12334
2877.12064	0.11728
2873.26391	0.11722
2869.40718	0.12091
2865.55045	0.12043
2861.69372	0.11571
2857.83698	0.11366
2853.98025	0.11541
2850.12352	0.11653
2846.26679	0.11801
2842.41006	0.12159
2838.55333	0.12329
2834.69660	0.12245
2830.83987	0.12211
2826.98314	0.12124
2823.12641	0.11909
2819.26968	0.11831
2815.41295	0.11855
2811.55622	0.11757
2807.69949	0.11622
2803.84276	0.11544
2799.98603	0.11447
2796.12930	0.11394
2792.27257	0.11484
2788.41584	0.11589
2784.55911	0.11599
2780.70238	0.11613
2776.84565	0.11818
2772.98892	0.12186
2769.13219	0.12475
2765.27546	0.12419
2761.41873	0.12024
2757.56200	0.11662
2753.70527	0.11644
2749.84854	0.11846
2745.99181	0.12050
2742.13508	0.12199
2738.27835	0.12240
2734.42162	0.12207
2730.56489	0.12170
2726.70816	0.12112
2722.85143	0.12058
2718.99470	0.11972
2715.13797	0.11913
2711.28124	0.12125
2707.42451	0.12503
2703.56778	0.12692
2699.71105	0.12683
2695.85432	0.12676
2691.99759	0.12652
2688.14086	0.12533
2684.28413	0.12385
2680.42740	0.12211
2676.57067	0.12017
2672.71394	0.12026
2668.85721	0.12333
2665.00048	0.12638
2661.14375	0.12749
2657.28702	0.12759
2653.43029	0.12743
2649.57356	0.12679
2645.71683	0.12603
2641.86010	0.12635
2638.00337	0.12718
2634.14664	0.12673
2630.28991	0.12544
2626.43318	0.12548
2622.57645	0.12699
2618.71972	0.12848
2614.86299	0.12967
2611.00626	0.13004
2607.14953	0.12843
2603.29280	0.12634
2599.43607	0.12624
2595.57934	0.12725
2591.72261	0.12696
2587.86588	0.12577
2584.00915	0.12537
2580.15242	0.12551
2576.29569	0.12564
2572.43896	0.12644
2568.58223	0.12820
2564.72550	0.12983
2560.86877	0.12979
2557.01204	0.12896
2553.15531	0.12947
2549.29858	0.13023
2545.44185	0.12890
2541.58512	0.12752
2537.72839	0.12832
2533.87166	0.12902
2530.01493	0.12735
2526.15820	0.12509
2522.30147	0.12457
2518.44474	0.12588
2514.58801	0.12796
2510.73128	0.12922
2506.87455	0.12927
2503.01782	0.12900
2499.16109	0.12939
2495.30436	0.13109
2491.44763	0.13245
2487.59090	0.13208
2483.73417	0.13140
2479.87744	0.13135
2476.02071	0.13247
2472.16398	0.13440
2468.30725	0.13500
2464.45052	0.13349
2460.59379	0.13167
2456.73706	0.13147
2452.88033	0.13244
2449.02360	0.13279
2445.16687	0.13280
2441.31014	0.13376
2437.45341	0.13537
2433.59668	0.13700
2429.73995	0.13814
2425.88322	0.13737
2422.02649	0.13447
2418.16976	0.13242
2414.31303	0.13329
2410.45630	0.13457
2406.59957	0.13434
2402.74284	0.13485
2398.88611	0.13763
2395.02938	0.14061
2391.17265	0.14102
2387.31592	0.13849
2383.45919	0.13571
2379.60246	0.13478
2375.74573	0.13540
2371.88900	0.13814
2368.03227	0.14199
2364.17554	0.14127
2360.31881	0.13783
2356.46208	0.13807
2352.60535	0.14005
2348.74862	0.14057
2344.89189	0.13967
2341.03516	0.13820
2337.17842	0.13574
2333.32169	0.13471
2329.46496	0.13784
2325.60823	0.13929
2321.75150	0.13591
2317.89477	0.13380
2314.03804	0.13543
2310.18131	0.13822
2306.32458	0.14090
2302.46785	0.14261
2298.61112	0.14317
2294.75439	0.14415
2290.89766	0.14523
2287.04093	0.14442
2283.18420	0.14325
2279.32747	0.14375
2275.47074	0.14438
2271.61401	0.14456
2267.75728	0.14571
2263.90055	0.14630
2260.04382	0.14464
2256.18709	0.14267
2252.33036	0.14194
2248.47363	0.14257
2244.61690	0.14431
2240.76017	0.14589
2236.90344	0.14615
2233.04671	0.14547
2229.18998	0.14527
2225.33325	0.14542
2221.47652	0.14494
2217.61979	0.14450
2213.76306	0.14493
2209.90633	0.14563
2206.04960	0.14485
2202.19287	0.14206
2198.33614	0.13980
2194.47941	0.13958
2190.62268	0.13915
2186.76595	0.13730
2182.90922	0.13624
2179.05249	0.13647
2175.19576	0.13603
2171.33903	0.13543
2167.48230	0.13630
2163.62557	0.13790
2159.76884	0.13851
2155.91211	0.13794
2152.05538	0.13734
2148.19865	0.13771
2144.34192	0.13915
2140.48519	0.14080
2136.62846	0.14154
2132.77173	0.14083
2128.91500	0.13914
2125.05827	0.13796
2121.20154	0.13806
2117.34481	0.13862
2113.48808	0.13965
2109.63135	0.14101
2105.77462	0.14165
2101.91789	0.14238
2098.06116	0.14327
2094.20443	0.14205
2090.34770	0.13948
2086.49097	0.13910
2082.63424	0.14093
2078.77751	0.14204
2074.92078	0.14075
2071.06405	0.13876
2067.20732	0.13902
2063.35059	0.14046
2059.49386	0.14077
2055.63713	0.14083
2051.78040	0.14105
2047.92367	0.14137
2044.06694	0.14171
2040.21021	0.14127
2036.35348	0.14071
2032.49675	0.14088
2028.64002	0.14135
2024.78329	0.14267
2020.92656	0.14455
2017.06983	0.14483
2013.21310	0.14334
2009.35637	0.14193
2005.49964	0.14196
2001.64291	0.14318
1997.78618	0.14410
1993.92945	0.14433
1990.07272	0.14439
1986.21599	0.14428
1982.35926	0.14387
1978.50253	0.14266
1974.64580	0.14078
1970.78907	0.13999
1966.93234	0.14142
1963.07561	0.14370
1959.21888	0.14479
1955.36215	0.14429
1951.50542	0.14319
1947.64869	0.14297
1943.79196	0.14359
1939.93523	0.14388
1936.07850	0.14406
1932.22177	0.14493
1928.36504	0.14598
1924.50831	0.14611
1920.65158	0.14555
1916.79485	0.14512
1912.93812	0.14462
1909.08139	0.14422
1905.22466	0.14445
1901.36793	0.14492
1897.51120	0.14504
1893.65447	0.14493
1889.79774	0.14561
1885.94101	0.14669
1882.08428	0.14736
1878.22755	0.14788
1874.37082	0.14702
1870.51409	0.14389
1866.65736	0.14105
1862.80063	0.14035
1858.94390	0.14002
1855.08717	0.13933
1851.23044	0.13956
1847.37371	0.14004
1843.51698	0.13929
1839.66025	0.13797
1835.80352	0.13631
1831.94679	0.13360
1828.09006	0.13102
1824.23333	0.13061
1820.37660	0.13086
1816.51986	0.12989
1812.66313	0.12834
1808.80640	0.12684
1804.94967	0.12527
1801.09294	0.12391
1797.23621	0.12355
1793.37948	0.12371
1789.52275	0.12223
1785.66602	0.11872
1781.80929	0.11451
1777.95256	0.11197
1774.09583	0.11258
1770.23910	0.11350
1766.38237	0.11219
1762.52564	0.11053
1758.66891	0.10937
1754.81218	0.10715
1750.95545	0.10463
1747.09872	0.10553
1743.24199	0.10989
1739.38526	0.11412
1735.52853	0.11679
1731.67180	0.11817
1727.81507	0.11683
1723.95834	0.11298
1720.10161	0.10958
1716.24488	0.10839
1712.38815	0.10792
1708.53142	0.10749
1704.67469	0.10775
1700.81796	0.10683
1696.96123	0.10320
1693.10450	0.10024
1689.24777	0.09978
1685.39104	0.10077
1681.53431	0.10181
1677.67758	0.10227
1673.82085	0.10114
1669.96412	0.09924
1666.10739	0.09905
1662.25066	0.09959
1658.39393	0.09991
1654.53720	0.10092
1650.68047	0.10214
1646.82374	0.10156
1642.96701	0.09898
1639.11028	0.09773
1635.25355	0.10040
1631.39682	0.10711
1627.54009	0.11289
1623.68336	0.11572
1619.82663	0.11545
1615.96990	0.11435
1612.11317	0.11424
1608.25644	0.11408
1604.39971	0.11426
1600.54298	0.11481
1596.68625	0.11521
1592.82952	0.11695
1588.97279	0.11928
1585.11606	0.11901
1581.25933	0.11635
1577.40260	0.11397
1573.54587	0.11373
1569.68914	0.11432
1565.83241	0.11372
1561.97568	0.11406
1558.11895	0.11709
1554.26222	0.11739
1550.40549	0.11532
1546.54876	0.11554
1542.69203	0.11902
1538.83530	0.12346
1534.97857	0.12482
1531.12184	0.12387
1527.26511	0.12349
1523.40838	0.12329
1519.55165	0.12299
1515.69492	0.12459
1511.83819	0.12641
1507.98146	0.12666
1504.12473	0.12668
1500.26800	0.12658
1496.41127	0.12573
1492.55454	0.12545
1488.69781	0.12559
1484.84108	0.12486
1480.98435	0.12454
1477.12762	0.12515
1473.27089	0.12496
1469.41416	0.12311
1465.55743	0.12049
1461.70070	0.11756
1457.84397	0.11568
1453.98724	0.11617
1450.13051	0.11891
1446.27378	0.12162
1442.41705	0.12275
1438.56032	0.12335
1434.70359	0.12359
1430.84686	0.12186
1426.99013	0.11900
1423.13340	0.11698
1419.27667	0.11614
1415.41994	0.11581
1411.56321	0.11669
1407.70648	0.11921
1403.84975	0.12182
1399.99302	0.12346
1396.13629	0.12338
1392.27956	0.12101
1388.42283	0.11837
1384.56610	0.11598
1380.70937	0.11353
1376.85264	0.11297
1372.99591	0.11490
1369.13918	0.11730
1365.28245	0.11888
1361.42572	0.11905
1357.56899	0.11807
1353.71226	0.11712
1349.85553	0.11629
1345.99880	0.11724
1342.14207	0.12119
1338.28534	0.12307
1334.42861	0.11891
1330.57188	0.11413
1326.71515	0.11335
1322.85842	0.11438
1319.00169	0.11422
1315.14496	0.11139
1311.28823	0.10631
1307.43150	0.10220
1303.57477	0.10184
1299.71804	0.10561
1295.86130	0.11096
1292.00457	0.11483
1288.14784	0.11508
1284.29111	0.11175
1280.43438	0.10904
1276.57765	0.10922
1272.72092	0.10995
1268.86419	0.11106
1265.00746	0.11451
1261.15073	0.11897
1257.29400	0.12103
1253.43727	0.11967
1249.58054	0.11588
1245.72381	0.11246
1241.86708	0.10989
1238.01035	0.10491
1234.15362	0.10049
1230.29689	0.10360
1226.44016	0.10948
1222.58343	0.11298
1218.72670	0.11374
1214.86997	0.10719
1211.01324	0.09836
1207.15651	0.10209
1203.29978	0.11089
1199.44305	0.11347
1195.58632	0.11785
1191.72959	0.12791
1187.87286	0.13323
1184.01613	0.13019
1180.15940	0.12771
1176.30267	0.12747
1172.44594	0.12211
1168.58921	0.11146
1164.73248	0.10602
1160.87575	0.11005
1157.01902	0.12099
1153.16229	0.12926
1149.30556	0.12582
1145.44883	0.11571
1141.59210	0.10972
1137.73537	0.10937
1133.87864	0.11127
1130.02191	0.11191
1126.16518	0.11125
1122.30845	0.11159
1118.45172	0.11376
1114.59499	0.11507
1110.73826	0.10969
1106.88153	0.10097
1103.02480	0.09710
1099.16807	0.09888
1095.31134	0.10307
1091.45461	0.10606
1087.59788	0.10642
1083.74115	0.10823
1079.88442	0.10914
1076.02769	0.10409
1072.17096	0.09984
1068.31423	0.10742
1064.45750	0.12296
1060.60077	0.13061
1056.74404	0.12334
1052.88731	0.11023
1049.03058	0.10149
1045.17385	0.10168
1041.31712	0.10925
1037.46039	0.11238
1033.60366	0.10498
1029.74693	0.09897
1025.89020	0.10373
1022.03347	0.11197
1018.17674	0.11255
1014.32001	0.11087
1010.46328	0.11498
1006.60655	0.11883
1002.74982	0.11724
998.89309	0.11447
995.03636	0.11167
991.17963	0.10518
987.32290	0.10034
983.46617	0.10168
979.60944	0.10407
975.75271	0.10540
971.89598	0.11096
968.03925	0.11848
964.18252	0.12121
960.32579	0.11915
956.46906	0.11471
952.61233	0.11005
948.75560	0.10698
944.89887	0.10302
941.04214	0.09998
937.18541	0.10243
933.32868	0.10847
929.47195	0.11338
925.61522	0.11582
921.75849	0.11689
917.90176	0.11730
914.04503	0.11653
910.18830	0.11390
906.33157	0.11109
902.47484	0.10992
898.61811	0.11082
894.76138	0.11219
890.90465	0.11057
887.04792	0.10867
883.19119	0.10739
879.33446	0.10365
875.47773	0.10231
871.62100	0.10610
867.76427	0.10781
863.90754	0.10822
860.05081	0.11355
856.19408	0.11868
852.33735	0.11895
848.48062	0.11797
844.62389	0.11593
840.76716	0.11255
836.91043	0.11243
833.05370	0.11264
829.19697	0.10843
825.34024	0.10561
821.48351	0.10791
817.62678	0.11072
813.77005	0.11118
809.91332	0.10867
806.05659	0.10351
802.19986	0.10223
798.34313	0.10757
794.48640	0.11384
790.62967	0.11706
786.77294	0.11573
782.91621	0.11219
779.05947	0.10973
775.20274	0.10884
771.34601	0.10912
767.48928	0.11076
763.63255	0.11245
759.77582	0.11074
755.91909	0.10628
752.06236	0.10545
748.20563	0.10934
744.34890	0.11044
740.49217	0.10695
736.63544	0.10770
732.77871	0.11353
728.92198	0.11841
725.06525	0.12149
721.20852	0.12154
717.35179	0.11769
713.49506	0.11484
709.63833	0.11462
705.78160	0.11068
701.92487	0.10606
698.06814	0.11009
694.21141	0.11476
690.35468	0.11528
686.49795	0.11679
682.64122	0.11611
678.78449	0.11230
674.92776	0.11084
671.07103	0.11256
667.21430	0.11263
663.35757	0.11303
659.50084	0.11464
655.64411	0.11091
651.78738	0.10547
647.93065	0.10984
644.07392	0.12151
640.21719	0.12905
636.36046	0.12625
632.50373	0.11830
628.64700	0.11290
624.79027	0.10729
620.93354	0.10029
617.07681	0.09934
613.22008	0.10344
609.36335	0.10461
605.50662	0.10667
601.64989	0.11558
597.79316	0.12462
