3995.57236	0.18662
3991.71563	0.18704
3987.85890	0.18696
3984.00217	0.18643
3980.14544	0.18635
3976.28871	0.18856
3972.43198	0.19225
3968.57525	0.19401
3964.71852	0.19382
3960.86179	0.19358
3957.00506	0.19330
3953.14833	0.19366
3949.29160	0.19516
3945.43487	0.19683
3941.57814	0.19872
3937.72141	0.20163
3933.86468	0.20481
3930.00795	0.20573
3926.15122	0.20401
3922.29449	0.20263
3918.43776	0.20158
3914.58103	0.19794
3910.72430	0.19434
3906.86757	0.19578
3903.01084	0.20132
3899.15411	0.20463
3895.29737	0.20432
3891.44064	0.20231
3887.58391	0.20034
3883.72718	0.20202
3879.87045	0.20780
3876.01372	0.21243
3872.15699	0.21389
3868.30026	0.21539
3864.44353	0.21639
3860.58680	0.21466
3856.73007	0.21242
3852.87334	0.21292
3849.01661	0.21670
3845.15988	0.21886
3841.30315	0.21591
3837.44642	0.21292
3833.58969	0.21734
3829.73296	0.22249
3825.87623	0.22291
3822.01950	0.22072
3818.16277	0.21982
3814.30604	0.21996
3810.44931	0.21820
3806.59258	0.21504
3802.73585	0.21257
3798.87912	0.21264
3795.02239	0.21471
3791.16566	0.21503
3787.30893	0.21317
3783.45220	0.21250
3779.59547	0.21276
3775.73874	0.21148
3771.88201	0.21019
3768.02528	0.21037
3764.16855	0.21119
3760.31182	0.21192
3756.45509	0.21143
3752.59836	0.20860
3748.74163	0.20622
3744.88490	0.20731
3741.02817	0.20757
3737.17144	0.20489
3733.31471	0.20070
3729.45798	0.19604
3725.60125	0.19202
3721.74452	0.18894
3717.88779	0.18517
3714.03106	0.18040
3710.17433	0.17626
3706.31760	0.17235
3702.46087	0.16783
3698.60414	0.16526
3694.74741	0.16342
3690.89068	0.15732
3687.03395	0.14841
3683.17722	0.14208
3679.32049	0.13735
3675.46376	0.13200
3671.60703	0.12425
3667.75030	0.11577
3663.89357	0.10872
3660.03684	0.10147
3656.18011	0.09469
3652.32338	0.09206
3648.46665	0.09227
3644.60992	0.09262
3640.75319	0.09170
3636.89646	0.08651
3633.03973	0.07975
3629.18300	0.07805
3625.32627	0.07950
3621.46954	0.07616
3617.61281	0.06619
3613.75608	0.05849
3609.89935	0.05972
3606.04262	0.06261
3602.18589	0.06358
3598.32916	0.06579
3594.47243	0.06732
3590.61570	0.06511
3586.75897	0.06238
3582.90224	0.06286
3579.04551	0.06356
3575.18878	0.06165
3571.33205	0.05881
3567.47532	0.05656
3563.61859	0.05332
3559.76186	0.05057
3555.90513	0.05187
3552.04840	0.05741
3548.19167	0.06181
3544.33494	0.06133
3540.47821	0.05757
3536.62148	0.05509
3532.76475	0.05698
3528.90802	0.06056
3525.05129	0.06083
3521.19456	0.05789
3517.33783	0.05566
3513.48110	0.05610
3509.62437	0.05788
3505.76764	0.05870
3501.91091	0.05830
3498.05418	0.05735
3494.19745	0.05615
3490.34072	0.05692
3486.48399	0.05832
3482.62726	0.05735
3478.77053	0.05486
3474.91380	0.05318
3471.05707	0.05418
3467.20034	0.05630
3463.34361	0.05733
3459.48688	0.05722
3455.63015	0.05792
3451.77342	0.05898
3447.91669	0.05789
3444.05996	0.05403
3440.20323	0.05012
3436.34650	0.04964
3432.48977	0.05116
3428.63304	0.05188
3424.77631	0.05206
3420.91958	0.05247
3417.06285	0.05242
3413.20612	0.05139
3409.34939	0.05013
3405.49266	0.05069
3401.63593	0.05086
3397.77920	0.05100
3393.92247	0.05396
3390.06574	0.05451
3386.20901	0.05195
3382.35228	0.05215
3378.49555	0.05448
3374.63881	0.05675
3370.78208	0.05744
3366.92535	0.05338
3363.06862	0.04772
3359.21189	0.04709
3355.35516	0.05076
3351.49843	0.05517
3347.64170	0.05793
3343.78497	0.05664
3339.92824	0.05207
3336.07151	0.04752
3332.21478	0.04524
3328.35805	0.04889
3324.50132	0.05636
3320.64459	0.06005
3316.78786	0.06123
3312.93113	0.06277
3309.07440	0.06291
3305.21767	0.06052
3301.36094	0.05780
3297.50421	0.05779
3293.64748	0.06156
3289.79075	0.06445
3285.93402	0.06454
3282.07729	0.06188
3278.22056	0.05878
3274.36383	0.05801
3270.50710	0.05589
3266.65037	0.05380
3262.79364	0.05814
3258.93691	0.06431
3255.08018	0.06522
3251.22345	0.06417
3247.36672	0.06320
3243.50999	0.06062
3239.65326	0.05875
3235.79653	0.05899
3231.93980	0.05889
3228.08307	0.05743
3224.22634	0.05684
3220.36961	0.05830
3216.51288	0.05896
3212.65615	0.05847
3208.79942	0.05906
3204.94269	0.05872
3201.08596	0.05626
3197.22923	0.05398
3193.37250	0.05304
3189.51577	0.05430
3185.65904	0.05767
3181.80231	0.06044
3177.94558	0.06105
3174.08885	0.05860
3170.23212	0.05557
3166.37539	0.05608
3162.51866	0.05877
3158.66193	0.06139
3154.80520	0.06380
3150.94847	0.06525
3147.09174	0.06514
3143.23501	0.06481
3139.37828	0.06441
3135.52155	0.06189
3131.66482	0.06026
3127.80809	0.06245
3123.95136	0.06454
3120.09463	0.06419
3116.23790	0.06275
3112.38117	0.06269
3108.52444	0.06535
3104.66771	0.06699
3100.81098	0.06566
3096.95425	0.06348
3093.09752	0.06194
3089.24079	0.06276
3085.38406	0.06565
3081.52733	0.06578
3077.67060	0.06360
3073.81387	0.06247
3069.95714	0.06088
3066.10041	0.05873
3062.24368	0.05858
3058.38695	0.06097
3054.53022	0.06424
3050.67349	0.06544
3046.81676	0.06276
3042.96003	0.05973
3039.10330	0.05963
3035.24657	0.06180
3031.38984	0.06444
3027.53311	0.06565
3023.67638	0.06471
3019.81965	0.06353
3015.96292	0.06497
3012.10619	0.06837
3008.24946	0.06967
3004.39273	0.06719
3000.53600	0.06301
2996.67927	0.05996
2992.82254	0.05936
2988.96581	0.05930
2985.10908	0.05831
2981.25235	0.05771
2977.39562	0.05826
2973.53889	0.05768
2969.68216	0.05715
2965.82543	0.05656
2961.96870	0.05525
2958.11197	0.05619
2954.25524	0.06082
2950.39851	0.06712
2946.54178	0.06942
2942.68505	0.06451
2938.82832	0.05891
2934.97159	0.05719
2931.11486	0.06193
2927.25813	0.07119
2923.40140	0.07882
2919.54467	0.08380
2915.68794	0.08753
2911.83121	0.08818
2907.97448	0.08458
2904.11775	0.07798
2900.26102	0.07235
2896.40429	0.07062
2892.54756	0.06884
2888.69083	0.06524
2884.83410	0.06240
2880.97737	0.06047
2877.12064	0.05982
2873.26391	0.06141
2869.40718	0.06318
2865.55045	0.06286
2861.69372	0.06240
2857.83698	0.06675
2853.98025	0.07653
2850.12352	0.08649
2846.26679	0.08941
2842.41006	0.08363
2838.55333	0.07655
2834.69660	0.07348
2830.83987	0.07247
2826.98314	0.07226
2823.12641	0.07318
2819.26968	0.07379
2815.41295	0.07399
2811.55622	0.07604
2807.69949	0.07873
2803.84276	0.07818
2799.98603	0.07638
2796.12930	0.07759
2792.27257	0.07919
2788.41584	0.07857
2784.55911	0.07861
2780.70238	0.08097
2776.84565	0.08197
2772.98892	0.07941
2769.13219	0.07697
2765.27546	0.07703
2761.41873	0.07741
2757.56200	0.07700
2753.70527	0.07597
2749.84854	0.07505
2745.99181	0.07598
2742.13508	0.07857
2738.27835	0.08092
2734.42162	0.08252
2730.56489	0.08365
2726.70816	0.08386
2722.85143	0.08377
2718.99470	0.08403
2715.13797	0.08414
2711.28124	0.08387
2707.42451	0.08325
2703.56778	0.08248
2699.71105	0.08192
2695.85432	0.08199
2691.99759	0.08356
2688.14086	0.08678
2684.28413	0.08941
2680.42740	0.08993
2676.57067	0.08928
2672.71394	0.08839
2668.85721	0.08831
2665.00048	0.08903
2661.14375	0.08953
2657.28702	0.08957
2653.43029	0.08890
2649.57356	0.08790
2645.71683	0.08758
2641.86010	0.08786
2638.00337	0.08804
2634.14664	0.08804
2630.28991	0.08835
2626.43318	0.08843
2622.57645	0.08786
2618.71972	0.08782
2614.86299	0.08954
2611.00626	0.09194
2607.14953	0.09252
2603.29280	0.09168
2599.43607	0.09144
2595.57934	0.09193
2591.72261	0.09291
2587.86588	0.09424
2584.00915	0.09438
2580.15242	0.09251
2576.29569	0.09091
2572.43896	0.09130
2568.58223	0.09253
2564.72550	0.09275
2560.86877	0.09201
2557.01204	0.09292
2553.15531	0.09564
2549.29858	0.09708
2545.44185	0.09657
2541.58512	0.09578
2537.72839	0.09538
2533.87166	0.09581
2530.01493	0.09669
2526.15820	0.09706
2522.30147	0.09700
2518.44474	0.09625
2514.58801	0.09558
2510.73128	0.09639
2506.87455	0.09740
2503.01782	0.09799
2499.16109	0.09920
2495.30436	0.10059
2491.44763	0.10162
2487.59090	0.10261
2483.73417	0.10362
2479.87744	0.10452
2476.02071	0.10520
2472.16398	0.10578
2468.30725	0.10580
2464.45052	0.10452
2460.59379	0.10287
2456.73706	0.10257
2452.88033	0.10419
2449.02360	0.10658
2445.16687	0.10824
2441.31014	0.10861
2437.45341	0.10796
2433.59668	0.10761
2429.73995	0.10754
2425.88322	0.10613
2422.02649	0.10485
2418.16976	0.10610
2414.31303	0.10836
2410.45630	0.10906
2406.59957	0.10867
2402.74284	0.10833
2398.88611	0.10765
2395.02938	0.10705
2391.17265	0.10766
2387.31592	0.10886
2383.45919	0.10966
2379.60246	0.11105
2375.74573	0.11455
2371.88900	0.12021
2368.03227	0.12784
2364.17554	0.13512
2360.31881	0.13498
2356.46208	0.12808
2352.60535	0.12284
2348.74862	0.12203
2344.89189	0.12369
2341.03516	0.12539
2337.17842	0.12536
2333.32169	0.12472
2329.46496	0.12410
2325.60823	0.12345
2321.75150	0.12268
2317.89477	0.12179
2314.03804	0.12156
2310.18131	0.12103
2306.32458	0.11882
2302.46785	0.11698
2298.61112	0.11721
2294.75439	0.11803
2290.89766	0.11822
2287.04093	0.11824
2283.18420	0.11804
2279.32747	0.11783
2275.47074	0.11886
2271.61401	0.12026
2267.75728	0.11983
2263.90055	0.11842
2260.04382	0.11791
2256.18709	0.11818
2252.33036	0.11804
2248.47363	0.11755
2244.61690	0.11785
2240.76017	0.11842
2236.90344	0.11833
2233.04671	0.11891
2229.18998	0.11942
2225.33325	0.11747
2221.47652	0.11499
2217.61979	0.11509
2213.76306	0.11630
2209.90633	0.11591
2206.04960	0.11448
2202.19287	0.11325
2198.33614	0.11234
2194.47941	0.11255
2190.62268	0.11438
2186.76595	0.11594
2182.90922	0.11562
2179.05249	0.11480
2175.19576	0.11471
2171.33903	0.11434
2167.48230	0.11346
2163.62557	0.11301
2159.76884	0.11295
2155.91211	0.11225
2152.05538	0.11122
2148.19865	0.11115
2144.34192	0.11147
2140.48519	0.11147
2136.62846	0.11215
2132.77173	0.11326
2128.91500	0.11292
2125.05827	0.11142
2121.20154	0.11120
2117.34481	0.11273
2113.48808	0.11388
2109.63135	0.11355
2105.77462	0.11346
2101.91789	0.11495
2098.06116	0.11658
2094.20443	0.11658
2090.34770	0.11497
2086.49097	0.11339
2082.63424	0.11299
2078.77751	0.11338
2074.92078	0.11433
2071.06405	0.11596
2067.20732	0.11721
2063.35059	0.11650
2059.49386	0.11378
2055.63713	0.11106
2051.78040	0.11078
2047.92367	0.11287
2044.06694	0.11449
2040.21021	0.11482
2036.35348	0.11579
2032.49675	0.11710
2028.64002	0.11690
2024.78329	0.11535
2020.92656	0.11369
2017.06983	0.11285
2013.21310	0.11335
2009.35637	0.11465
2005.49964	0.11545
2001.64291	0.11541
1997.78618	0.11544
1993.92945	0.11627
1990.07272	0.11704
1986.21599	0.11643
1982.35926	0.11509
1978.50253	0.11448
1974.64580	0.11500
1970.78907	0.11592
1966.93234	0.11599
1963.07561	0.11580
1959.21888	0.11696
1955.36215	0.11808
1951.50542	0.11710
1947.64869	0.11484
1943.79196	0.11313
1939.93523	0.11268
1936.07850	0.11273
1932.22177	0.11290
1928.36504	0.11396
1924.50831	0.11561
1920.65158	0.11666
1916.79485	0.11719
1912.93812	0.11695
1909.08139	0.11557
1905.22466	0.11430
1901.36793	0.11441
1897.51120	0.11606
1893.65447	0.11745
1889.79774	0.11697
1885.94101	0.11595
1882.08428	0.11515
1878.22755	0.11442
1874.37082	0.11469
1870.51409	0.11582
1866.65736	0.11580
1862.80063	0.11413
1858.94390	0.11283
1855.08717	0.11246
1851.23044	0.11181
1847.37371	0.11073
1843.51698	0.11030
1839.66025	0.11028
1835.80352	0.10924
1831.94679	0.10769
1828.09006	0.10702
1824.23333	0.10634
1820.37660	0.10506
1816.51986	0.10436
1812.66313	0.10377
1808.80640	0.10164
1804.94967	0.09836
1801.09294	0.09587
1797.23621	0.09444
1793.37948	0.09296
1789.52275	0.09131
1785.66602	0.09002
1781.80929	0.08892
1777.95256	0.08736
1774.09583	0.08588
1770.23910	0.08560
1766.38237	0.08477
1762.52564	0.08225
1758.66891	0.07972
1754.81218	0.07806
1750.95545	0.07451
1747.09872	0.06949
1743.24199	0.06831
1739.38526	0.07016
1735.52853	0.07171
1731.67180	0.07228
1727.81507	0.07000
1723.95834	0.06558
1720.10161	0.05996
1716.24488	0.05543
1712.38815	0.05475
1708.53142	0.05512
1704.67469	0.05485
1700.81796	0.05334
1696.96123	0.05054
1693.10450	0.04949
1689.24777	0.04855
1685.39104	0.04557
1681.53431	0.04462
1677.67758	0.04750
1673.82085	0.04935
1669.96412	0.04964
1666.10739	0.05130
1662.25066	0.05330
1658.39393	0.05357
1654.53720	0.05296
1650.68047	0.05411
1646.82374	0.05713
1642.96701	0.05974
1639.11028	0.06127
1635.25355	0.06221
1631.39682	0.06423
1627.54009	0.06667
1623.68336	0.06727
1619.82663	0.06719
1615.96990	0.06717
1612.11317	0.06424
1608.25644	0.06070
1604.39971	0.05953
1600.54298	0.05972
1596.68625	0.05933
1592.82952	0.05764
1588.97279	0.05579
1585.11606	0.05610
1581.25933	0.05914
1577.40260	0.06153
1573.54587	0.05901
1569.68914	0.05394
1565.83241	0.05231
1561.97568	0.05522
1558.11895	0.06074
1554.26222	0.06318
1550.40549	0.06277
1546.54876	0.06178
1542.69203	0.06018
1538.83530	0.06039
1534.97857	0.06330
1531.12184	0.06611
1527.26511	0.06689
1523.40838	0.06448
1519.55165	0.06297
1515.69492	0.06534
1511.83819	0.06692
1507.98146	0.06679
1504.12473	0.06600
1500.26800	0.06318
1496.41127	0.06091
1492.55454	0.06197
1488.69781	0.06337
1484.84108	0.06404
1480.98435	0.06568
1477.12762	0.06700
1473.27089	0.06628
1469.41416	0.06481
1465.55743	0.06511
1461.70070	0.06570
1457.84397	0.06349
1453.98724	0.06112
1450.13051	0.06214
1446.27378	0.06455
1442.41705	0.06631
1438.56032	0.06845
1434.70359	0.06952
1430.84686	0.06747
1426.99013	0.06641
1423.13340	0.06708
1419.27667	0.06534
1415.41994	0.06236
1411.56321	0.06134
1407.70648	0.06102
1403.84975	0.06081
1399.99302	0.06300
1396.13629	0.06763
1392.27956	0.06943
1388.42283	0.06629
1384.56610	0.06322
1380.70937	0.06432
1376.85264	0.06755
1372.99591	0.06891
1369.13918	0.06781
1365.28245	0.06601
1361.42572	0.06558
1357.56899	0.06716
1353.71226	0.06759
1349.85553	0.06563
1345.99880	0.06349
1342.14207	0.06255
1338.28534	0.06112
1334.42861	0.05857
1330.57188	0.05807
1326.71515	0.05919
1322.85842	0.06031
1319.00169	0.06135
1315.14496	0.06211
1311.28823	0.06187
1307.43150	0.06105
1303.57477	0.05970
1299.71804	0.05825
1295.86130	0.05860
1292.00457	0.06058
1288.14784	0.06148
1284.29111	0.05999
1280.43438	0.05685
1276.57765	0.05653
1272.72092	0.06175
1268.86419	0.06729
1265.00746	0.07113
1261.15073	0.07453
1257.29400	0.07211
1253.43727	0.06114
1249.58054	0.04985
1245.72381	0.04724
1241.86708	0.05353
1238.01035	0.06116
1234.15362	0.06102
1230.29689	0.05383
1226.44016	0.05475
1222.58343	0.06597
1218.72670	0.07280
1214.86997	0.07196
1211.01324	0.06796
1207.15651	0.05942
1203.29978	0.05128
1199.44305	0.05154
1195.58632	0.06108
1191.72959	0.06846
1187.87286	0.06509
1184.01613	0.05539
1180.15940	0.04996
1176.30267	0.05211
1172.44594	0.05753
1168.58921	0.06377
1164.73248	0.06594
1160.87575	0.06400
1157.01902	0.06245
1153.16229	0.05868
1149.30556	0.05269
1145.44883	0.05204
1141.59210	0.05889
1137.73537	0.06316
1133.87864	0.06251
1130.02191	0.06130
1126.16518	0.05673
1122.30845	0.05326
1118.45172	0.05532
1114.59499	0.05783
1110.73826	0.06265
1106.88153	0.06917
1103.02480	0.07289
1099.16807	0.07303
1095.31134	0.07158
1091.45461	0.07080
1087.59788	0.07056
1083.74115	0.06888
1079.88442	0.06942
1076.02769	0.07387
1072.17096	0.07681
1068.31423	0.07426
1064.45750	0.06888
1060.60077	0.06379
1056.74404	0.05933
1052.88731	0.05650
1049.03058	0.05795
1045.17385	0.06291
1041.31712	0.06915
1037.46039	0.07208
1033.60366	0.06781
1029.74693	0.06169
1025.89020	0.06261
1022.03347	0.07003
1018.17674	0.07586
1014.32001	0.07689
1010.46328	0.07498
1006.60655	0.07301
1002.74982	0.07376
998.89309	0.07656
995.03636	0.07668
991.17963	0.07250
987.32290	0.06993
983.46617	0.07090
979.60944	0.07068
975.75271	0.06640
971.89598	0.06137
968.03925	0.06102
964.18252	0.06363
960.32579	0.06495
956.46906	0.06240
952.61233	0.05752
948.75560	0.05747
944.89887	0.06412
941.04214	0.06748
937.18541	0.06148
933.32868	0.05469
929.47195	0.05532
925.61522	0.06075
921.75849	0.06433
917.90176	0.06339
914.04503	0.06091
910.18830	0.06118
906.33157	0.06472
902.47484	0.06868
898.61811	0.07052
894.76138	0.06987
890.90465	0.06652
887.04792	0.06190
883.19119	0.05777
879.33446	0.06098
875.47773	0.07051
871.62100	0.07247
867.76427	0.06412
863.90754	0.05777
860.05081	0.06069
856.19408	0.06618
852.33735	0.06471
848.48062	0.06316
844.62389	0.06575
840.76716	0.06523
836.91043	0.06425
833.05370	0.06820
829.19697	0.07490
825.34024	0.08189
821.48351	0.08326
817.62678	0.07686
813.77005	0.07213
809.91332	0.06916
806.05659	0.06421
802.19986	0.06105
798.34313	0.06365
794.48640	0.06537
790.62967	0.05926
786.77294	0.05138
782.91621	0.04832
779.05947	0.04965
775.20274	0.05363
771.34601	0.05433
767.48928	0.05173
763.63255	0.05236
759.77582	0.05529
755.91909	0.05770
752.06236	0.05988
748.20563	0.06005
744.34890	0.05902
740.49217	0.05831
736.63544	0.05615
732.77871	0.05424
728.92198	0.05419
725.06525	0.05266
721.20852	0.04932
717.35179	0.05184
713.49506	0.05892
709.63833	0.06067
705.78160	0.05793
701.92487	0.05849
698.06814	0.05981
694.21141	0.05999
690.35468	0.06331
686.49795	0.06712
682.64122	0.06844
678.78449	0.06945
674.92776	0.07036
671.07103	0.07483
667.21430	0.07652
663.35757	0.06955
659.50084	0.06176
655.64411	0.05853
651.78738	0.05912
647.93065	0.06016
644.07392	0.06508
640.21719	0.07189
636.36046	0.07434
632.50373	0.07808
628.64700	0.08207
624.79027	0.08197
620.93354	0.07446
617.07681	0.06099
613.22008	0.05210
609.36335	0.05629
605.50662	0.06639
601.64989	0.07120
597.79316	0.07069
