3995.57236	0.20572
3991.71563	0.20876
3987.85890	0.21142
3984.00217	0.21205
3980.14544	0.21199
3976.28871	0.21506
3972.43198	0.22054
3968.57525	0.22277
3964.71852	0.22022
3960.86179	0.21716
3957.00506	0.21814
3953.14833	0.22338
3949.29160	0.22969
3945.43487	0.23360
3941.57814	0.23229
3937.72141	0.22891
3933.86468	0.22933
3930.00795	0.23187
3926.15122	0.23274
3922.29449	0.23361
3918.43776	0.23433
3914.58103	0.23472
3910.72430	0.23640
3906.86757	0.23667
3903.01084	0.23488
3899.15411	0.23702
3895.29737	0.24193
3891.44064	0.24395
3887.58391	0.24300
3883.72718	0.24351
3879.87045	0.24777
3876.01372	0.25226
3872.15699	0.25538
3868.30026	0.25819
3864.44353	0.26026
3860.58680	0.26176
3856.73007	0.26423
3852.87334	0.26724
3849.01661	0.26763
3845.15988	0.26689
3841.30315	0.26758
3837.44642	0.26796
3833.58969	0.26470
3829.73296	0.26144
3825.87623	0.26172
3822.01950	0.26402
3818.16277	0.26493
3814.30604	0.26421
3810.44931	0.26420
3806.59258	0.26549
3802.73585	0.26763
3798.87912	0.26854
3795.02239	0.26586
3791.16566	0.26150
3787.30893	0.25919
3783.45220	0.26032
3779.59547	0.26246
3775.73874	0.25979
3771.88201	0.25366
3768.02528	0.25161
3764.16855	0.25196
3760.31182	0.25104
3756.45509	0.25293
3752.59836	0.25452
3748.74163	0.24848
3744.88490	0.24164
3741.02817	0.23994
3737.17144	0.24249
3733.31471	0.24744
3729.45798	0.24617
3725.60125	0.23890
3721.74452	0.23083
3717.88779	0.22405
3714.03106	0.21901
3710.17433	0.21281
3706.31760	0.20372
3702.46087	0.19526
3698.60414	0.18809
3694.74741	0.18131
3690.89068	0.17176
3687.03395	0.15987
3683.17722	0.15311
3679.32049	0.15003
3675.46376	0.14548
3671.60703	0.13649
3667.75030	0.12564
3663.89357	0.11742
3660.03684	0.11164
3656.18011	0.10639
3652.32338	0.10078
3648.46665	0.09480
3644.60992	0.09059
3640.75319	0.08826
3636.89646	0.08575
3633.03973	0.08274
3629.18300	0.08196
3625.32627	0.08545
3621.46954	0.09133
3617.61281	0.09760
3613.75608	0.10234
3609.89935	0.10362
3606.04262	0.09919
3602.18589	0.09266
3598.32916	0.08832
3594.47243	0.08476
3590.61570	0.08226
3586.75897	0.08325
3582.90224	0.08406
3579.04551	0.08316
3575.18878	0.08499
3571.33205	0.09057
3567.47532	0.09292
3563.61859	0.08898
3559.76186	0.08716
3555.90513	0.08700
3552.04840	0.08189
3548.19167	0.07544
3544.33494	0.07497
3540.47821	0.07808
3536.62148	0.07895
3532.76475	0.07752
3528.90802	0.07724
3525.05129	0.07913
3521.19456	0.08081
3517.33783	0.08056
3513.48110	0.07915
3509.62437	0.07992
3505.76764	0.08495
3501.91091	0.08966
3498.05418	0.08906
3494.19745	0.08546
3490.34072	0.08290
3486.48399	0.08124
3482.62726	0.07851
3478.77053	0.07628
3474.91380	0.07687
3471.05707	0.07946
3467.20034	0.08003
3463.34361	0.07999
3459.48688	0.08404
3455.63015	0.08727
3451.77342	0.08619
3447.91669	0.08468
3444.05996	0.08286
3440.20323	0.07999
3436.34650	0.07908
3432.48977	0.08181
3428.63304	0.08487
3424.77631	0.08403
3420.91958	0.08126
3417.06285	0.08067
3413.20612	0.08112
3409.34939	0.08276
3405.49266	0.08590
3401.63593	0.08615
3397.77920	0.08428
3393.92247	0.08663
3390.06574	0.08946
3386.20901	0.08584
3382.35228	0.08131
3378.49555	0.08090
3374.63881	0.08084
3370.78208	0.07930
3366.92535	0.07968
3363.06862	0.08125
3359.21189	0.07819
3355.35516	0.07305
3351.49843	0.07248
3347.64170	0.07453
3343.78497	0.07662
3339.92824	0.08132
3336.07151	0.08628
3332.21478	0.08701
3328.35805	0.08589
3324.50132	0.08538
3320.64459	0.08347
3316.78786	0.08276
3312.93113	0.08589
3309.07440	0.08729
3305.21767	0.08419
3301.36094	0.08140
3297.50421	0.08173
3293.64748	0.08358
3289.79075	0.08756
3285.93402	0.09156
3282.07729	0.08949
3278.22056	0.08387
3274.36383	0.08408
3270.50710	0.09050
3266.65037	0.09415
3262.79364	0.09196
3258.93691	0.08698
3255.08018	0.08232
3251.22345	0.07912
3247.36672	0.07894
3243.50999	0.08189
3239.65326	0.08527
3235.79653	0.08784
3231.93980	0.08934
3228.08307	0.09158
3224.22634	0.09661
3220.36961	0.10044
3216.51288	0.09898
3212.65615	0.09556
3208.79942	0.09367
3204.94269	0.09356
3201.08596	0.09385
3197.22923	0.09223
3193.37250	0.08906
3189.51577	0.08985
3185.65904	0.09444
3181.80231	0.09542
3177.94558	0.09271
3174.08885	0.09159
3170.23212	0.09270
3166.37539	0.09431
3162.51866	0.09456
3158.66193	0.09447
3154.80520	0.09607
3150.94847	0.09733
3147.09174	0.09671
3143.23501	0.09473
3139.37828	0.09302
3135.52155	0.09293
3131.66482	0.09415
3127.80809	0.09683
3123.95136	0.10005
3120.09463	0.10082
3116.23790	0.09982
3112.38117	0.10004
3108.52444	0.10024
3104.66771	0.09872
3100.81098	0.09914
3096.95425	0.10221
3093.09752	0.10164
3089.24079	0.09633
3085.38406	0.09296
3081.52733	0.09283
3077.67060	0.09215
3073.81387	0.09271
3069.95714	0.09513
3066.10041	0.09513
3062.24368	0.09274
3058.38695	0.09186
3054.53022	0.09370
3050.67349	0.09627
3046.81676	0.09872
3042.96003	0.09988
3039.10330	0.09649
3035.24657	0.09152
3031.38984	0.09206
3027.53311	0.09694
3023.67638	0.09952
3019.81965	0.09938
3015.96292	0.09952
3012.10619	0.09928
3008.24946	0.09780
3004.39273	0.09588
3000.53600	0.09478
2996.67927	0.09566
2992.82254	0.09751
2988.96581	0.09803
2985.10908	0.09456
2981.25235	0.08946
2977.39562	0.08990
2973.53889	0.09544
2969.68216	0.10103
2965.82543	0.10529
2961.96870	0.10956
2958.11197	0.11300
2954.25524	0.11016
2950.39851	0.10333
2946.54178	0.10074
2942.68505	0.10166
2938.82832	0.10127
2934.97159	0.10008
2931.11486	0.10132
2927.25813	0.10465
2923.40140	0.10752
2919.54467	0.11061
2915.68794	0.11387
2911.83121	0.11485
2907.97448	0.11309
2904.11775	0.11147
2900.26102	0.11193
2896.40429	0.11161
2892.54756	0.10811
2888.69083	0.10507
2884.83410	0.10545
2880.97737	0.10622
2877.12064	0.10557
2873.26391	0.10426
2869.40718	0.10086
2865.55045	0.09684
2861.69372	0.09720
2857.83698	0.10115
2853.98025	0.10521
2850.12352	0.10841
2846.26679	0.10804
2842.41006	0.10302
2838.55333	0.09863
2834.69660	0.09797
2830.83987	0.09829
2826.98314	0.09852
2823.12641	0.10022
2819.26968	0.10259
2815.41295	0.10424
2811.55622	0.10443
2807.69949	0.10424
2803.84276	0.10515
2799.98603	0.10572
2796.12930	0.10473
2792.27257	0.10354
2788.41584	0.10321
2784.55911	0.10466
2780.70238	0.10672
2776.84565	0.10628
2772.98892	0.10468
2769.13219	0.10434
2765.27546	0.10346
2761.41873	0.10111
2757.56200	0.09939
2753.70527	0.09949
2749.84854	0.10124
2745.99181	0.10356
2742.13508	0.10381
2738.27835	0.10193
2734.42162	0.10180
2730.56489	0.10428
2726.70816	0.10623
2722.85143	0.10575
2718.99470	0.10387
2715.13797	0.10275
2711.28124	0.10306
2707.42451	0.10346
2703.56778	0.10418
2699.71105	0.10537
2695.85432	0.10486
2691.99759	0.10382
2688.14086	0.10484
2684.28413	0.10593
2680.42740	0.10488
2676.57067	0.10339
2672.71394	0.10388
2668.85721	0.10529
2665.00048	0.10512
2661.14375	0.10457
2657.28702	0.10569
2653.43029	0.10619
2649.57356	0.10439
2645.71683	0.10430
2641.86010	0.10766
2638.00337	0.10936
2634.14664	0.10705
2630.28991	0.10381
2626.43318	0.10268
2622.57645	0.10435
2618.71972	0.10670
2614.86299	0.10721
2611.00626	0.10638
2607.14953	0.10600
2603.29280	0.10625
2599.43607	0.10629
2595.57934	0.10628
2591.72261	0.10698
2587.86588	0.10738
2584.00915	0.10674
2580.15242	0.10669
2576.29569	0.10730
2572.43896	0.10716
2568.58223	0.10705
2564.72550	0.10815
2560.86877	0.10980
2557.01204	0.11038
2553.15531	0.11007
2549.29858	0.11083
2545.44185	0.11239
2541.58512	0.11291
2537.72839	0.11214
2533.87166	0.11092
2530.01493	0.11001
2526.15820	0.10981
2522.30147	0.11038
2518.44474	0.11158
2514.58801	0.11273
2510.73128	0.11326
2506.87455	0.11341
2503.01782	0.11381
2499.16109	0.11428
2495.30436	0.11409
2491.44763	0.11382
2487.59090	0.11432
2483.73417	0.11521
2479.87744	0.11586
2476.02071	0.11634
2472.16398	0.11708
2468.30725	0.11745
2464.45052	0.11652
2460.59379	0.11553
2456.73706	0.11591
2452.88033	0.11670
2449.02360	0.11669
2445.16687	0.11681
2441.31014	0.11880
2437.45341	0.12202
2433.59668	0.12361
2429.73995	0.12280
2425.88322	0.12122
2422.02649	0.12055
2418.16976	0.12160
2414.31303	0.12351
2410.45630	0.12460
2406.59957	0.12446
2402.74284	0.12336
2398.88611	0.12165
2395.02938	0.12101
2391.17265	0.12305
2387.31592	0.12708
2383.45919	0.13130
2379.60246	0.13593
2375.74573	0.14202
2371.88900	0.14693
2368.03227	0.14731
2364.17554	0.14508
2360.31881	0.14628
2356.46208	0.15158
2352.60535	0.15122
2348.74862	0.14713
2344.89189	0.14644
2341.03516	0.14936
2337.17842	0.14941
2333.32169	0.14815
2329.46496	0.14931
2325.60823	0.14820
2321.75150	0.14405
2317.89477	0.14088
2314.03804	0.13923
2310.18131	0.13820
2306.32458	0.13722
2302.46785	0.13616
2298.61112	0.13566
2294.75439	0.13561
2290.89766	0.13574
2287.04093	0.13590
2283.18420	0.13505
2279.32747	0.13309
2275.47074	0.13159
2271.61401	0.13155
2267.75728	0.13274
2263.90055	0.13396
2260.04382	0.13462
2256.18709	0.13538
2252.33036	0.13604
2248.47363	0.13611
2244.61690	0.13594
2240.76017	0.13545
2236.90344	0.13443
2233.04671	0.13344
2229.18998	0.13318
2225.33325	0.13360
2221.47652	0.13426
2217.61979	0.13429
2213.76306	0.13275
2209.90633	0.13061
2206.04960	0.13009
2202.19287	0.13139
2198.33614	0.13211
2194.47941	0.13047
2190.62268	0.12819
2186.76595	0.12766
2182.90922	0.12844
2179.05249	0.12896
2175.19576	0.12800
2171.33903	0.12574
2167.48230	0.12431
2163.62557	0.12480
2159.76884	0.12625
2155.91211	0.12720
2152.05538	0.12696
2148.19865	0.12658
2144.34192	0.12676
2140.48519	0.12687
2136.62846	0.12626
2132.77173	0.12523
2128.91500	0.12571
2125.05827	0.12817
2121.20154	0.12983
2117.34481	0.12924
2113.48808	0.12760
2109.63135	0.12628
2105.77462	0.12584
2101.91789	0.12633
2098.06116	0.12815
2094.20443	0.13039
2090.34770	0.13119
2086.49097	0.13058
2082.63424	0.12952
2078.77751	0.12856
2074.92078	0.12807
2071.06405	0.12820
2067.20732	0.12899
2063.35059	0.13005
2059.49386	0.13079
2055.63713	0.13085
2051.78040	0.13068
2047.92367	0.13098
2044.06694	0.13151
2040.21021	0.13203
2036.35348	0.13230
2032.49675	0.13185
2028.64002	0.13088
2024.78329	0.13017
2020.92656	0.13035
2017.06983	0.13121
2013.21310	0.13236
2009.35637	0.13397
2005.49964	0.13536
2001.64291	0.13507
1997.78618	0.13368
1993.92945	0.13324
1990.07272	0.13408
1986.21599	0.13506
1982.35926	0.13492
1978.50253	0.13398
1974.64580	0.13356
1970.78907	0.13319
1966.93234	0.13265
1963.07561	0.13315
1959.21888	0.13401
1955.36215	0.13365
1951.50542	0.13296
1947.64869	0.13373
1943.79196	0.13539
1939.93523	0.13650
1936.07850	0.13664
1932.22177	0.13615
1928.36504	0.13620
1924.50831	0.13658
1920.65158	0.13583
1916.79485	0.13467
1912.93812	0.13414
1909.08139	0.13385
1905.22466	0.13377
1901.36793	0.13338
1897.51120	0.13230
1893.65447	0.13173
1889.79774	0.13162
1885.94101	0.13078
1882.08428	0.13025
1878.22755	0.13120
1874.37082	0.13242
1870.51409	0.13222
1866.65736	0.13068
1862.80063	0.12883
1858.94390	0.12686
1855.08717	0.12576
1851.23044	0.12690
1847.37371	0.12835
1843.51698	0.12696
1839.66025	0.12425
1835.80352	0.12249
1831.94679	0.12093
1828.09006	0.11872
1824.23333	0.11658
1820.37660	0.11601
1816.51986	0.11697
1812.66313	0.11806
1808.80640	0.11787
1804.94967	0.11594
1801.09294	0.11280
1797.23621	0.10928
1793.37948	0.10670
1789.52275	0.10544
1785.66602	0.10295
1781.80929	0.09810
1777.95256	0.09374
1774.09583	0.09159
1770.23910	0.09055
1766.38237	0.08999
1762.52564	0.08888
1758.66891	0.08645
1754.81218	0.08430
1750.95545	0.08477
1747.09872	0.08944
1743.24199	0.09655
1739.38526	0.10161
1735.52853	0.10145
1731.67180	0.09596
1727.81507	0.09046
1723.95834	0.08712
1720.10161	0.08463
1716.24488	0.08374
1712.38815	0.08439
1708.53142	0.08460
1704.67469	0.08447
1700.81796	0.08340
1696.96123	0.07955
1693.10450	0.07638
1689.24777	0.07762
1685.39104	0.08194
1681.53431	0.08168
1677.67758	0.07772
1673.82085	0.07639
1669.96412	0.07781
1666.10739	0.08080
1662.25066	0.08432
1658.39393	0.08810
1654.53720	0.09115
1650.68047	0.08956
1646.82374	0.08683
1642.96701	0.08815
1639.11028	0.09036
1635.25355	0.09259
1631.39682	0.09563
1627.54009	0.09749
1623.68336	0.09788
1619.82663	0.09909
1615.96990	0.10139
1612.11317	0.10271
1608.25644	0.10273
1604.39971	0.10142
1600.54298	0.09938
1596.68625	0.09870
1592.82952	0.10004
1588.97279	0.10185
1585.11606	0.10259
1581.25933	0.10190
1577.40260	0.09992
1573.54587	0.09784
1569.68914	0.09646
1565.83241	0.09457
1561.97568	0.09221
1558.11895	0.09249
1554.26222	0.09667
1550.40549	0.10025
1546.54876	0.10195
1542.69203	0.10218
1538.83530	0.10215
1534.97857	0.10305
1531.12184	0.10403
1527.26511	0.10486
1523.40838	0.10597
1519.55165	0.10742
1515.69492	0.10917
1511.83819	0.11139
1507.98146	0.11325
1504.12473	0.11326
1500.26800	0.11260
1496.41127	0.11224
1492.55454	0.11261
1488.69781	0.11270
1484.84108	0.11068
1480.98435	0.10739
1477.12762	0.10529
1473.27089	0.10453
1469.41416	0.10272
1465.55743	0.10223
1461.70070	0.10597
1457.84397	0.11145
1453.98724	0.11385
1450.13051	0.11360
1446.27378	0.11282
1442.41705	0.11063
1438.56032	0.10836
1434.70359	0.10989
1430.84686	0.11142
1426.99013	0.10893
1423.13340	0.10679
1419.27667	0.10704
1415.41994	0.10671
1411.56321	0.10630
1407.70648	0.10797
1403.84975	0.10948
1399.99302	0.10718
1396.13629	0.10387
1392.27956	0.10567
1388.42283	0.11109
1384.56610	0.11365
1380.70937	0.11190
1376.85264	0.10982
1372.99591	0.11023
1369.13918	0.11361
1365.28245	0.11828
1361.42572	0.11961
1357.56899	0.11577
1353.71226	0.11100
1349.85553	0.10802
1345.99880	0.10794
1342.14207	0.11019
1338.28534	0.11039
1334.42861	0.10773
1330.57188	0.10592
1326.71515	0.10509
1322.85842	0.10372
1319.00169	0.10223
1315.14496	0.10165
1311.28823	0.10318
1307.43150	0.10471
1303.57477	0.10322
1299.71804	0.10169
1295.86130	0.10291
1292.00457	0.10322
1288.14784	0.10181
1284.29111	0.10206
1280.43438	0.10348
1276.57765	0.10530
1272.72092	0.10925
1268.86419	0.11329
1265.00746	0.11196
1261.15073	0.10618
1257.29400	0.10318
1253.43727	0.10643
1249.58054	0.11225
1245.72381	0.11636
1241.86708	0.11803
1238.01035	0.11969
1234.15362	0.12204
1230.29689	0.12266
1226.44016	0.12036
1222.58343	0.11852
1218.72670	0.11938
1214.86997	0.12250
1211.01324	0.13001
1207.15651	0.13391
1203.29978	0.12329
1199.44305	0.10872
1195.58632	0.10677
1191.72959	0.11482
1187.87286	0.12007
1184.01613	0.11950
1180.15940	0.12070
1176.30267	0.12441
1172.44594	0.12485
1168.58921	0.12351
1164.73248	0.12404
1160.87575	0.12618
1157.01902	0.12928
1153.16229	0.13016
1149.30556	0.12474
1145.44883	0.11765
1141.59210	0.11873
1137.73537	0.12410
1133.87864	0.12011
1130.02191	0.10789
1126.16518	0.10079
1122.30845	0.10450
1118.45172	0.11513
1114.59499	0.12302
1110.73826	0.11975
1106.88153	0.11264
1103.02480	0.11273
1099.16807	0.11576
1095.31134	0.11497
1091.45461	0.11310
1087.59788	0.11202
1083.74115	0.11069
1079.88442	0.11028
1076.02769	0.11229
1072.17096	0.11334
1068.31423	0.11019
1064.45750	0.10671
1060.60077	0.10778
1056.74404	0.11217
1052.88731	0.11593
1049.03058	0.11752
1045.17385	0.11231
1041.31712	0.10203
1037.46039	0.09819
1033.60366	0.10562
1029.74693	0.11338
1025.89020	0.11411
1022.03347	0.11248
1018.17674	0.11048
1014.32001	0.10865
1010.46328	0.10912
1006.60655	0.10938
1002.74982	0.10644
998.89309	0.10235
995.03636	0.10070
991.17963	0.10379
987.32290	0.10848
983.46617	0.11013
979.60944	0.10936
975.75271	0.10985
971.89598	0.11111
968.03925	0.10965
964.18252	0.10666
960.32579	0.10358
956.46906	0.09990
952.61233	0.09860
948.75560	0.10133
944.89887	0.10445
941.04214	0.10795
937.18541	0.11277
933.32868	0.11363
929.47195	0.10849
925.61522	0.10318
921.75849	0.10151
917.90176	0.10108
914.04503	0.10015
910.18830	0.10079
906.33157	0.10196
902.47484	0.09918
898.61811	0.09515
894.76138	0.09784
890.90465	0.10696
887.04792	0.11591
883.19119	0.11914
879.33446	0.11435
875.47773	0.10535
871.62100	0.09972
867.76427	0.09671
863.90754	0.09421
860.05081	0.09476
856.19408	0.09746
852.33735	0.10152
848.48062	0.10803
844.62389	0.11327
840.76716	0.11279
836.91043	0.10812
833.05370	0.10351
829.19697	0.09899
825.34024	0.09605
821.48351	0.09830
817.62678	0.10135
813.77005	0.10082
809.91332	0.09954
806.05659	0.10418
802.19986	0.11059
798.34313	0.10758
794.48640	0.09616
790.62967	0.08819
786.77294	0.08916
782.91621	0.09408
779.05947	0.09599
775.20274	0.09933
771.34601	0.10573
767.48928	0.10436
763.63255	0.09842
759.77582	0.09906
755.91909	0.10758
752.06236	0.11756
748.20563	0.12370
744.34890	0.12328
740.49217	0.11780
736.63544	0.11033
732.77871	0.10294
728.92198	0.09614
725.06525	0.09030
721.20852	0.08927
717.35179	0.09496
713.49506	0.10223
709.63833	0.10872
705.78160	0.11269
701.92487	0.11196
698.06814	0.10663
694.21141	0.10258
690.35468	0.10554
686.49795	0.10844
682.64122	0.10646
678.78449	0.10683
674.92776	0.11098
671.07103	0.11447
667.21430	0.11326
663.35757	0.10634
659.50084	0.10319
655.64411	0.10559
651.78738	0.10086
647.93065	0.09419
644.07392	0.09807
640.21719	0.10626
636.36046	0.11192
632.50373	0.11193
628.64700	0.10756
624.79027	0.10380
620.93354	0.10261
617.07681	0.10785
613.22008	0.11129
609.36335	0.11028
605.50662	0.11402
601.64989	0.12719
597.79316	0.14400
