3995.57236	0.15202
3991.71563	0.15014
3987.85890	0.14912
3984.00217	0.15153
3980.14544	0.15677
3976.28871	0.15801
3972.43198	0.15401
3968.57525	0.15311
3964.71852	0.15704
3960.86179	0.16112
3957.00506	0.16284
3953.14833	0.16142
3949.29160	0.15834
3945.43487	0.15750
3941.57814	0.15945
3937.72141	0.16104
3933.86468	0.16323
3930.00795	0.16735
3926.15122	0.16961
3922.29449	0.16956
3918.43776	0.17058
3914.58103	0.17178
3910.72430	0.17135
3906.86757	0.17140
3903.01084	0.17325
3899.15411	0.17476
3895.29737	0.17448
3891.44064	0.17432
3887.58391	0.17712
3883.72718	0.18268
3879.87045	0.18705
3876.01372	0.18874
3872.15699	0.18765
3868.30026	0.18250
3864.44353	0.17756
3860.58680	0.17773
3856.73007	0.18072
3852.87334	0.18285
3849.01661	0.18402
3845.15988	0.18519
3841.30315	0.18591
3837.44642	0.18622
3833.58969	0.18611
3829.73296	0.18547
3825.87623	0.18540
3822.01950	0.18695
3818.16277	0.18931
3814.30604	0.19010
3810.44931	0.18953
3806.59258	0.18791
3802.73585	0.18570
3798.87912	0.18628
3795.02239	0.18762
3791.16566	0.18598
3787.30893	0.18335
3783.45220	0.18230
3779.59547	0.18214
3775.73874	0.18132
3771.88201	0.18090
3768.02528	0.18239
3764.16855	0.18387
3760.31182	0.18324
3756.45509	0.18078
3752.59836	0.17691
3748.74163	0.17548
3744.88490	0.17835
3741.02817	0.17805
3737.17144	0.17175
3733.31471	0.16618
3729.45798	0.16696
3725.60125	0.16796
3721.74452	0.16318
3717.88779	0.15490
3714.03106	0.14811
3710.17433	0.14538
3706.31760	0.14624
3702.46087	0.14617
3698.60414	0.14125
3694.74741	0.13171
3690.89068	0.12115
3687.03395	0.11424
3683.17722	0.11071
3679.32049	0.10641
3675.46376	0.09948
3671.60703	0.09271
3667.75030	0.08794
3663.89357	0.08253
3660.03684	0.07693
3656.18011	0.07333
3652.32338	0.07283
3648.46665	0.07308
3644.60992	0.07087
3640.75319	0.06857
3636.89646	0.06794
3633.03973	0.06835
3629.18300	0.06934
3625.32627	0.07223
3621.46954	0.07513
3617.61281	0.07342
3613.75608	0.06830
3609.89935	0.06490
3606.04262	0.06311
3602.18589	0.06291
3598.32916	0.06553
3594.47243	0.06816
3590.61570	0.06997
3586.75897	0.07195
3582.90224	0.07175
3579.04551	0.06928
3575.18878	0.06718
3571.33205	0.06619
3567.47532	0.06546
3563.61859	0.06400
3559.76186	0.06114
3555.90513	0.05987
3552.04840	0.06252
3548.19167	0.06705
3544.33494	0.06936
3540.47821	0.06926
3536.62148	0.06967
3532.76475	0.07223
3528.90802	0.07474
3525.05129	0.07185
3521.19456	0.06540
3517.33783	0.06357
3513.48110	0.06867
3509.62437	0.07389
3505.76764	0.07296
3501.91091	0.06988
3498.05418	0.07067
3494.19745	0.07333
3490.34072	0.07293
3486.48399	0.07060
3482.62726	0.07146
3478.77053	0.07394
3474.91380	0.07210
3471.05707	0.06771
3467.20034	0.06535
3463.34361	0.06247
3459.48688	0.05906
3455.63015	0.05970
3451.77342	0.06199
3447.91669	0.06297
3444.05996	0.06546
3440.20323	0.06865
3436.34650	0.07097
3432.48977	0.07238
3428.63304	0.07233
3424.77631	0.07110
3420.91958	0.07174
3417.06285	0.07402
3413.20612	0.07459
3409.34939	0.07378
3405.49266	0.07305
3401.63593	0.07125
3397.77920	0.06751
3393.92247	0.06343
3390.06574	0.06349
3386.20901	0.06717
3382.35228	0.07031
3378.49555	0.07079
3374.63881	0.06954
3370.78208	0.06821
3366.92535	0.07017
3363.06862	0.07452
3359.21189	0.07727
3355.35516	0.07855
3351.49843	0.07925
3347.64170	0.07802
3343.78497	0.07613
3339.92824	0.07735
3336.07151	0.07944
3332.21478	0.07885
3328.35805	0.07748
3324.50132	0.07631
3320.64459	0.07533
3316.78786	0.07439
3312.93113	0.07235
3309.07440	0.07241
3305.21767	0.07542
3301.36094	0.07648
3297.50421	0.07390
3293.64748	0.07066
3289.79075	0.06909
3285.93402	0.06983
3282.07729	0.07135
3278.22056	0.07103
3274.36383	0.06930
3270.50710	0.06997
3266.65037	0.07453
3262.79364	0.07786
3258.93691	0.07571
3255.08018	0.07177
3251.22345	0.07322
3247.36672	0.07975
3243.50999	0.08359
3239.65326	0.08053
3235.79653	0.07396
3231.93980	0.07132
3228.08307	0.07468
3224.22634	0.07684
3220.36961	0.07589
3216.51288	0.07572
3212.65615	0.07744
3208.79942	0.08017
3204.94269	0.08203
3201.08596	0.08099
3197.22923	0.07830
3193.37250	0.07785
3189.51577	0.07923
3185.65904	0.07861
3181.80231	0.07669
3177.94558	0.07650
3174.08885	0.07762
3170.23212	0.07817
3166.37539	0.07796
3162.51866	0.07611
3158.66193	0.07320
3154.80520	0.07325
3150.94847	0.07538
3147.09174	0.07562
3143.23501	0.07497
3139.37828	0.07608
3135.52155	0.07962
3131.66482	0.08244
3127.80809	0.08114
3123.95136	0.07695
3120.09463	0.07313
3116.23790	0.07146
3112.38117	0.07163
3108.52444	0.07320
3104.66771	0.07623
3100.81098	0.07784
3096.95425	0.07456
3093.09752	0.07003
3089.24079	0.06992
3085.38406	0.07336
3081.52733	0.07765
3077.67060	0.08117
3073.81387	0.08262
3069.95714	0.08113
3066.10041	0.07833
3062.24368	0.07816
3058.38695	0.08110
3054.53022	0.08387
3050.67349	0.08269
3046.81676	0.07789
3042.96003	0.07524
3039.10330	0.07632
3035.24657	0.07638
3031.38984	0.07533
3027.53311	0.07634
3023.67638	0.07813
3019.81965	0.07875
3015.96292	0.07829
3012.10619	0.07693
3008.24946	0.07577
3004.39273	0.07607
3000.53600	0.07771
2996.67927	0.08071
2992.82254	0.08257
2988.96581	0.07980
2985.10908	0.07557
2981.25235	0.07564
2977.39562	0.07903
2973.53889	0.07980
2969.68216	0.07659
2965.82543	0.07422
2961.96870	0.07562
2958.11197	0.07961
2954.25524	0.08361
2950.39851	0.08625
2946.54178	0.08800
2942.68505	0.08814
2938.82832	0.08568
2934.97159	0.08108
2931.11486	0.07762
2927.25813	0.07685
2923.40140	0.07748
2919.54467	0.07929
2915.68794	0.08063
2911.83121	0.08053
2907.97448	0.08148
2904.11775	0.08440
2900.26102	0.08770
2896.40429	0.08987
2892.54756	0.08879
2888.69083	0.08520
2884.83410	0.08321
2880.97737	0.08491
2877.12064	0.08799
2873.26391	0.08812
2869.40718	0.08392
2865.55045	0.07955
2861.69372	0.07850
2857.83698	0.07916
2853.98025	0.08020
2850.12352	0.08177
2846.26679	0.08409
2842.41006	0.08605
2838.55333	0.08595
2834.69660	0.08433
2830.83987	0.08161
2826.98314	0.07811
2823.12641	0.07667
2819.26968	0.07740
2815.41295	0.07724
2811.55622	0.07650
2807.69949	0.07837
2803.84276	0.08141
2799.98603	0.08187
2796.12930	0.07992
2792.27257	0.07888
2788.41584	0.08054
2784.55911	0.08280
2780.70238	0.08298
2776.84565	0.08212
2772.98892	0.08240
2769.13219	0.08351
2765.27546	0.08406
2761.41873	0.08330
2757.56200	0.08190
2753.70527	0.08072
2749.84854	0.07962
2745.99181	0.07898
2742.13508	0.07893
2738.27835	0.07891
2734.42162	0.07942
2730.56489	0.08108
2726.70816	0.08240
2722.85143	0.08160
2718.99470	0.08014
2715.13797	0.08062
2711.28124	0.08228
2707.42451	0.08278
2703.56778	0.08195
2699.71105	0.08050
2695.85432	0.07925
2691.99759	0.08011
2688.14086	0.08257
2684.28413	0.08390
2680.42740	0.08424
2676.57067	0.08392
2672.71394	0.08208
2668.85721	0.08023
2665.00048	0.07995
2661.14375	0.08119
2657.28702	0.08337
2653.43029	0.08516
2649.57356	0.08560
2645.71683	0.08614
2641.86010	0.08710
2638.00337	0.08555
2634.14664	0.08224
2630.28991	0.08076
2626.43318	0.08120
2622.57645	0.08219
2618.71972	0.08269
2614.86299	0.08217
2611.00626	0.08193
2607.14953	0.08321
2603.29280	0.08523
2599.43607	0.08600
2595.57934	0.08507
2591.72261	0.08388
2587.86588	0.08352
2584.00915	0.08430
2580.15242	0.08547
2576.29569	0.08473
2572.43896	0.08170
2568.58223	0.07907
2564.72550	0.07932
2560.86877	0.08212
2557.01204	0.08514
2553.15531	0.08679
2549.29858	0.08636
2545.44185	0.08390
2541.58512	0.08235
2537.72839	0.08351
2533.87166	0.08486
2530.01493	0.08517
2526.15820	0.08532
2522.30147	0.08518
2518.44474	0.08550
2514.58801	0.08635
2510.73128	0.08542
2506.87455	0.08295
2503.01782	0.08230
2499.16109	0.08474
2495.30436	0.08769
2491.44763	0.08879
2487.59090	0.08903
2483.73417	0.08923
2479.87744	0.08890
2476.02071	0.08840
2472.16398	0.08808
2468.30725	0.08789
2464.45052	0.08878
2460.59379	0.08961
2456.73706	0.08846
2452.88033	0.08781
2449.02360	0.08989
2445.16687	0.09186
2441.31014	0.09142
2437.45341	0.08991
2433.59668	0.08900
2429.73995	0.08920
2425.88322	0.08999
2422.02649	0.09040
2418.16976	0.09056
2414.31303	0.09075
2410.45630	0.09114
2406.59957	0.09190
2402.74284	0.09246
2398.88611	0.09221
2395.02938	0.09135
2391.17265	0.09095
2387.31592	0.09188
2383.45919	0.09445
2379.60246	0.09776
2375.74573	0.09923
2371.88900	0.09961
2368.03227	0.10299
2364.17554	0.10527
2360.31881	0.10246
2356.46208	0.10175
2352.60535	0.10042
2348.74862	0.09521
2344.89189	0.09328
2341.03516	0.10057
2337.17842	0.10644
2333.32169	0.10350
2329.46496	0.09992
2325.60823	0.09937
2321.75150	0.09894
2317.89477	0.09753
2314.03804	0.09771
2310.18131	0.09908
2306.32458	0.09928
2302.46785	0.09843
2298.61112	0.09796
2294.75439	0.09887
2290.89766	0.10096
2287.04093	0.10246
2283.18420	0.10213
2279.32747	0.10090
2275.47074	0.09997
2271.61401	0.09962
2267.75728	0.09992
2263.90055	0.10038
2260.04382	0.10025
2256.18709	0.09909
2252.33036	0.09770
2248.47363	0.09798
2244.61690	0.09999
2240.76017	0.10138
2236.90344	0.10126
2233.04671	0.10110
2229.18998	0.10073
2225.33325	0.09843
2221.47652	0.09558
2217.61979	0.09558
2213.76306	0.09858
2209.90633	0.10105
2206.04960	0.10127
2202.19287	0.10014
2198.33614	0.09832
2194.47941	0.09579
2190.62268	0.09255
2186.76595	0.09062
2182.90922	0.09177
2179.05249	0.09388
2175.19576	0.09440
2171.33903	0.09364
2167.48230	0.09319
2163.62557	0.09353
2159.76884	0.09392
2155.91211	0.09429
2152.05538	0.09474
2148.19865	0.09514
2144.34192	0.09528
2140.48519	0.09427
2136.62846	0.09271
2132.77173	0.09264
2128.91500	0.09347
2125.05827	0.09410
2121.20154	0.09496
2117.34481	0.09486
2113.48808	0.09328
2109.63135	0.09215
2105.77462	0.09199
2101.91789	0.09194
2098.06116	0.09212
2094.20443	0.09309
2090.34770	0.09420
2086.49097	0.09427
2082.63424	0.09402
2078.77751	0.09454
2074.92078	0.09488
2071.06405	0.09378
2067.20732	0.09198
2063.35059	0.09116
2059.49386	0.09225
2055.63713	0.09422
2051.78040	0.09544
2047.92367	0.09613
2044.06694	0.09672
2040.21021	0.09632
2036.35348	0.09476
2032.49675	0.09369
2028.64002	0.09418
2024.78329	0.09516
2020.92656	0.09562
2017.06983	0.09561
2013.21310	0.09590
2009.35637	0.09644
2005.49964	0.09595
2001.64291	0.09475
1997.78618	0.09465
1993.92945	0.09586
1990.07272	0.09684
1986.21599	0.09684
1982.35926	0.09668
1978.50253	0.09685
1974.64580	0.09666
1970.78907	0.09590
1966.93234	0.09556
1963.07561	0.09594
1959.21888	0.09684
1955.36215	0.09800
1951.50542	0.09791
1947.64869	0.09635
1943.79196	0.09520
1939.93523	0.09580
1936.07850	0.09780
1932.22177	0.09935
1928.36504	0.09908
1924.50831	0.09793
1920.65158	0.09701
1916.79485	0.09622
1912.93812	0.09607
1909.08139	0.09714
1905.22466	0.09828
1901.36793	0.09796
1897.51120	0.09676
1893.65447	0.09636
1889.79774	0.09677
1885.94101	0.09702
1882.08428	0.09701
1878.22755	0.09728
1874.37082	0.09795
1870.51409	0.09770
1866.65736	0.09615
1862.80063	0.09524
1858.94390	0.09494
1855.08717	0.09424
1851.23044	0.09370
1847.37371	0.09343
1843.51698	0.09265
1839.66025	0.09091
1835.80352	0.08824
1831.94679	0.08574
1828.09006	0.08475
1824.23333	0.08411
1820.37660	0.08296
1816.51986	0.08207
1812.66313	0.08048
1808.80640	0.07763
1804.94967	0.07623
1801.09294	0.07752
1797.23621	0.07897
1793.37948	0.07866
1789.52275	0.07700
1785.66602	0.07461
1781.80929	0.07259
1777.95256	0.07200
1774.09583	0.07169
1770.23910	0.07007
1766.38237	0.06844
1762.52564	0.06773
1758.66891	0.06632
1754.81218	0.06380
1750.95545	0.06303
1747.09872	0.06506
1743.24199	0.06747
1739.38526	0.07088
1735.52853	0.07472
1731.67180	0.07320
1727.81507	0.06785
1723.95834	0.06452
1720.10161	0.06405
1716.24488	0.06549
1712.38815	0.06512
1708.53142	0.06166
1704.67469	0.05908
1700.81796	0.06093
1696.96123	0.06423
1693.10450	0.06436
1689.24777	0.06258
1685.39104	0.06128
1681.53431	0.06263
1677.67758	0.06574
1673.82085	0.06741
1669.96412	0.06798
1666.10739	0.06730
1662.25066	0.06529
1658.39393	0.06362
1654.53720	0.06524
1650.68047	0.07183
1646.82374	0.07707
1642.96701	0.07674
1639.11028	0.07475
1635.25355	0.07478
1631.39682	0.07848
1627.54009	0.08294
1623.68336	0.08424
1619.82663	0.08293
1615.96990	0.08325
1612.11317	0.08464
1608.25644	0.08461
1604.39971	0.08317
1600.54298	0.08100
1596.68625	0.07865
1592.82952	0.07763
1588.97279	0.07863
1585.11606	0.08014
1581.25933	0.08078
1577.40260	0.07985
1573.54587	0.07788
1569.68914	0.07641
1565.83241	0.07531
1561.97568	0.07439
1558.11895	0.07571
1554.26222	0.07883
1550.40549	0.08175
1546.54876	0.08357
1542.69203	0.08142
1538.83530	0.07790
1534.97857	0.07981
1531.12184	0.08434
1527.26511	0.08738
1523.40838	0.08804
1519.55165	0.08801
1515.69492	0.08821
1511.83819	0.08764
1507.98146	0.08802
1504.12473	0.08975
1500.26800	0.08927
1496.41127	0.08629
1492.55454	0.08293
1488.69781	0.08116
1484.84108	0.08114
1480.98435	0.08254
1477.12762	0.08566
1473.27089	0.08849
1469.41416	0.08728
1465.55743	0.08391
1461.70070	0.08042
1457.84397	0.07892
1453.98724	0.08154
1450.13051	0.08439
1446.27378	0.08530
1442.41705	0.08507
1438.56032	0.08485
1434.70359	0.08550
1430.84686	0.08550
1426.99013	0.08394
1423.13340	0.08136
1419.27667	0.07886
1415.41994	0.07953
1411.56321	0.08179
1407.70648	0.08258
1403.84975	0.08392
1399.99302	0.08605
1396.13629	0.08523
1392.27956	0.08223
1388.42283	0.08093
1384.56610	0.08077
1380.70937	0.08057
1376.85264	0.08115
1372.99591	0.08158
1369.13918	0.08080
1365.28245	0.07908
1361.42572	0.07862
1357.56899	0.08032
1353.71226	0.08182
1349.85553	0.08264
1345.99880	0.08262
1342.14207	0.08055
1338.28534	0.07808
1334.42861	0.07670
1330.57188	0.07619
1326.71515	0.07767
1322.85842	0.08039
1319.00169	0.08095
1315.14496	0.07987
1311.28823	0.08033
1307.43150	0.08133
1303.57477	0.08096
1299.71804	0.07967
1295.86130	0.08011
1292.00457	0.08316
1288.14784	0.08542
1284.29111	0.08356
1280.43438	0.07888
1276.57765	0.07641
1272.72092	0.07687
1268.86419	0.07683
1265.00746	0.07686
1261.15073	0.07715
1257.29400	0.07494
1253.43727	0.07235
1249.58054	0.07683
1245.72381	0.08322
1241.86708	0.08098
1238.01035	0.07421
1234.15362	0.06930
1230.29689	0.06724
1226.44016	0.06411
1222.58343	0.06195
1218.72670	0.07160
1214.86997	0.08396
1211.01324	0.08591
1207.15651	0.07964
1203.29978	0.07403
1199.44305	0.07421
1195.58632	0.07722
1191.72959	0.07475
1187.87286	0.06794
1184.01613	0.06721
1180.15940	0.06908
1176.30267	0.06587
1172.44594	0.06556
1168.58921	0.07661
1164.73248	0.08859
1160.87575	0.08988
1157.01902	0.08621
1153.16229	0.08516
1149.30556	0.08604
1145.44883	0.08552
1141.59210	0.08175
1137.73537	0.07894
1133.87864	0.07599
1130.02191	0.07098
1126.16518	0.07169
1122.30845	0.07798
1118.45172	0.07836
1114.59499	0.07343
1110.73826	0.07622
1106.88153	0.08592
1103.02480	0.09080
1099.16807	0.08697
1095.31134	0.07989
1091.45461	0.07342
1087.59788	0.06950
1083.74115	0.07158
1079.88442	0.07953
1076.02769	0.08529
1072.17096	0.08231
1068.31423	0.07357
1064.45750	0.06813
1060.60077	0.07204
1056.74404	0.07448
1052.88731	0.06816
1049.03058	0.06561
1045.17385	0.07342
1041.31712	0.07925
1037.46039	0.07761
1033.60366	0.07394
1029.74693	0.07151
1025.89020	0.07161
1022.03347	0.07187
1018.17674	0.07000
1014.32001	0.06885
1010.46328	0.06965
1006.60655	0.07118
1002.74982	0.07074
998.89309	0.06830
995.03636	0.06879
991.17963	0.07358
987.32290	0.07792
983.46617	0.07856
979.60944	0.07647
975.75271	0.07645
971.89598	0.07978
968.03925	0.08216
964.18252	0.08124
960.32579	0.07865
956.46906	0.07579
952.61233	0.07211
948.75560	0.06928
944.89887	0.06962
941.04214	0.07098
937.18541	0.07032
933.32868	0.07051
929.47195	0.07260
925.61522	0.07260
921.75849	0.07080
917.90176	0.07219
914.04503	0.07726
910.18830	0.08085
906.33157	0.07770
902.47484	0.06815
898.61811	0.05901
894.76138	0.05764
890.90465	0.06206
887.04792	0.06453
883.19119	0.06283
879.33446	0.06361
875.47773	0.07026
871.62100	0.07539
867.76427	0.07504
863.90754	0.07317
860.05081	0.07111
856.19408	0.07214
852.33735	0.07314
848.48062	0.07215
844.62389	0.07006
840.76716	0.06496
836.91043	0.05988
833.05370	0.06044
829.19697	0.06582
825.34024	0.06990
821.48351	0.07004
817.62678	0.07110
813.77005	0.07393
809.91332	0.07391
806.05659	0.07046
802.19986	0.07097
798.34313	0.07769
794.48640	0.08070
790.62967	0.07865
786.77294	0.07548
782.91621	0.07455
779.05947	0.07337
775.20274	0.06845
771.34601	0.06624
767.48928	0.06826
763.63255	0.06863
759.77582	0.06640
755.91909	0.06834
752.06236	0.07585
748.20563	0.07969
744.34890	0.07800
740.49217	0.07679
736.63544	0.07594
732.77871	0.07373
728.92198	0.07088
725.06525	0.07071
721.20852	0.07456
717.35179	0.07731
713.49506	0.07568
709.63833	0.07401
705.78160	0.07471
701.92487	0.07422
698.06814	0.07299
694.21141	0.07405
690.35468	0.07775
686.49795	0.08200
682.64122	0.08373
678.78449	0.08106
674.92776	0.07956
671.07103	0.08615
667.21430	0.09364
663.35757	0.09266
659.50084	0.08822
655.64411	0.08337
651.78738	0.07843
647.93065	0.07692
644.07392	0.07825
640.21719	0.07814
636.36046	0.07638
632.50373	0.08139
628.64700	0.09357
624.79027	0.10223
620.93354	0.10921
617.07681	0.10921
613.22008	0.09912
609.36335	0.08549
605.50662	0.07463
601.64989	0.06653
597.79316	0.06098
