3995.57236	0.18667
3991.71563	0.18646
3987.85890	0.18764
3984.00217	0.19195
3980.14544	0.19475
3976.28871	0.19370
3972.43198	0.19191
3968.57525	0.19101
3964.71852	0.19059
3960.86179	0.19124
3957.00506	0.19420
3953.14833	0.20089
3949.29160	0.20889
3945.43487	0.21226
3941.57814	0.20997
3937.72141	0.20623
3933.86468	0.20496
3930.00795	0.20719
3926.15122	0.21076
3922.29449	0.21419
3918.43776	0.21658
3914.58103	0.21670
3910.72430	0.21596
3906.86757	0.21641
3903.01084	0.22047
3899.15411	0.22816
3895.29737	0.23144
3891.44064	0.22806
3887.58391	0.22389
3883.72718	0.22309
3879.87045	0.22519
3876.01372	0.22896
3872.15699	0.23044
3868.30026	0.22704
3864.44353	0.22683
3860.58680	0.23353
3856.73007	0.24085
3852.87334	0.24431
3849.01661	0.24331
3845.15988	0.24257
3841.30315	0.24399
3837.44642	0.24476
3833.58969	0.24565
3829.73296	0.24763
3825.87623	0.24790
3822.01950	0.24595
3818.16277	0.24247
3814.30604	0.23896
3810.44931	0.23802
3806.59258	0.23945
3802.73585	0.24045
3798.87912	0.23998
3795.02239	0.23958
3791.16566	0.24003
3787.30893	0.24070
3783.45220	0.24114
3779.59547	0.24174
3775.73874	0.24060
3771.88201	0.23598
3768.02528	0.23060
3764.16855	0.22813
3760.31182	0.23008
3756.45509	0.23440
3752.59836	0.23368
3748.74163	0.22318
3744.88490	0.21434
3741.02817	0.21725
3737.17144	0.22225
3733.31471	0.22065
3729.45798	0.21675
3725.60125	0.21253
3721.74452	0.20656
3717.88779	0.20317
3714.03106	0.20320
3710.17433	0.20242
3706.31760	0.19671
3702.46087	0.18700
3698.60414	0.17949
3694.74741	0.17652
3690.89068	0.17165
3687.03395	0.16061
3683.17722	0.14961
3679.32049	0.14152
3675.46376	0.13233
3671.60703	0.12071
3667.75030	0.11271
3663.89357	0.10905
3660.03684	0.10499
3656.18011	0.10012
3652.32338	0.09811
3648.46665	0.09673
3644.60992	0.09367
3640.75319	0.09267
3636.89646	0.09411
3633.03973	0.09529
3629.18300	0.09473
3625.32627	0.09457
3621.46954	0.09512
3617.61281	0.09304
3613.75608	0.08981
3609.89935	0.08791
3606.04262	0.08478
3602.18589	0.08216
3598.32916	0.08220
3594.47243	0.08301
3590.61570	0.08525
3586.75897	0.08914
3582.90224	0.09174
3579.04551	0.09286
3575.18878	0.09349
3571.33205	0.09215
3567.47532	0.08931
3563.61859	0.08847
3559.76186	0.08985
3555.90513	0.09086
3552.04840	0.09091
3548.19167	0.09254
3544.33494	0.09620
3540.47821	0.09706
3536.62148	0.09454
3532.76475	0.09270
3528.90802	0.09194
3525.05129	0.09112
3521.19456	0.09172
3517.33783	0.09376
3513.48110	0.09438
3509.62437	0.09270
3505.76764	0.09121
3501.91091	0.09027
3498.05418	0.08981
3494.19745	0.08897
3490.34072	0.08577
3486.48399	0.08552
3482.62726	0.08966
3478.77053	0.09047
3474.91380	0.08708
3471.05707	0.08376
3467.20034	0.08197
3463.34361	0.08255
3459.48688	0.08423
3455.63015	0.08604
3451.77342	0.08559
3447.91669	0.08323
3444.05996	0.08356
3440.20323	0.08740
3436.34650	0.09099
3432.48977	0.09028
3428.63304	0.08705
3424.77631	0.08665
3420.91958	0.08969
3417.06285	0.09013
3413.20612	0.08600
3409.34939	0.08176
3405.49266	0.08099
3401.63593	0.08384
3397.77920	0.08817
3393.92247	0.08941
3390.06574	0.08670
3386.20901	0.08634
3382.35228	0.08888
3378.49555	0.08902
3374.63881	0.08838
3370.78208	0.08851
3366.92535	0.08751
3363.06862	0.08616
3359.21189	0.08414
3355.35516	0.08269
3351.49843	0.08426
3347.64170	0.08484
3343.78497	0.08371
3339.92824	0.08563
3336.07151	0.09004
3332.21478	0.09219
3328.35805	0.09100
3324.50132	0.08683
3320.64459	0.08182
3316.78786	0.08139
3312.93113	0.08615
3309.07440	0.09026
3305.21767	0.09006
3301.36094	0.08770
3297.50421	0.08702
3293.64748	0.08794
3289.79075	0.08848
3285.93402	0.09020
3282.07729	0.09490
3278.22056	0.09787
3274.36383	0.09553
3270.50710	0.09068
3266.65037	0.08666
3262.79364	0.08654
3258.93691	0.09141
3255.08018	0.09614
3251.22345	0.09611
3247.36672	0.09457
3243.50999	0.09382
3239.65326	0.09230
3235.79653	0.09093
3231.93980	0.09164
3228.08307	0.09400
3224.22634	0.09604
3220.36961	0.09699
3216.51288	0.09741
3212.65615	0.09781
3208.79942	0.09807
3204.94269	0.09868
3201.08596	0.09829
3197.22923	0.09611
3193.37250	0.09379
3189.51577	0.09088
3185.65904	0.08999
3181.80231	0.09364
3177.94558	0.09631
3174.08885	0.09483
3170.23212	0.09377
3166.37539	0.09572
3162.51866	0.09917
3158.66193	0.10249
3154.80520	0.10484
3150.94847	0.10264
3147.09174	0.09664
3143.23501	0.09455
3139.37828	0.09793
3135.52155	0.10029
3131.66482	0.10084
3127.80809	0.10171
3123.95136	0.10020
3120.09463	0.09710
3116.23790	0.09765
3112.38117	0.09991
3108.52444	0.10019
3104.66771	0.09975
3100.81098	0.09885
3096.95425	0.09847
3093.09752	0.10068
3089.24079	0.10242
3085.38406	0.10137
3081.52733	0.10017
3077.67060	0.10121
3073.81387	0.10486
3069.95714	0.10721
3066.10041	0.10554
3062.24368	0.10441
3058.38695	0.10660
3054.53022	0.10861
3050.67349	0.10821
3046.81676	0.10597
3042.96003	0.10355
3039.10330	0.10250
3035.24657	0.10170
3031.38984	0.10153
3027.53311	0.10355
3023.67638	0.10522
3019.81965	0.10574
3015.96292	0.10741
3012.10619	0.10889
3008.24946	0.10838
3004.39273	0.10544
3000.53600	0.09935
2996.67927	0.09377
2992.82254	0.09361
2988.96581	0.09677
2985.10908	0.09856
2981.25235	0.09907
2977.39562	0.09974
2973.53889	0.10164
2969.68216	0.10531
2965.82543	0.10796
2961.96870	0.10827
2958.11197	0.10820
2954.25524	0.10818
2950.39851	0.10733
2946.54178	0.10507
2942.68505	0.10347
2938.82832	0.10249
2934.97159	0.09927
2931.11486	0.09709
2927.25813	0.10009
2923.40140	0.10447
2919.54467	0.10440
2915.68794	0.09955
2911.83121	0.09699
2907.97448	0.09990
2904.11775	0.10220
2900.26102	0.10037
2896.40429	0.09884
2892.54756	0.10310
2888.69083	0.11052
2884.83410	0.11149
2880.97737	0.10623
2877.12064	0.10305
2873.26391	0.10212
2869.40718	0.10137
2865.55045	0.10233
2861.69372	0.10344
2857.83698	0.10302
2853.98025	0.10411
2850.12352	0.10606
2846.26679	0.10434
2842.41006	0.10135
2838.55333	0.10077
2834.69660	0.10077
2830.83987	0.09963
2826.98314	0.09867
2823.12641	0.09955
2819.26968	0.10175
2815.41295	0.10341
2811.55622	0.10444
2807.69949	0.10586
2803.84276	0.10711
2799.98603	0.10589
2796.12930	0.10263
2792.27257	0.10111
2788.41584	0.10248
2784.55911	0.10406
2780.70238	0.10376
2776.84565	0.10168
2772.98892	0.09935
2769.13219	0.09898
2765.27546	0.10076
2761.41873	0.10352
2757.56200	0.10668
2753.70527	0.10764
2749.84854	0.10549
2745.99181	0.10362
2742.13508	0.10415
2738.27835	0.10601
2734.42162	0.10679
2730.56489	0.10618
2726.70816	0.10573
2722.85143	0.10494
2718.99470	0.10316
2715.13797	0.10224
2711.28124	0.10267
2707.42451	0.10273
2703.56778	0.10247
2699.71105	0.10330
2695.85432	0.10481
2691.99759	0.10568
2688.14086	0.10519
2684.28413	0.10411
2680.42740	0.10420
2676.57067	0.10428
2672.71394	0.10321
2668.85721	0.10296
2665.00048	0.10382
2661.14375	0.10551
2657.28702	0.10817
2653.43029	0.10948
2649.57356	0.10881
2645.71683	0.10877
2641.86010	0.10995
2638.00337	0.10979
2634.14664	0.10716
2630.28991	0.10440
2626.43318	0.10407
2622.57645	0.10609
2618.71972	0.10845
2614.86299	0.10999
2611.00626	0.11032
2607.14953	0.10943
2603.29280	0.10894
2599.43607	0.10849
2595.57934	0.10628
2591.72261	0.10380
2587.86588	0.10363
2584.00915	0.10539
2580.15242	0.10689
2576.29569	0.10736
2572.43896	0.10768
2568.58223	0.10805
2564.72550	0.10802
2560.86877	0.10738
2557.01204	0.10670
2553.15531	0.10716
2549.29858	0.10840
2545.44185	0.10899
2541.58512	0.10939
2537.72839	0.11073
2533.87166	0.11161
2530.01493	0.11080
2526.15820	0.11024
2522.30147	0.11103
2518.44474	0.11160
2514.58801	0.11140
2510.73128	0.11128
2506.87455	0.11009
2503.01782	0.10787
2499.16109	0.10791
2495.30436	0.10977
2491.44763	0.11028
2487.59090	0.11046
2483.73417	0.11130
2479.87744	0.11159
2476.02071	0.11205
2472.16398	0.11343
2468.30725	0.11420
2464.45052	0.11309
2460.59379	0.11121
2456.73706	0.11031
2452.88033	0.11046
2449.02360	0.11126
2445.16687	0.11319
2441.31014	0.11585
2437.45341	0.11731
2433.59668	0.11675
2429.73995	0.11562
2425.88322	0.11492
2422.02649	0.11440
2418.16976	0.11447
2414.31303	0.11516
2410.45630	0.11562
2406.59957	0.11594
2402.74284	0.11594
2398.88611	0.11509
2395.02938	0.11524
2391.17265	0.11744
2387.31592	0.11996
2383.45919	0.12147
2379.60246	0.12221
2375.74573	0.12213
2371.88900	0.12110
2368.03227	0.12142
2364.17554	0.12433
2360.31881	0.12564
2356.46208	0.12736
2352.60535	0.12822
2348.74862	0.12542
2344.89189	0.12123
2341.03516	0.11903
2337.17842	0.12003
2333.32169	0.12176
2329.46496	0.12358
2325.60823	0.12633
2321.75150	0.12845
2317.89477	0.12933
2314.03804	0.12884
2310.18131	0.12740
2306.32458	0.12617
2302.46785	0.12573
2298.61112	0.12606
2294.75439	0.12603
2290.89766	0.12467
2287.04093	0.12386
2283.18420	0.12498
2279.32747	0.12629
2275.47074	0.12661
2271.61401	0.12613
2267.75728	0.12534
2263.90055	0.12565
2260.04382	0.12725
2256.18709	0.12829
2252.33036	0.12837
2248.47363	0.12899
2244.61690	0.12988
2240.76017	0.12922
2236.90344	0.12743
2233.04671	0.12588
2229.18998	0.12503
2225.33325	0.12559
2221.47652	0.12724
2217.61979	0.12767
2213.76306	0.12614
2209.90633	0.12452
2206.04960	0.12344
2202.19287	0.12181
2198.33614	0.12062
2194.47941	0.12157
2190.62268	0.12280
2186.76595	0.12212
2182.90922	0.12089
2179.05249	0.12052
2175.19576	0.12057
2171.33903	0.12080
2167.48230	0.12102
2163.62557	0.12037
2159.76884	0.11910
2155.91211	0.11805
2152.05538	0.11774
2148.19865	0.11868
2144.34192	0.11974
2140.48519	0.11986
2136.62846	0.11946
2132.77173	0.11853
2128.91500	0.11800
2125.05827	0.11911
2121.20154	0.12107
2117.34481	0.12270
2113.48808	0.12366
2109.63135	0.12361
2105.77462	0.12320
2101.91789	0.12322
2098.06116	0.12250
2094.20443	0.12137
2090.34770	0.12173
2086.49097	0.12293
2082.63424	0.12388
2078.77751	0.12436
2074.92078	0.12383
2071.06405	0.12275
2067.20732	0.12217
2063.35059	0.12235
2059.49386	0.12327
2055.63713	0.12471
2051.78040	0.12523
2047.92367	0.12400
2044.06694	0.12288
2040.21021	0.12355
2036.35348	0.12490
2032.49675	0.12473
2028.64002	0.12328
2024.78329	0.12305
2020.92656	0.12364
2017.06983	0.12330
2013.21310	0.12324
2009.35637	0.12392
2005.49964	0.12405
2001.64291	0.12433
1997.78618	0.12515
1993.92945	0.12494
1990.07272	0.12385
1986.21599	0.12298
1982.35926	0.12256
1978.50253	0.12300
1974.64580	0.12339
1970.78907	0.12271
1966.93234	0.12237
1963.07561	0.12340
1959.21888	0.12452
1955.36215	0.12437
1951.50542	0.12373
1947.64869	0.12451
1943.79196	0.12617
1939.93523	0.12612
1936.07850	0.12448
1932.22177	0.12372
1928.36504	0.12433
1924.50831	0.12501
1920.65158	0.12548
1916.79485	0.12668
1912.93812	0.12795
1909.08139	0.12777
1905.22466	0.12685
1901.36793	0.12657
1897.51120	0.12619
1893.65447	0.12467
1889.79774	0.12343
1885.94101	0.12390
1882.08428	0.12481
1878.22755	0.12511
1874.37082	0.12490
1870.51409	0.12361
1866.65736	0.12170
1862.80063	0.12060
1858.94390	0.11956
1855.08717	0.11856
1851.23044	0.11924
1847.37371	0.12051
1843.51698	0.11962
1839.66025	0.11705
1835.80352	0.11498
1831.94679	0.11363
1828.09006	0.11312
1824.23333	0.11309
1820.37660	0.11217
1816.51986	0.10998
1812.66313	0.10705
1808.80640	0.10446
1804.94967	0.10318
1801.09294	0.10262
1797.23621	0.10114
1793.37948	0.09817
1789.52275	0.09582
1785.66602	0.09496
1781.80929	0.09355
1777.95256	0.09196
1774.09583	0.09163
1770.23910	0.09139
1766.38237	0.08976
1762.52564	0.08744
1758.66891	0.08676
1754.81218	0.08787
1750.95545	0.08843
1747.09872	0.08919
1743.24199	0.09138
1739.38526	0.09271
1735.52853	0.09213
1731.67180	0.09046
1727.81507	0.08905
1723.95834	0.08854
1720.10161	0.08662
1716.24488	0.08147
1712.38815	0.07764
1708.53142	0.07736
1704.67469	0.07599
1700.81796	0.07200
1696.96123	0.07119
1693.10450	0.07334
1689.24777	0.07395
1685.39104	0.07451
1681.53431	0.07550
1677.67758	0.07510
1673.82085	0.07538
1669.96412	0.07828
1666.10739	0.08209
1662.25066	0.08501
1658.39393	0.08681
1654.53720	0.08802
1650.68047	0.09136
1646.82374	0.09631
1642.96701	0.09916
1639.11028	0.09962
1635.25355	0.09938
1631.39682	0.09998
1627.54009	0.10158
1623.68336	0.10413
1619.82663	0.10579
1615.96990	0.10489
1612.11317	0.10375
1608.25644	0.10363
1604.39971	0.10323
1600.54298	0.10200
1596.68625	0.09978
1592.82952	0.09735
1588.97279	0.09536
1585.11606	0.09380
1581.25933	0.09410
1577.40260	0.09601
1573.54587	0.09680
1569.68914	0.09642
1565.83241	0.09588
1561.97568	0.09569
1558.11895	0.09714
1554.26222	0.09886
1550.40549	0.10122
1546.54876	0.10631
1542.69203	0.11020
1538.83530	0.10827
1534.97857	0.10750
1531.12184	0.11044
1527.26511	0.11315
1523.40838	0.11404
1519.55165	0.11422
1515.69492	0.11577
1511.83819	0.11848
1507.98146	0.11962
1504.12473	0.11749
1500.26800	0.11558
1496.41127	0.11676
1492.55454	0.11920
1488.69781	0.11787
1484.84108	0.11171
1480.98435	0.10570
1477.12762	0.10260
1473.27089	0.10137
1469.41416	0.10126
1465.55743	0.10326
1461.70070	0.10747
1457.84397	0.10991
1453.98724	0.10827
1450.13051	0.10833
1446.27378	0.11110
1442.41705	0.11174
1438.56032	0.10983
1434.70359	0.10910
1430.84686	0.10826
1426.99013	0.10511
1423.13340	0.10366
1419.27667	0.10589
1415.41994	0.10756
1411.56321	0.10830
1407.70648	0.11025
1403.84975	0.11092
1399.99302	0.10839
1396.13629	0.10417
1392.27956	0.10026
1388.42283	0.09959
1384.56610	0.10185
1380.70937	0.10397
1376.85264	0.10613
1372.99591	0.10624
1369.13918	0.10336
1365.28245	0.10296
1361.42572	0.10703
1357.56899	0.11158
1353.71226	0.11285
1349.85553	0.10997
1345.99880	0.10600
1342.14207	0.10364
1338.28534	0.10234
1334.42861	0.10196
1330.57188	0.10305
1326.71515	0.10356
1322.85842	0.10156
1319.00169	0.09909
1315.14496	0.09937
1311.28823	0.10332
1307.43150	0.10746
1303.57477	0.10889
1299.71804	0.10891
1295.86130	0.10799
1292.00457	0.10604
1288.14784	0.10422
1284.29111	0.10239
1280.43438	0.10165
1276.57765	0.10181
1272.72092	0.10157
1268.86419	0.10311
1265.00746	0.10663
1261.15073	0.10747
1257.29400	0.10515
1253.43727	0.10343
1249.58054	0.10116
1245.72381	0.09585
1241.86708	0.09021
1238.01035	0.08753
1234.15362	0.08581
1230.29689	0.08295
1226.44016	0.08351
1222.58343	0.09229
1218.72670	0.10196
1214.86997	0.10271
1211.01324	0.10022
1207.15651	0.10357
1203.29978	0.10977
1199.44305	0.11176
1195.58632	0.10769
1191.72959	0.09886
1187.87286	0.09334
1184.01613	0.09571
1180.15940	0.09956
1176.30267	0.10032
1172.44594	0.10014
1168.58921	0.10172
1164.73248	0.10375
1160.87575	0.10475
1157.01902	0.10500
1153.16229	0.10292
1149.30556	0.10097
1145.44883	0.10144
1141.59210	0.10071
1137.73537	0.09625
1133.87864	0.09176
1130.02191	0.09280
1126.16518	0.10082
1122.30845	0.10858
1118.45172	0.10875
1114.59499	0.10737
1110.73826	0.10918
1106.88153	0.10982
1103.02480	0.10640
1099.16807	0.10113
1095.31134	0.10080
1091.45461	0.10560
1087.59788	0.10633
1083.74115	0.09892
1079.88442	0.09096
1076.02769	0.08999
1072.17096	0.09557
1068.31423	0.10162
1064.45750	0.10383
1060.60077	0.10418
1056.74404	0.10399
1052.88731	0.10285
1049.03058	0.10101
1045.17385	0.09833
1041.31712	0.09673
1037.46039	0.09647
1033.60366	0.09540
1029.74693	0.09505
1025.89020	0.09835
1022.03347	0.10258
1018.17674	0.10446
1014.32001	0.10253
1010.46328	0.09790
1006.60655	0.09525
1002.74982	0.09559
998.89309	0.09478
995.03636	0.09196
991.17963	0.08998
987.32290	0.08750
983.46617	0.08434
979.60944	0.08365
975.75271	0.08351
971.89598	0.08231
968.03925	0.08390
964.18252	0.08788
960.32579	0.08838
956.46906	0.08576
952.61233	0.08557
948.75560	0.08811
944.89887	0.08938
941.04214	0.08886
937.18541	0.08755
933.32868	0.08712
929.47195	0.08853
925.61522	0.09157
921.75849	0.09522
917.90176	0.09596
914.04503	0.09280
910.18830	0.08822
906.33157	0.08359
902.47484	0.08029
898.61811	0.08393
894.76138	0.08912
890.90465	0.08486
887.04792	0.08112
883.19119	0.08809
879.33446	0.09585
875.47773	0.09739
871.62100	0.09383
867.76427	0.08714
863.90754	0.08422
860.05081	0.08654
856.19408	0.08623
852.33735	0.08469
848.48062	0.08611
844.62389	0.08949
840.76716	0.09264
836.91043	0.09054
833.05370	0.08406
829.19697	0.08395
825.34024	0.09208
821.48351	0.10100
817.62678	0.10437
813.77005	0.09928
809.91332	0.09094
806.05659	0.08520
802.19986	0.08331
798.34313	0.08275
794.48640	0.08270
790.62967	0.08588
786.77294	0.09187
782.91621	0.09480
779.05947	0.09126
775.20274	0.08604
771.34601	0.08494
767.48928	0.08878
763.63255	0.09376
759.77582	0.09568
755.91909	0.09693
752.06236	0.09964
748.20563	0.09985
744.34890	0.09280
740.49217	0.08457
736.63544	0.08406
732.77871	0.08846
728.92198	0.08784
725.06525	0.08118
721.20852	0.07716
717.35179	0.07882
713.49506	0.08111
709.63833	0.08288
705.78160	0.08648
701.92487	0.08704
698.06814	0.08205
694.21141	0.07638
690.35468	0.07585
686.49795	0.08369
682.64122	0.09373
678.78449	0.09869
674.92776	0.09692
671.07103	0.08947
667.21430	0.07762
663.35757	0.07439
659.50084	0.08389
655.64411	0.09560
651.78738	0.10293
647.93065	0.10782
644.07392	0.10658
640.21719	0.09869
636.36046	0.09737
632.50373	0.10605
628.64700	0.11096
624.79027	0.10342
620.93354	0.09590
617.07681	0.09839
613.22008	0.09637
609.36335	0.08646
605.50662	0.08637
601.64989	0.09271
597.79316	0.09308
