3995.57236	0.23497
3991.71563	0.23442
3987.85890	0.23570
3984.00217	0.23785
3980.14544	0.24065
3976.28871	0.24355
3972.43198	0.24700
3968.57525	0.24974
3964.71852	0.24895
3960.86179	0.24630
3957.00506	0.24592
3953.14833	0.24719
3949.29160	0.24639
3945.43487	0.24434
3941.57814	0.24527
3937.72141	0.24799
3933.86468	0.24969
3930.00795	0.25201
3926.15122	0.25479
3922.29449	0.25544
3918.43776	0.25529
3914.58103	0.25668
3910.72430	0.25884
3906.86757	0.26052
3903.01084	0.26111
3899.15411	0.26148
3895.29737	0.26293
3891.44064	0.26606
3887.58391	0.27044
3883.72718	0.27080
3879.87045	0.26568
3876.01372	0.26262
3872.15699	0.26397
3868.30026	0.26601
3864.44353	0.26802
3860.58680	0.27222
3856.73007	0.27802
3852.87334	0.28067
3849.01661	0.27770
3845.15988	0.27589
3841.30315	0.28090
3837.44642	0.29029
3833.58969	0.29283
3829.73296	0.28640
3825.87623	0.27959
3822.01950	0.27811
3818.16277	0.27945
3814.30604	0.27978
3810.44931	0.28203
3806.59258	0.28624
3802.73585	0.28686
3798.87912	0.28254
3795.02239	0.27873
3791.16566	0.27734
3787.30893	0.27748
3783.45220	0.27867
3779.59547	0.27912
3775.73874	0.27786
3771.88201	0.27617
3768.02528	0.27544
3764.16855	0.27529
3760.31182	0.27355
3756.45509	0.27036
3752.59836	0.26830
3748.74163	0.26747
3744.88490	0.26704
3741.02817	0.26837
3737.17144	0.26832
3733.31471	0.26226
3729.45798	0.25567
3725.60125	0.25299
3721.74452	0.25075
3717.88779	0.24858
3714.03106	0.24797
3710.17433	0.24592
3706.31760	0.23867
3702.46087	0.22796
3698.60414	0.21805
3694.74741	0.21070
3690.89068	0.20267
3687.03395	0.19255
3683.17722	0.18467
3679.32049	0.17851
3675.46376	0.17140
3671.60703	0.16359
3667.75030	0.15444
3663.89357	0.14401
3660.03684	0.13462
3656.18011	0.12573
3652.32338	0.11564
3648.46665	0.10933
3644.60992	0.11109
3640.75319	0.11286
3636.89646	0.11099
3633.03973	0.10856
3629.18300	0.10447
3625.32627	0.09719
3621.46954	0.09194
3617.61281	0.08911
3613.75608	0.08543
3609.89935	0.08308
3606.04262	0.08337
3602.18589	0.08267
3598.32916	0.08069
3594.47243	0.07961
3590.61570	0.08006
3586.75897	0.08066
3582.90224	0.07909
3579.04551	0.07567
3575.18878	0.07209
3571.33205	0.06926
3567.47532	0.07088
3563.61859	0.07663
3559.76186	0.07792
3555.90513	0.07519
3552.04840	0.07425
3548.19167	0.07376
3544.33494	0.07147
3540.47821	0.07060
3536.62148	0.07252
3532.76475	0.07521
3528.90802	0.07678
3525.05129	0.07535
3521.19456	0.07090
3517.33783	0.06606
3513.48110	0.06376
3509.62437	0.06693
3505.76764	0.07228
3501.91091	0.07281
3498.05418	0.07040
3494.19745	0.06915
3490.34072	0.06788
3486.48399	0.06798
3482.62726	0.07147
3478.77053	0.07350
3474.91380	0.07138
3471.05707	0.06908
3467.20034	0.06781
3463.34361	0.06811
3459.48688	0.07099
3455.63015	0.07350
3451.77342	0.07298
3447.91669	0.07039
3444.05996	0.06813
3440.20323	0.06864
3436.34650	0.07095
3432.48977	0.06885
3428.63304	0.06260
3424.77631	0.05902
3420.91958	0.05913
3417.06285	0.05943
3413.20612	0.06124
3409.34939	0.06594
3405.49266	0.06843
3401.63593	0.06573
3397.77920	0.06277
3393.92247	0.06206
3390.06574	0.06266
3386.20901	0.06384
3382.35228	0.06418
3378.49555	0.06594
3374.63881	0.07155
3370.78208	0.07399
3366.92535	0.06961
3363.06862	0.06695
3359.21189	0.06753
3355.35516	0.06627
3351.49843	0.06509
3347.64170	0.06330
3343.78497	0.06163
3339.92824	0.06240
3336.07151	0.06268
3332.21478	0.06208
3328.35805	0.06461
3324.50132	0.06793
3320.64459	0.06833
3316.78786	0.06514
3312.93113	0.06271
3309.07440	0.06415
3305.21767	0.06692
3301.36094	0.07012
3297.50421	0.07161
3293.64748	0.06612
3289.79075	0.05886
3285.93402	0.06006
3282.07729	0.06787
3278.22056	0.07148
3274.36383	0.06780
3270.50710	0.06428
3266.65037	0.06737
3262.79364	0.07164
3258.93691	0.07037
3255.08018	0.06621
3251.22345	0.06412
3247.36672	0.06455
3243.50999	0.06682
3239.65326	0.07253
3235.79653	0.07955
3231.93980	0.07917
3228.08307	0.07283
3224.22634	0.07073
3220.36961	0.07337
3216.51288	0.07448
3212.65615	0.07211
3208.79942	0.07034
3204.94269	0.07214
3201.08596	0.07186
3197.22923	0.06523
3193.37250	0.05836
3189.51577	0.05912
3185.65904	0.06704
3181.80231	0.07448
3177.94558	0.07610
3174.08885	0.07192
3170.23212	0.06501
3166.37539	0.06240
3162.51866	0.06734
3158.66193	0.07292
3154.80520	0.07336
3150.94847	0.07143
3147.09174	0.07027
3143.23501	0.06952
3139.37828	0.06915
3135.52155	0.07017
3131.66482	0.07149
3127.80809	0.07155
3123.95136	0.07134
3120.09463	0.07132
3116.23790	0.06998
3112.38117	0.06893
3108.52444	0.07051
3104.66771	0.07217
3100.81098	0.07108
3096.95425	0.06857
3093.09752	0.06762
3089.24079	0.06868
3085.38406	0.07034
3081.52733	0.07162
3077.67060	0.07266
3073.81387	0.07296
3069.95714	0.07209
3066.10041	0.07216
3062.24368	0.07314
3058.38695	0.07393
3054.53022	0.07574
3050.67349	0.07764
3046.81676	0.07745
3042.96003	0.07666
3039.10330	0.07749
3035.24657	0.07879
3031.38984	0.07892
3027.53311	0.07621
3023.67638	0.07284
3019.81965	0.07300
3015.96292	0.07631
3012.10619	0.07962
3008.24946	0.08130
3004.39273	0.08073
3000.53600	0.07826
2996.67927	0.07461
2992.82254	0.07046
2988.96581	0.06755
2985.10908	0.06623
2981.25235	0.06455
2977.39562	0.06425
2973.53889	0.06640
2969.68216	0.06999
2965.82543	0.07429
2961.96870	0.07685
2958.11197	0.07720
2954.25524	0.07358
2950.39851	0.06762
2946.54178	0.06468
2942.68505	0.06396
2938.82832	0.06558
2934.97159	0.07039
2931.11486	0.07520
2927.25813	0.08069
2923.40140	0.09171
2919.54467	0.10828
2915.68794	0.11895
2911.83121	0.11499
2907.97448	0.10219
2904.11775	0.09083
2900.26102	0.08654
2896.40429	0.08793
2892.54756	0.09069
2888.69083	0.09172
2884.83410	0.09089
2880.97737	0.08959
2877.12064	0.08779
2873.26391	0.08571
2869.40718	0.08460
2865.55045	0.08260
2861.69372	0.08007
2857.83698	0.08265
2853.98025	0.09179
2850.12352	0.10241
2846.26679	0.10883
2842.41006	0.10949
2838.55333	0.10704
2834.69660	0.10285
2830.83987	0.09726
2826.98314	0.09272
2823.12641	0.09109
2819.26968	0.09216
2815.41295	0.09332
2811.55622	0.09395
2807.69949	0.09523
2803.84276	0.09514
2799.98603	0.09399
2796.12930	0.09547
2792.27257	0.09856
2788.41584	0.09804
2784.55911	0.09391
2780.70238	0.09210
2776.84565	0.09439
2772.98892	0.09726
2769.13219	0.09858
2765.27546	0.09822
2761.41873	0.09811
2757.56200	0.09941
2753.70527	0.09937
2749.84854	0.09732
2745.99181	0.09648
2742.13508	0.09772
2738.27835	0.09831
2734.42162	0.09865
2730.56489	0.10114
2726.70816	0.10321
2722.85143	0.10145
2718.99470	0.09896
2715.13797	0.09935
2711.28124	0.10037
2707.42451	0.09991
2703.56778	0.09971
2699.71105	0.10036
2695.85432	0.10046
2691.99759	0.10111
2688.14086	0.10248
2684.28413	0.10224
2680.42740	0.10199
2676.57067	0.10382
2672.71394	0.10518
2668.85721	0.10496
2665.00048	0.10513
2661.14375	0.10563
2657.28702	0.10504
2653.43029	0.10476
2649.57356	0.10617
2645.71683	0.10734
2641.86010	0.10669
2638.00337	0.10528
2634.14664	0.10471
2630.28991	0.10657
2626.43318	0.11027
2622.57645	0.11255
2618.71972	0.11203
2614.86299	0.10977
2611.00626	0.10804
2607.14953	0.10939
2603.29280	0.11252
2599.43607	0.11382
2595.57934	0.11274
2591.72261	0.11152
2587.86588	0.11056
2584.00915	0.10952
2580.15242	0.11017
2576.29569	0.11207
2572.43896	0.11340
2568.58223	0.11477
2564.72550	0.11566
2560.86877	0.11529
2557.01204	0.11608
2553.15531	0.11845
2549.29858	0.11947
2545.44185	0.11939
2541.58512	0.11938
2537.72839	0.11901
2533.87166	0.11950
2530.01493	0.12067
2526.15820	0.12016
2522.30147	0.11799
2518.44474	0.11692
2514.58801	0.11841
2510.73128	0.11989
2506.87455	0.11958
2503.01782	0.11945
2499.16109	0.12071
2495.30436	0.12176
2491.44763	0.12196
2487.59090	0.12264
2483.73417	0.12332
2479.87744	0.12281
2476.02071	0.12220
2472.16398	0.12334
2468.30725	0.12619
2464.45052	0.12815
2460.59379	0.12768
2456.73706	0.12644
2452.88033	0.12628
2449.02360	0.12726
2445.16687	0.12848
2441.31014	0.13001
2437.45341	0.13164
2433.59668	0.13171
2429.73995	0.13056
2425.88322	0.13028
2422.02649	0.13072
2418.16976	0.13079
2414.31303	0.13138
2410.45630	0.13267
2406.59957	0.13290
2402.74284	0.13306
2398.88611	0.13470
2395.02938	0.13560
2391.17265	0.13497
2387.31592	0.13453
2383.45919	0.13425
2379.60246	0.13373
2375.74573	0.13437
2371.88900	0.13853
2368.03227	0.14572
2364.17554	0.14752
2360.31881	0.13822
2356.46208	0.13318
2352.60535	0.13927
2348.74862	0.14475
2344.89189	0.14508
2341.03516	0.14461
2337.17842	0.14623
2333.32169	0.14614
2329.46496	0.14414
2325.60823	0.14217
2321.75150	0.14149
2317.89477	0.14201
2314.03804	0.14182
2310.18131	0.14086
2306.32458	0.14099
2302.46785	0.14255
2298.61112	0.14426
2294.75439	0.14580
2290.89766	0.14662
2287.04093	0.14503
2283.18420	0.14272
2279.32747	0.14315
2275.47074	0.14466
2271.61401	0.14405
2267.75728	0.14342
2263.90055	0.14478
2260.04382	0.14597
2256.18709	0.14529
2252.33036	0.14393
2248.47363	0.14443
2244.61690	0.14627
2240.76017	0.14655
2236.90344	0.14540
2233.04671	0.14450
2229.18998	0.14480
2225.33325	0.14623
2221.47652	0.14727
2217.61979	0.14752
2213.76306	0.14746
2209.90633	0.14661
2206.04960	0.14502
2202.19287	0.14257
2198.33614	0.14005
2194.47941	0.13991
2190.62268	0.14091
2186.76595	0.14058
2182.90922	0.14028
2179.05249	0.14114
2175.19576	0.14219
2171.33903	0.14202
2167.48230	0.14081
2163.62557	0.14014
2159.76884	0.14005
2155.91211	0.13960
2152.05538	0.13924
2148.19865	0.14030
2144.34192	0.14173
2140.48519	0.14131
2136.62846	0.14039
2132.77173	0.14064
2128.91500	0.14056
2125.05827	0.13929
2121.20154	0.13792
2117.34481	0.13793
2113.48808	0.14012
2109.63135	0.14255
2105.77462	0.14265
2101.91789	0.14168
2098.06116	0.14202
2094.20443	0.14300
2090.34770	0.14311
2086.49097	0.14230
2082.63424	0.14106
2078.77751	0.14038
2074.92078	0.14071
2071.06405	0.14114
2067.20732	0.14173
2063.35059	0.14273
2059.49386	0.14287
2055.63713	0.14227
2051.78040	0.14260
2047.92367	0.14297
2044.06694	0.14218
2040.21021	0.14245
2036.35348	0.14480
2032.49675	0.14651
2028.64002	0.14596
2024.78329	0.14427
2020.92656	0.14274
2017.06983	0.14219
2013.21310	0.14278
2009.35637	0.14401
2005.49964	0.14566
2001.64291	0.14693
1997.78618	0.14752
1993.92945	0.14822
1990.07272	0.14810
1986.21599	0.14671
1982.35926	0.14575
1978.50253	0.14544
1974.64580	0.14518
1970.78907	0.14537
1966.93234	0.14555
1963.07561	0.14506
1959.21888	0.14469
1955.36215	0.14517
1951.50542	0.14595
1947.64869	0.14569
1943.79196	0.14481
1939.93523	0.14480
1936.07850	0.14470
1932.22177	0.14421
1928.36504	0.14526
1924.50831	0.14719
1920.65158	0.14771
1916.79485	0.14704
1912.93812	0.14639
1909.08139	0.14547
1905.22466	0.14449
1901.36793	0.14438
1897.51120	0.14524
1893.65447	0.14655
1889.79774	0.14732
1885.94101	0.14682
1882.08428	0.14576
1878.22755	0.14554
1874.37082	0.14653
1870.51409	0.14717
1866.65736	0.14580
1862.80063	0.14336
1858.94390	0.14143
1855.08717	0.14013
1851.23044	0.13949
1847.37371	0.13997
1843.51698	0.14043
1839.66025	0.13943
1835.80352	0.13784
1831.94679	0.13648
1828.09006	0.13536
1824.23333	0.13398
1820.37660	0.13166
1816.51986	0.12876
1812.66313	0.12629
1808.80640	0.12544
1804.94967	0.12542
1801.09294	0.12372
1797.23621	0.12032
1793.37948	0.11699
1789.52275	0.11509
1785.66602	0.11486
1781.80929	0.11430
1777.95256	0.11195
1774.09583	0.10878
1770.23910	0.10559
1766.38237	0.10239
1762.52564	0.09885
1758.66891	0.09508
1754.81218	0.09222
1750.95545	0.09002
1747.09872	0.08811
1743.24199	0.08666
1739.38526	0.08469
1735.52853	0.08258
1731.67180	0.07959
1727.81507	0.07441
1723.95834	0.07110
1720.10161	0.07175
1716.24488	0.07241
1712.38815	0.07078
1708.53142	0.06776
1704.67469	0.06249
1700.81796	0.05728
1696.96123	0.05848
1693.10450	0.06280
1689.24777	0.06401
1685.39104	0.06255
1681.53431	0.06008
1677.67758	0.05780
1673.82085	0.05746
1669.96412	0.05977
1666.10739	0.06303
1662.25066	0.06493
1658.39393	0.06458
1654.53720	0.06343
1650.68047	0.06422
1646.82374	0.06426
1642.96701	0.05956
1639.11028	0.05597
1635.25355	0.06030
1631.39682	0.06869
1627.54009	0.07289
1623.68336	0.07425
1619.82663	0.07420
1615.96990	0.07060
1612.11317	0.06607
1608.25644	0.06623
1604.39971	0.07046
1600.54298	0.07276
1596.68625	0.07188
1592.82952	0.07043
1588.97279	0.06993
1585.11606	0.07003
1581.25933	0.06919
1577.40260	0.06715
1573.54587	0.06557
1569.68914	0.06502
1565.83241	0.06420
1561.97568	0.06434
1558.11895	0.06724
1554.26222	0.07181
1550.40549	0.07560
1546.54876	0.07781
1542.69203	0.07847
1538.83530	0.07786
1534.97857	0.07761
1531.12184	0.07905
1527.26511	0.08036
1523.40838	0.07931
1519.55165	0.07800
1515.69492	0.07919
1511.83819	0.08039
1507.98146	0.07908
1504.12473	0.07785
1500.26800	0.07895
1496.41127	0.08056
1492.55454	0.08188
1488.69781	0.08198
1484.84108	0.07993
1480.98435	0.07771
1477.12762	0.07781
1473.27089	0.07838
1469.41416	0.07652
1465.55743	0.07666
1461.70070	0.08105
1457.84397	0.08419
1453.98724	0.08232
1450.13051	0.08038
1446.27378	0.07996
1442.41705	0.07783
1438.56032	0.07454
1434.70359	0.07384
1430.84686	0.07506
1426.99013	0.07600
1423.13340	0.07762
1419.27667	0.07936
1415.41994	0.07888
1411.56321	0.07527
1407.70648	0.07079
1403.84975	0.06786
1399.99302	0.06849
1396.13629	0.07328
1392.27956	0.07877
1388.42283	0.08036
1384.56610	0.07809
1380.70937	0.07533
1376.85264	0.07340
1372.99591	0.07169
1369.13918	0.07174
1365.28245	0.07382
1361.42572	0.07395
1357.56899	0.07170
1353.71226	0.07014
1349.85553	0.07100
1345.99880	0.07254
1342.14207	0.07223
1338.28534	0.07212
1334.42861	0.07431
1330.57188	0.07561
1326.71515	0.07430
1322.85842	0.07300
1319.00169	0.07323
1315.14496	0.07244
1311.28823	0.06984
1307.43150	0.06876
1303.57477	0.06986
1299.71804	0.07088
1295.86130	0.07107
1292.00457	0.07020
1288.14784	0.06985
1284.29111	0.07092
1280.43438	0.06978
1276.57765	0.06796
1272.72092	0.06988
1268.86419	0.07247
1265.00746	0.07233
1261.15073	0.07057
1257.29400	0.06793
1253.43727	0.06432
1249.58054	0.06330
1245.72381	0.06737
1241.86708	0.07339
1238.01035	0.07674
1234.15362	0.07703
1230.29689	0.07736
1226.44016	0.07630
1222.58343	0.07241
1218.72670	0.06851
1214.86997	0.06648
1211.01324	0.06830
1207.15651	0.07254
1203.29978	0.07397
1199.44305	0.07218
1195.58632	0.07183
1191.72959	0.07383
1187.87286	0.07633
1184.01613	0.07798
1180.15940	0.07771
1176.30267	0.07864
1172.44594	0.08059
1168.58921	0.07809
1164.73248	0.07099
1160.87575	0.06587
1157.01902	0.06694
1153.16229	0.07255
1149.30556	0.08018
1145.44883	0.08506
1141.59210	0.08708
1137.73537	0.08822
1133.87864	0.08682
1130.02191	0.08009
1126.16518	0.07353
1122.30845	0.07188
1118.45172	0.07008
1114.59499	0.06491
1110.73826	0.06370
1106.88153	0.06901
1103.02480	0.07482
1099.16807	0.07815
1095.31134	0.07851
1091.45461	0.07556
1087.59788	0.07081
1083.74115	0.06489
1079.88442	0.06058
1076.02769	0.06421
1072.17096	0.06817
1068.31423	0.06813
1064.45750	0.06990
1060.60077	0.07083
1056.74404	0.07173
1052.88731	0.07789
1049.03058	0.08458
1045.17385	0.08596
1041.31712	0.08653
1037.46039	0.08817
1033.60366	0.08653
1029.74693	0.08238
1025.89020	0.07843
1022.03347	0.07206
1018.17674	0.06435
1014.32001	0.06196
1010.46328	0.06483
1006.60655	0.06863
1002.74982	0.07373
998.89309	0.07743
995.03636	0.07457
991.17963	0.06956
987.32290	0.07172
983.46617	0.07964
979.60944	0.08382
975.75271	0.08177
971.89598	0.07933
968.03925	0.08044
964.18252	0.08210
960.32579	0.07809
956.46906	0.06986
952.61233	0.06746
948.75560	0.07084
944.89887	0.07056
941.04214	0.06860
937.18541	0.07111
933.32868	0.07413
929.47195	0.07432
925.61522	0.07371
921.75849	0.07347
917.90176	0.07646
914.04503	0.08250
910.18830	0.08601
906.33157	0.08207
902.47484	0.07440
898.61811	0.06783
894.76138	0.06462
890.90465	0.06528
887.04792	0.06941
883.19119	0.07859
879.33446	0.08842
875.47773	0.09030
871.62100	0.08801
867.76427	0.09029
863.90754	0.09309
860.05081	0.08867
856.19408	0.07850
852.33735	0.07173
848.48062	0.07054
844.62389	0.07099
840.76716	0.07333
836.91043	0.07771
833.05370	0.07787
829.19697	0.07204
825.34024	0.07159
821.48351	0.08047
817.62678	0.08621
813.77005	0.08865
809.91332	0.09140
806.05659	0.08990
802.19986	0.08146
798.34313	0.07100
794.48640	0.06521
790.62967	0.06592
786.77294	0.06698
782.91621	0.06895
779.05947	0.07525
775.20274	0.08243
771.34601	0.08552
767.48928	0.08487
763.63255	0.08320
759.77582	0.08063
755.91909	0.07720
752.06236	0.07220
748.20563	0.06896
744.34890	0.07066
740.49217	0.07055
736.63544	0.06678
732.77871	0.06681
728.92198	0.07285
725.06525	0.07991
721.20852	0.08356
717.35179	0.07963
713.49506	0.07137
709.63833	0.07124
705.78160	0.08298
701.92487	0.09436
698.06814	0.09489
694.21141	0.08447
690.35468	0.07475
686.49795	0.07391
682.64122	0.07302
678.78449	0.06877
674.92776	0.06521
671.07103	0.06612
667.21430	0.06784
663.35757	0.06150
659.50084	0.06217
655.64411	0.07228
651.78738	0.08017
647.93065	0.07886
644.07392	0.07127
640.21719	0.06202
636.36046	0.05927
632.50373	0.06804
628.64700	0.07769
624.79027	0.08111
620.93354	0.08957
617.07681	0.10186
613.22008	0.10202
609.36335	0.09457
605.50662	0.09038
601.64989	0.08923
597.79316	0.08722
