3995.57236	0.22053
3991.71563	0.21758
3987.85890	0.21825
3984.00217	0.22225
3980.14544	0.22329
3976.28871	0.22072
3972.43198	0.21826
3968.57525	0.21762
3964.71852	0.21746
3960.86179	0.21780
3957.00506	0.22033
3953.14833	0.22433
3949.29160	0.22769
3945.43487	0.22905
3941.57814	0.22985
3937.72141	0.23192
3933.86468	0.23330
3930.00795	0.23302
3926.15122	0.23317
3922.29449	0.23365
3918.43776	0.23336
3914.58103	0.23231
3910.72430	0.23037
3906.86757	0.23170
3903.01084	0.23999
3899.15411	0.24813
3895.29737	0.24875
3891.44064	0.24391
3887.58391	0.23886
3883.72718	0.23739
3879.87045	0.23901
3876.01372	0.24195
3872.15699	0.24436
3868.30026	0.24513
3864.44353	0.24619
3860.58680	0.24978
3856.73007	0.25347
3852.87334	0.25298
3849.01661	0.25107
3845.15988	0.25062
3841.30315	0.24956
3837.44642	0.24919
3833.58969	0.25106
3829.73296	0.25297
3825.87623	0.25538
3822.01950	0.25912
3818.16277	0.26032
3814.30604	0.25768
3810.44931	0.25553
3806.59258	0.25426
3802.73585	0.25242
3798.87912	0.24998
3795.02239	0.24786
3791.16566	0.24840
3787.30893	0.25129
3783.45220	0.25411
3779.59547	0.25611
3775.73874	0.25521
3771.88201	0.25119
3768.02528	0.24869
3764.16855	0.24788
3760.31182	0.24522
3756.45509	0.24205
3752.59836	0.24189
3748.74163	0.24536
3744.88490	0.24661
3741.02817	0.24080
3737.17144	0.23330
3733.31471	0.23086
3729.45798	0.23173
3725.60125	0.23066
3721.74452	0.22829
3717.88779	0.22554
3714.03106	0.22141
3710.17433	0.21756
3706.31760	0.21342
3702.46087	0.20493
3698.60414	0.19669
3694.74741	0.19464
3690.89068	0.19356
3687.03395	0.18668
3683.17722	0.17710
3679.32049	0.16801
3675.46376	0.15733
3671.60703	0.14518
3667.75030	0.13724
3663.89357	0.13443
3660.03684	0.13162
3656.18011	0.12680
3652.32338	0.12213
3648.46665	0.11799
3644.60992	0.11412
3640.75319	0.11081
3636.89646	0.10772
3633.03973	0.10561
3629.18300	0.10443
3625.32627	0.10264
3621.46954	0.10108
3617.61281	0.10204
3613.75608	0.10233
3609.89935	0.09780
3606.04262	0.09473
3602.18589	0.09839
3598.32916	0.10127
3594.47243	0.09648
3590.61570	0.08997
3586.75897	0.09111
3582.90224	0.09688
3579.04551	0.09875
3575.18878	0.09710
3571.33205	0.09587
3567.47532	0.09508
3563.61859	0.09534
3559.76186	0.09667
3555.90513	0.09639
3552.04840	0.09539
3548.19167	0.09334
3544.33494	0.08911
3540.47821	0.08790
3536.62148	0.09152
3532.76475	0.09381
3528.90802	0.09090
3525.05129	0.08566
3521.19456	0.08444
3517.33783	0.08730
3513.48110	0.08816
3509.62437	0.08574
3505.76764	0.08429
3501.91091	0.08649
3498.05418	0.08968
3494.19745	0.09079
3490.34072	0.09220
3486.48399	0.09473
3482.62726	0.09404
3478.77053	0.08847
3474.91380	0.08187
3471.05707	0.07858
3467.20034	0.07927
3463.34361	0.07958
3459.48688	0.07655
3455.63015	0.07339
3451.77342	0.07524
3447.91669	0.08368
3444.05996	0.09234
3440.20323	0.09379
3436.34650	0.08952
3432.48977	0.08617
3428.63304	0.08641
3424.77631	0.08778
3420.91958	0.08668
3417.06285	0.08469
3413.20612	0.08697
3409.34939	0.09167
3405.49266	0.09052
3401.63593	0.08581
3397.77920	0.08553
3393.92247	0.08748
3390.06574	0.08762
3386.20901	0.08658
3382.35228	0.08509
3378.49555	0.08471
3374.63881	0.08598
3370.78208	0.08684
3366.92535	0.08574
3363.06862	0.08421
3359.21189	0.08547
3355.35516	0.08858
3351.49843	0.08928
3347.64170	0.08833
3343.78497	0.08839
3339.92824	0.08720
3336.07151	0.08415
3332.21478	0.08152
3328.35805	0.08090
3324.50132	0.08277
3320.64459	0.08544
3316.78786	0.08616
3312.93113	0.08548
3309.07440	0.08386
3305.21767	0.08097
3301.36094	0.07917
3297.50421	0.08115
3293.64748	0.08460
3289.79075	0.08517
3285.93402	0.08575
3282.07729	0.08986
3278.22056	0.09267
3274.36383	0.09292
3270.50710	0.09469
3266.65037	0.09750
3262.79364	0.09841
3258.93691	0.09710
3255.08018	0.09495
3251.22345	0.09502
3247.36672	0.09878
3243.50999	0.10130
3239.65326	0.09812
3235.79653	0.09312
3231.93980	0.09152
3228.08307	0.09263
3224.22634	0.09461
3220.36961	0.09608
3216.51288	0.09618
3212.65615	0.09610
3208.79942	0.09615
3204.94269	0.09547
3201.08596	0.09421
3197.22923	0.09395
3193.37250	0.09502
3189.51577	0.09650
3185.65904	0.09885
3181.80231	0.10021
3177.94558	0.09996
3174.08885	0.10091
3170.23212	0.10115
3166.37539	0.09828
3162.51866	0.09552
3158.66193	0.09530
3154.80520	0.09577
3150.94847	0.09445
3147.09174	0.09224
3143.23501	0.09320
3139.37828	0.09686
3135.52155	0.09754
3131.66482	0.09431
3127.80809	0.09159
3123.95136	0.09122
3120.09463	0.09283
3116.23790	0.09544
3112.38117	0.09671
3108.52444	0.09541
3104.66771	0.09350
3100.81098	0.09212
3096.95425	0.09276
3093.09752	0.09514
3089.24079	0.09620
3085.38406	0.09596
3081.52733	0.09781
3077.67060	0.10147
3073.81387	0.10316
3069.95714	0.10072
3066.10041	0.09778
3062.24368	0.09843
3058.38695	0.09912
3054.53022	0.09669
3050.67349	0.09516
3046.81676	0.09459
3042.96003	0.09314
3039.10330	0.09492
3035.24657	0.09990
3031.38984	0.10131
3027.53311	0.09926
3023.67638	0.09916
3019.81965	0.10015
3015.96292	0.09870
3012.10619	0.09746
3008.24946	0.09947
3004.39273	0.10086
3000.53600	0.09789
2996.67927	0.09430
2992.82254	0.09519
2988.96581	0.09935
2985.10908	0.10316
2981.25235	0.10483
2977.39562	0.10524
2973.53889	0.10673
2969.68216	0.10724
2965.82543	0.10305
2961.96870	0.09914
2958.11197	0.10037
2954.25524	0.10206
2950.39851	0.10152
2946.54178	0.10169
2942.68505	0.10108
2938.82832	0.09829
2934.97159	0.09746
2931.11486	0.09969
2927.25813	0.10028
2923.40140	0.10090
2919.54467	0.10575
2915.68794	0.10940
2911.83121	0.10551
2907.97448	0.09751
2904.11775	0.09328
2900.26102	0.09458
2896.40429	0.09916
2892.54756	0.10339
2888.69083	0.10486
2884.83410	0.10362
2880.97737	0.10156
2877.12064	0.10194
2873.26391	0.10396
2869.40718	0.10365
2865.55045	0.10220
2861.69372	0.10161
2857.83698	0.10210
2853.98025	0.10462
2850.12352	0.10670
2846.26679	0.10620
2842.41006	0.10530
2838.55333	0.10505
2834.69660	0.10563
2830.83987	0.10690
2826.98314	0.10777
2823.12641	0.10777
2819.26968	0.10822
2815.41295	0.11043
2811.55622	0.11187
2807.69949	0.10964
2803.84276	0.10515
2799.98603	0.10190
2796.12930	0.10230
2792.27257	0.10432
2788.41584	0.10400
2784.55911	0.10233
2780.70238	0.10264
2776.84565	0.10416
2772.98892	0.10403
2769.13219	0.10263
2765.27546	0.10184
2761.41873	0.10204
2757.56200	0.10344
2753.70527	0.10503
2749.84854	0.10584
2745.99181	0.10734
2742.13508	0.10976
2738.27835	0.11067
2734.42162	0.10942
2730.56489	0.10798
2726.70816	0.10813
2722.85143	0.11006
2718.99470	0.11168
2715.13797	0.11076
2711.28124	0.10934
2707.42451	0.10956
2703.56778	0.10932
2699.71105	0.10817
2695.85432	0.10802
2691.99759	0.10822
2688.14086	0.10880
2684.28413	0.11060
2680.42740	0.11207
2676.57067	0.11231
2672.71394	0.11232
2668.85721	0.11260
2665.00048	0.11399
2661.14375	0.11535
2657.28702	0.11437
2653.43029	0.11185
2649.57356	0.11021
2645.71683	0.10980
2641.86010	0.11064
2638.00337	0.11326
2634.14664	0.11632
2630.28991	0.11769
2626.43318	0.11706
2622.57645	0.11541
2618.71972	0.11337
2614.86299	0.11218
2611.00626	0.11263
2607.14953	0.11342
2603.29280	0.11421
2599.43607	0.11494
2595.57934	0.11478
2591.72261	0.11463
2587.86588	0.11533
2584.00915	0.11644
2580.15242	0.11713
2576.29569	0.11715
2572.43896	0.11777
2568.58223	0.11901
2564.72550	0.11871
2560.86877	0.11638
2557.01204	0.11407
2553.15531	0.11401
2549.29858	0.11648
2545.44185	0.11926
2541.58512	0.12032
2537.72839	0.11988
2533.87166	0.11852
2530.01493	0.11682
2526.15820	0.11633
2522.30147	0.11751
2518.44474	0.11947
2514.58801	0.12124
2510.73128	0.12203
2506.87455	0.12261
2503.01782	0.12383
2499.16109	0.12409
2495.30436	0.12321
2491.44763	0.12294
2487.59090	0.12300
2483.73417	0.12274
2479.87744	0.12294
2476.02071	0.12446
2472.16398	0.12646
2468.30725	0.12662
2464.45052	0.12534
2460.59379	0.12495
2456.73706	0.12565
2452.88033	0.12695
2449.02360	0.12786
2445.16687	0.12766
2441.31014	0.12832
2437.45341	0.13049
2433.59668	0.13185
2429.73995	0.13185
2425.88322	0.13164
2422.02649	0.13062
2418.16976	0.12834
2414.31303	0.12650
2410.45630	0.12699
2406.59957	0.12991
2402.74284	0.13287
2398.88611	0.13358
2395.02938	0.13288
2391.17265	0.13270
2387.31592	0.13331
2383.45919	0.13458
2379.60246	0.13700
2375.74573	0.13935
2371.88900	0.13828
2368.03227	0.13493
2364.17554	0.13664
2360.31881	0.14564
2356.46208	0.15238
2352.60535	0.15032
2348.74862	0.14395
2344.89189	0.13657
2341.03516	0.13026
2337.17842	0.12879
2333.32169	0.12843
2329.46496	0.12652
2325.60823	0.12715
2321.75150	0.12959
2317.89477	0.13281
2314.03804	0.13737
2310.18131	0.14043
2306.32458	0.14137
2302.46785	0.14126
2298.61112	0.14057
2294.75439	0.14083
2290.89766	0.14260
2287.04093	0.14451
2283.18420	0.14580
2279.32747	0.14666
2275.47074	0.14657
2271.61401	0.14539
2267.75728	0.14489
2263.90055	0.14577
2260.04382	0.14611
2256.18709	0.14518
2252.33036	0.14502
2248.47363	0.14635
2244.61690	0.14729
2240.76017	0.14680
2236.90344	0.14588
2233.04671	0.14562
2229.18998	0.14580
2225.33325	0.14514
2221.47652	0.14334
2217.61979	0.14234
2213.76306	0.14320
2209.90633	0.14423
2206.04960	0.14444
2202.19287	0.14397
2198.33614	0.14283
2194.47941	0.14230
2190.62268	0.14262
2186.76595	0.14251
2182.90922	0.14248
2179.05249	0.14241
2175.19576	0.14128
2171.33903	0.14028
2167.48230	0.14003
2163.62557	0.13944
2159.76884	0.13854
2155.91211	0.13778
2152.05538	0.13720
2148.19865	0.13645
2144.34192	0.13493
2140.48519	0.13429
2136.62846	0.13671
2132.77173	0.14002
2128.91500	0.14147
2125.05827	0.14131
2121.20154	0.14033
2117.34481	0.13959
2113.48808	0.13962
2109.63135	0.14049
2105.77462	0.14237
2101.91789	0.14349
2098.06116	0.14271
2094.20443	0.14150
2090.34770	0.14095
2086.49097	0.14078
2082.63424	0.14022
2078.77751	0.13874
2074.92078	0.13724
2071.06405	0.13690
2067.20732	0.13768
2063.35059	0.13855
2059.49386	0.13891
2055.63713	0.13961
2051.78040	0.14120
2047.92367	0.14237
2044.06694	0.14257
2040.21021	0.14288
2036.35348	0.14353
2032.49675	0.14379
2028.64002	0.14307
2024.78329	0.14182
2020.92656	0.14111
2017.06983	0.14175
2013.21310	0.14406
2009.35637	0.14656
2005.49964	0.14683
2001.64291	0.14516
1997.78618	0.14397
1993.92945	0.14491
1990.07272	0.14690
1986.21599	0.14729
1982.35926	0.14577
1978.50253	0.14436
1974.64580	0.14468
1970.78907	0.14533
1966.93234	0.14446
1963.07561	0.14335
1959.21888	0.14295
1955.36215	0.14252
1951.50542	0.14188
1947.64869	0.14113
1943.79196	0.14095
1939.93523	0.14310
1936.07850	0.14680
1932.22177	0.14792
1928.36504	0.14544
1924.50831	0.14288
1920.65158	0.14262
1916.79485	0.14387
1912.93812	0.14555
1909.08139	0.14683
1905.22466	0.14668
1901.36793	0.14575
1897.51120	0.14462
1893.65447	0.14305
1889.79774	0.14239
1885.94101	0.14362
1882.08428	0.14485
1878.22755	0.14501
1874.37082	0.14552
1870.51409	0.14593
1866.65736	0.14463
1862.80063	0.14222
1858.94390	0.13911
1855.08717	0.13634
1851.23044	0.13582
1847.37371	0.13659
1843.51698	0.13603
1839.66025	0.13422
1835.80352	0.13272
1831.94679	0.13202
1828.09006	0.13194
1824.23333	0.13052
1820.37660	0.12760
1816.51986	0.12618
1812.66313	0.12665
1808.80640	0.12657
1804.94967	0.12522
1801.09294	0.12321
1797.23621	0.11976
1793.37948	0.11528
1789.52275	0.11255
1785.66602	0.11173
1781.80929	0.11145
1777.95256	0.11068
1774.09583	0.10732
1770.23910	0.10221
1766.38237	0.09934
1762.52564	0.09815
1758.66891	0.09672
1754.81218	0.09502
1750.95545	0.09337
1747.09872	0.09257
1743.24199	0.09218
1739.38526	0.09003
1735.52853	0.08579
1731.67180	0.08190
1727.81507	0.07993
1723.95834	0.07981
1720.10161	0.08154
1716.24488	0.08385
1712.38815	0.08383
1708.53142	0.08182
1704.67469	0.07999
1700.81796	0.07897
1696.96123	0.07854
1693.10450	0.07747
1689.24777	0.07494
1685.39104	0.07231
1681.53431	0.07107
1677.67758	0.07175
1673.82085	0.07432
1669.96412	0.07784
1666.10739	0.08037
1662.25066	0.08119
1658.39393	0.08059
1654.53720	0.08144
1650.68047	0.08466
1646.82374	0.08549
1642.96701	0.08470
1639.11028	0.08708
1635.25355	0.09328
1631.39682	0.09796
1627.54009	0.09931
1623.68336	0.10013
1619.82663	0.10048
1615.96990	0.09931
1612.11317	0.09789
1608.25644	0.09848
1604.39971	0.10053
1600.54298	0.10002
1596.68625	0.09635
1592.82952	0.09294
1588.97279	0.09157
1585.11606	0.09176
1581.25933	0.09225
1577.40260	0.09248
1573.54587	0.09242
1569.68914	0.09135
1565.83241	0.08961
1561.97568	0.08808
1558.11895	0.08925
1554.26222	0.09446
1550.40549	0.09850
1546.54876	0.10047
1542.69203	0.10261
1538.83530	0.10492
1534.97857	0.10523
1531.12184	0.10492
1527.26511	0.10614
1523.40838	0.10858
1519.55165	0.11024
1515.69492	0.10973
1511.83819	0.10777
1507.98146	0.10625
1504.12473	0.10678
1500.26800	0.10822
1496.41127	0.10782
1492.55454	0.10480
1488.69781	0.10184
1484.84108	0.10049
1480.98435	0.10005
1477.12762	0.10033
1473.27089	0.10166
1469.41416	0.10280
1465.55743	0.10262
1461.70070	0.10203
1457.84397	0.10127
1453.98724	0.10036
1450.13051	0.09981
1446.27378	0.10103
1442.41705	0.10401
1438.56032	0.10570
1434.70359	0.10489
1430.84686	0.10336
1426.99013	0.10096
1423.13340	0.09758
1419.27667	0.09578
1415.41994	0.09698
1411.56321	0.09871
1407.70648	0.10083
1403.84975	0.10364
1399.99302	0.10384
1396.13629	0.10112
1392.27956	0.09941
1388.42283	0.09967
1384.56610	0.09924
1380.70937	0.09606
1376.85264	0.09242
1372.99591	0.09342
1369.13918	0.09704
1365.28245	0.09704
1361.42572	0.09588
1357.56899	0.09682
1353.71226	0.09684
1349.85553	0.09615
1345.99880	0.09678
1342.14207	0.09845
1338.28534	0.09967
1334.42861	0.10047
1330.57188	0.10127
1326.71515	0.10120
1322.85842	0.09977
1319.00169	0.09773
1315.14496	0.09615
1311.28823	0.09487
1307.43150	0.09276
1303.57477	0.09160
1299.71804	0.09383
1295.86130	0.09765
1292.00457	0.09930
1288.14784	0.09767
1284.29111	0.09587
1280.43438	0.09580
1276.57765	0.09705
1272.72092	0.09860
1268.86419	0.09849
1265.00746	0.09745
1261.15073	0.09544
1257.29400	0.09165
1253.43727	0.09071
1249.58054	0.09387
1245.72381	0.09618
1241.86708	0.09506
1238.01035	0.09261
1234.15362	0.09046
1230.29689	0.08949
1226.44016	0.08926
1222.58343	0.08990
1218.72670	0.09486
1214.86997	0.10065
1211.01324	0.10026
1207.15651	0.09907
1203.29978	0.09533
1199.44305	0.08570
1195.58632	0.08280
1191.72959	0.08983
1187.87286	0.09755
1184.01613	0.10151
1180.15940	0.10269
1176.30267	0.10248
1172.44594	0.09792
1168.58921	0.09054
1164.73248	0.08743
1160.87575	0.09212
1157.01902	0.09846
1153.16229	0.10087
1149.30556	0.10018
1145.44883	0.09728
1141.59210	0.09661
1137.73537	0.10027
1133.87864	0.10038
1130.02191	0.09490
1126.16518	0.09067
1122.30845	0.09116
1118.45172	0.09611
1114.59499	0.09831
1110.73826	0.09485
1106.88153	0.09055
1103.02480	0.08562
1099.16807	0.07950
1095.31134	0.07418
1091.45461	0.06665
1087.59788	0.06285
1083.74115	0.06565
1079.88442	0.06975
1076.02769	0.07671
1072.17096	0.08500
1068.31423	0.08689
1064.45750	0.08058
1060.60077	0.07220
1056.74404	0.07134
1052.88731	0.07776
1049.03058	0.08153
1045.17385	0.08028
1041.31712	0.08238
1037.46039	0.09168
1033.60366	0.09945
1029.74693	0.10189
1025.89020	0.10058
1022.03347	0.09627
1018.17674	0.09051
1014.32001	0.08543
1010.46328	0.08460
1006.60655	0.08808
1002.74982	0.09154
998.89309	0.09159
995.03636	0.08897
991.17963	0.08712
987.32290	0.08826
983.46617	0.08973
979.60944	0.08806
975.75271	0.08520
971.89598	0.08419
968.03925	0.08413
964.18252	0.08349
960.32579	0.08194
956.46906	0.08056
952.61233	0.08174
948.75560	0.08800
944.89887	0.09639
941.04214	0.09674
937.18541	0.09056
933.32868	0.08846
929.47195	0.09019
925.61522	0.09024
921.75849	0.08822
917.90176	0.09030
914.04503	0.09902
910.18830	0.10367
906.33157	0.09550
902.47484	0.08481
898.61811	0.08037
894.76138	0.07607
890.90465	0.06875
887.04792	0.06686
883.19119	0.07345
879.33446	0.08237
875.47773	0.08680
871.62100	0.08762
867.76427	0.08896
863.90754	0.08990
860.05081	0.09113
856.19408	0.09570
852.33735	0.10049
848.48062	0.09868
844.62389	0.09016
840.76716	0.08249
836.91043	0.08186
833.05370	0.08894
829.19697	0.09468
825.34024	0.09127
821.48351	0.08540
817.62678	0.08705
813.77005	0.09486
809.91332	0.09990
806.05659	0.09916
802.19986	0.09730
798.34313	0.09514
794.48640	0.08874
790.62967	0.07743
786.77294	0.06792
782.91621	0.06648
779.05947	0.07100
775.20274	0.07653
771.34601	0.08036
767.48928	0.08208
763.63255	0.08250
759.77582	0.08595
755.91909	0.09108
752.06236	0.09023
748.20563	0.08488
744.34890	0.08547
740.49217	0.09060
736.63544	0.09209
732.77871	0.08937
728.92198	0.09025
725.06525	0.09385
721.20852	0.09044
717.35179	0.08452
713.49506	0.08585
709.63833	0.08982
705.78160	0.08984
701.92487	0.08728
698.06814	0.08385
694.21141	0.08074
690.35468	0.07808
686.49795	0.07895
682.64122	0.08971
678.78449	0.10499
674.92776	0.11209
671.07103	0.11041
667.21430	0.10512
663.35757	0.10018
659.50084	0.09400
655.64411	0.08848
651.78738	0.08747
647.93065	0.08558
644.07392	0.07952
640.21719	0.08059
636.36046	0.08870
632.50373	0.09212
628.64700	0.09596
624.79027	0.10475
620.93354	0.10656
617.07681	0.09839
613.22008	0.09598
609.36335	0.10357
605.50662	0.11323
601.64989	0.12022
597.79316	0.12635
