3995.57236	0.27869
3991.71563	0.28283
3987.85890	0.28324
3984.00217	0.28127
3980.14544	0.28099
3976.28871	0.28164
3972.43198	0.27992
3968.57525	0.27667
3964.71852	0.27537
3960.86179	0.27665
3957.00506	0.27891
3953.14833	0.28101
3949.29160	0.28177
3945.43487	0.28055
3941.57814	0.27983
3937.72141	0.28094
3933.86468	0.28307
3930.00795	0.28672
3926.15122	0.29078
3922.29449	0.29354
3918.43776	0.29548
3914.58103	0.29627
3910.72430	0.29558
3906.86757	0.29435
3903.01084	0.29393
3899.15411	0.29707
3895.29737	0.30192
3891.44064	0.30381
3887.58391	0.30299
3883.72718	0.30333
3879.87045	0.30607
3876.01372	0.30863
3872.15699	0.30945
3868.30026	0.30993
3864.44353	0.31122
3860.58680	0.31158
3856.73007	0.31091
3852.87334	0.31203
3849.01661	0.31479
3845.15988	0.31777
3841.30315	0.32089
3837.44642	0.31924
3833.58969	0.31344
3829.73296	0.31227
3825.87623	0.31574
3822.01950	0.31865
3818.16277	0.31785
3814.30604	0.31534
3810.44931	0.31314
3806.59258	0.31076
3802.73585	0.30872
3798.87912	0.30931
3795.02239	0.31121
3791.16566	0.31181
3787.30893	0.31193
3783.45220	0.31191
3779.59547	0.31094
3775.73874	0.31001
3771.88201	0.30965
3768.02528	0.30893
3764.16855	0.30765
3760.31182	0.30579
3756.45509	0.30270
3752.59836	0.30028
3748.74163	0.30185
3744.88490	0.30372
3741.02817	0.30191
3737.17144	0.29959
3733.31471	0.29742
3729.45798	0.29164
3725.60125	0.28315
3721.74452	0.27764
3717.88779	0.27828
3714.03106	0.28076
3710.17433	0.27826
3706.31760	0.27166
3702.46087	0.26581
3698.60414	0.25928
3694.74741	0.25077
3690.89068	0.24013
3687.03395	0.23030
3683.17722	0.22646
3679.32049	0.22494
3675.46376	0.21706
3671.60703	0.20128
3667.75030	0.18989
3663.89357	0.18520
3660.03684	0.18070
3656.18011	0.17298
3652.32338	0.16472
3648.46665	0.15860
3644.60992	0.15351
3640.75319	0.15054
3636.89646	0.14992
3633.03973	0.14966
3629.18300	0.14756
3625.32627	0.14466
3621.46954	0.14370
3617.61281	0.14396
3613.75608	0.14305
3609.89935	0.14008
3606.04262	0.13766
3602.18589	0.13638
3598.32916	0.13405
3594.47243	0.13236
3590.61570	0.13255
3586.75897	0.13356
3582.90224	0.13541
3579.04551	0.13534
3575.18878	0.13189
3571.33205	0.12846
3567.47532	0.12690
3563.61859	0.12644
3559.76186	0.12790
3555.90513	0.13061
3552.04840	0.13153
3548.19167	0.12881
3544.33494	0.12588
3540.47821	0.12733
3536.62148	0.13033
3532.76475	0.12990
3528.90802	0.12704
3525.05129	0.12522
3521.19456	0.12483
3517.33783	0.12488
3513.48110	0.12654
3509.62437	0.13063
3505.76764	0.13390
3501.91091	0.13443
3498.05418	0.13346
3494.19745	0.13150
3490.34072	0.13033
3486.48399	0.13045
3482.62726	0.12961
3478.77053	0.12912
3474.91380	0.12986
3471.05707	0.13007
3467.20034	0.13121
3463.34361	0.13339
3459.48688	0.13378
3455.63015	0.13264
3451.77342	0.13413
3447.91669	0.13676
3444.05996	0.13511
3440.20323	0.13133
3436.34650	0.13167
3432.48977	0.13592
3428.63304	0.13765
3424.77631	0.13403
3420.91958	0.12842
3417.06285	0.12620
3413.20612	0.13063
3409.34939	0.13766
3405.49266	0.14006
3401.63593	0.13734
3397.77920	0.13480
3393.92247	0.13523
3390.06574	0.13682
3386.20901	0.13690
3382.35228	0.13526
3378.49555	0.13395
3374.63881	0.13341
3370.78208	0.13452
3366.92535	0.13686
3363.06862	0.13564
3359.21189	0.13149
3355.35516	0.12899
3351.49843	0.12805
3347.64170	0.12802
3343.78497	0.12934
3339.92824	0.13051
3336.07151	0.13190
3332.21478	0.13340
3328.35805	0.13169
3324.50132	0.12808
3320.64459	0.12764
3316.78786	0.13025
3312.93113	0.13223
3309.07440	0.13206
3305.21767	0.13000
3301.36094	0.12788
3297.50421	0.12884
3293.64748	0.13202
3289.79075	0.13490
3285.93402	0.13758
3282.07729	0.13774
3278.22056	0.13419
3274.36383	0.13131
3270.50710	0.13254
3266.65037	0.13601
3262.79364	0.13861
3258.93691	0.13924
3255.08018	0.13813
3251.22345	0.13676
3247.36672	0.13553
3243.50999	0.13321
3239.65326	0.13045
3235.79653	0.13032
3231.93980	0.13371
3228.08307	0.13713
3224.22634	0.13742
3220.36961	0.13605
3216.51288	0.13556
3212.65615	0.13503
3208.79942	0.13450
3204.94269	0.13672
3201.08596	0.14094
3197.22923	0.14368
3193.37250	0.14395
3189.51577	0.14243
3185.65904	0.13905
3181.80231	0.13449
3177.94558	0.13176
3174.08885	0.13193
3170.23212	0.13342
3166.37539	0.13631
3162.51866	0.13808
3158.66193	0.13564
3154.80520	0.13215
3150.94847	0.13203
3147.09174	0.13439
3143.23501	0.13580
3139.37828	0.13650
3135.52155	0.13812
3131.66482	0.13880
3127.80809	0.13740
3123.95136	0.13547
3120.09463	0.13308
3116.23790	0.13140
3112.38117	0.13211
3108.52444	0.13431
3104.66771	0.13618
3100.81098	0.13590
3096.95425	0.13471
3093.09752	0.13630
3089.24079	0.13992
3085.38406	0.14158
3081.52733	0.14006
3077.67060	0.13619
3073.81387	0.13276
3069.95714	0.13316
3066.10041	0.13577
3062.24368	0.13675
3058.38695	0.13757
3054.53022	0.14041
3050.67349	0.14309
3046.81676	0.14374
3042.96003	0.14211
3039.10330	0.14018
3035.24657	0.14106
3031.38984	0.14289
3027.53311	0.14253
3023.67638	0.14083
3019.81965	0.14042
3015.96292	0.14131
3012.10619	0.14092
3008.24946	0.13949
3004.39273	0.14016
3000.53600	0.14177
2996.67927	0.14112
2992.82254	0.13939
2988.96581	0.13840
2985.10908	0.13767
2981.25235	0.13757
2977.39562	0.13720
2973.53889	0.13522
2969.68216	0.13413
2965.82543	0.13593
2961.96870	0.13977
2958.11197	0.14304
2954.25524	0.14367
2950.39851	0.14010
2946.54178	0.13496
2942.68505	0.13437
2938.82832	0.13812
2934.97159	0.14187
2931.11486	0.14261
2927.25813	0.14030
2923.40140	0.13918
2919.54467	0.14198
2915.68794	0.14606
2911.83121	0.14708
2907.97448	0.14479
2904.11775	0.14274
2900.26102	0.14238
2896.40429	0.14216
2892.54756	0.14048
2888.69083	0.13877
2884.83410	0.13918
2880.97737	0.14037
2877.12064	0.14078
2873.26391	0.13947
2869.40718	0.13713
2865.55045	0.13775
2861.69372	0.14115
2857.83698	0.14298
2853.98025	0.14311
2850.12352	0.14406
2846.26679	0.14480
2842.41006	0.14359
2838.55333	0.14239
2834.69660	0.14335
2830.83987	0.14463
2826.98314	0.14459
2823.12641	0.14432
2819.26968	0.14427
2815.41295	0.14360
2811.55622	0.14263
2807.69949	0.14333
2803.84276	0.14609
2799.98603	0.14866
2796.12930	0.14971
2792.27257	0.14959
2788.41584	0.14890
2784.55911	0.14756
2780.70238	0.14555
2776.84565	0.14474
2772.98892	0.14584
2769.13219	0.14669
2765.27546	0.14626
2761.41873	0.14620
2757.56200	0.14720
2753.70527	0.14773
2749.84854	0.14812
2745.99181	0.14973
2742.13508	0.15039
2738.27835	0.14892
2734.42162	0.14809
2730.56489	0.14852
2726.70816	0.14842
2722.85143	0.14922
2718.99470	0.15207
2715.13797	0.15414
2711.28124	0.15428
2707.42451	0.15419
2703.56778	0.15397
2699.71105	0.15298
2695.85432	0.15240
2691.99759	0.15284
2688.14086	0.15348
2684.28413	0.15398
2680.42740	0.15433
2676.57067	0.15444
2672.71394	0.15451
2668.85721	0.15511
2665.00048	0.15682
2661.14375	0.15875
2657.28702	0.15923
2653.43029	0.15837
2649.57356	0.15797
2645.71683	0.15881
2641.86010	0.15917
2638.00337	0.15793
2634.14664	0.15658
2630.28991	0.15675
2626.43318	0.15800
2622.57645	0.15851
2618.71972	0.15761
2614.86299	0.15700
2611.00626	0.15821
2607.14953	0.15995
2603.29280	0.16029
2599.43607	0.15962
2595.57934	0.15906
2591.72261	0.15869
2587.86588	0.15896
2584.00915	0.15994
2580.15242	0.16032
2576.29569	0.16007
2572.43896	0.16041
2568.58223	0.16183
2564.72550	0.16419
2560.86877	0.16651
2557.01204	0.16769
2553.15531	0.16780
2549.29858	0.16714
2545.44185	0.16677
2541.58512	0.16812
2537.72839	0.16947
2533.87166	0.16856
2530.01493	0.16691
2526.15820	0.16706
2522.30147	0.16896
2518.44474	0.17003
2514.58801	0.16898
2510.73128	0.16780
2506.87455	0.16837
2503.01782	0.16986
2499.16109	0.17062
2495.30436	0.17056
2491.44763	0.17113
2487.59090	0.17253
2483.73417	0.17294
2479.87744	0.17242
2476.02071	0.17253
2472.16398	0.17304
2468.30725	0.17368
2464.45052	0.17470
2460.59379	0.17534
2456.73706	0.17572
2452.88033	0.17641
2449.02360	0.17685
2445.16687	0.17767
2441.31014	0.17987
2437.45341	0.18149
2433.59668	0.18065
2429.73995	0.17873
2425.88322	0.17804
2422.02649	0.17897
2418.16976	0.18006
2414.31303	0.17995
2410.45630	0.17935
2406.59957	0.17958
2402.74284	0.17998
2398.88611	0.18040
2395.02938	0.18128
2391.17265	0.18185
2387.31592	0.18292
2383.45919	0.18555
2379.60246	0.18743
2375.74573	0.18532
2371.88900	0.17886
2368.03227	0.17245
2364.17554	0.17177
2360.31881	0.17490
2356.46208	0.17617
2352.60535	0.17582
2348.74862	0.17597
2344.89189	0.17834
2341.03516	0.18088
2337.17842	0.17870
2333.32169	0.17682
2329.46496	0.18043
2325.60823	0.18456
2321.75150	0.18488
2317.89477	0.18413
2314.03804	0.18566
2310.18131	0.18809
2306.32458	0.18939
2302.46785	0.19033
2298.61112	0.19110
2294.75439	0.19053
2290.89766	0.18938
2287.04093	0.18927
2283.18420	0.18968
2279.32747	0.19007
2275.47074	0.19083
2271.61401	0.19142
2267.75728	0.19105
2263.90055	0.19028
2260.04382	0.19060
2256.18709	0.19193
2252.33036	0.19274
2248.47363	0.19306
2244.61690	0.19391
2240.76017	0.19411
2236.90344	0.19234
2233.04671	0.19023
2229.18998	0.18923
2225.33325	0.18887
2221.47652	0.18916
2217.61979	0.19018
2213.76306	0.19102
2209.90633	0.19114
2206.04960	0.19075
2202.19287	0.18984
2198.33614	0.18859
2194.47941	0.18779
2190.62268	0.18741
2186.76595	0.18686
2182.90922	0.18661
2179.05249	0.18650
2175.19576	0.18552
2171.33903	0.18481
2167.48230	0.18549
2163.62557	0.18571
2159.76884	0.18425
2155.91211	0.18276
2152.05538	0.18249
2148.19865	0.18268
2144.34192	0.18245
2140.48519	0.18203
2136.62846	0.18204
2132.77173	0.18299
2128.91500	0.18470
2125.05827	0.18595
2121.20154	0.18565
2117.34481	0.18404
2113.48808	0.18244
2109.63135	0.18179
2105.77462	0.18241
2101.91789	0.18407
2098.06116	0.18563
2094.20443	0.18628
2090.34770	0.18656
2086.49097	0.18667
2082.63424	0.18595
2078.77751	0.18489
2074.92078	0.18449
2071.06405	0.18469
2067.20732	0.18540
2063.35059	0.18619
2059.49386	0.18630
2055.63713	0.18599
2051.78040	0.18552
2047.92367	0.18493
2044.06694	0.18467
2040.21021	0.18508
2036.35348	0.18613
2032.49675	0.18728
2028.64002	0.18819
2024.78329	0.18918
2020.92656	0.19030
2017.06983	0.19040
2013.21310	0.18898
2009.35637	0.18728
2005.49964	0.18650
2001.64291	0.18717
1997.78618	0.18874
1993.92945	0.18962
1990.07272	0.18919
1986.21599	0.18845
1982.35926	0.18825
1978.50253	0.18808
1974.64580	0.18756
1970.78907	0.18743
1966.93234	0.18798
1963.07561	0.18830
1959.21888	0.18760
1955.36215	0.18656
1951.50542	0.18653
1947.64869	0.18735
1943.79196	0.18796
1939.93523	0.18830
1936.07850	0.18889
1932.22177	0.18982
1928.36504	0.19084
1924.50831	0.19162
1920.65158	0.19198
1916.79485	0.19168
1912.93812	0.19047
1909.08139	0.18917
1905.22466	0.18904
1901.36793	0.18964
1897.51120	0.18998
1893.65447	0.19045
1889.79774	0.19042
1885.94101	0.18908
1882.08428	0.18833
1878.22755	0.18891
1874.37082	0.18878
1870.51409	0.18749
1866.65736	0.18669
1862.80063	0.18676
1858.94390	0.18687
1855.08717	0.18637
1851.23044	0.18498
1847.37371	0.18289
1843.51698	0.18061
1839.66025	0.17886
1835.80352	0.17753
1831.94679	0.17657
1828.09006	0.17628
1824.23333	0.17588
1820.37660	0.17507
1816.51986	0.17376
1812.66313	0.17174
1808.80640	0.17028
1804.94967	0.16920
1801.09294	0.16667
1797.23621	0.16378
1793.37948	0.16225
1789.52275	0.16057
1785.66602	0.15771
1781.80929	0.15441
1777.95256	0.15097
1774.09583	0.14780
1770.23910	0.14513
1766.38237	0.14219
1762.52564	0.13886
1758.66891	0.13633
1754.81218	0.13518
1750.95545	0.13440
1747.09872	0.13186
1743.24199	0.12797
1739.38526	0.12534
1735.52853	0.12367
1731.67180	0.12175
1727.81507	0.11966
1723.95834	0.11793
1720.10161	0.11683
1716.24488	0.11469
1712.38815	0.11098
1708.53142	0.10770
1704.67469	0.10503
1700.81796	0.10302
1696.96123	0.10286
1693.10450	0.10464
1689.24777	0.10783
1685.39104	0.11158
1681.53431	0.11260
1677.67758	0.11057
1673.82085	0.10935
1669.96412	0.11094
1666.10739	0.11309
1662.25066	0.11457
1658.39393	0.11604
1654.53720	0.11694
1650.68047	0.11852
1646.82374	0.12269
1642.96701	0.12601
1639.11028	0.12805
1635.25355	0.13145
1631.39682	0.13480
1627.54009	0.13612
1623.68336	0.13607
1619.82663	0.13507
1615.96990	0.13435
1612.11317	0.13355
1608.25644	0.13108
1604.39971	0.12806
1600.54298	0.12672
1596.68625	0.12738
1592.82952	0.12850
1588.97279	0.12855
1585.11606	0.12835
1581.25933	0.12824
1577.40260	0.12678
1573.54587	0.12539
1569.68914	0.12711
1565.83241	0.12976
1561.97568	0.12993
1558.11895	0.12888
1554.26222	0.13127
1550.40549	0.13426
1546.54876	0.13580
1542.69203	0.13712
1538.83530	0.13954
1534.97857	0.14212
1531.12184	0.14363
1527.26511	0.14429
1523.40838	0.14489
1519.55165	0.14458
1515.69492	0.14391
1511.83819	0.14549
1507.98146	0.14820
1504.12473	0.14806
1500.26800	0.14578
1496.41127	0.14323
1492.55454	0.14125
1488.69781	0.14133
1484.84108	0.14225
1480.98435	0.14117
1477.12762	0.13834
1473.27089	0.13619
1469.41416	0.13552
1465.55743	0.13567
1461.70070	0.13757
1457.84397	0.13978
1453.98724	0.13933
1450.13051	0.13923
1446.27378	0.14092
1442.41705	0.14252
1438.56032	0.14359
1434.70359	0.14359
1430.84686	0.14120
1426.99013	0.13732
1423.13340	0.13387
1419.27667	0.13138
1415.41994	0.13012
1411.56321	0.13067
1407.70648	0.13192
1403.84975	0.13324
1399.99302	0.13470
1396.13629	0.13501
1392.27956	0.13467
1388.42283	0.13530
1384.56610	0.13486
1380.70937	0.13261
1376.85264	0.13119
1372.99591	0.13122
1369.13918	0.13192
1365.28245	0.13355
1361.42572	0.13480
1357.56899	0.13447
1353.71226	0.13367
1349.85553	0.13310
1345.99880	0.13179
1342.14207	0.12952
1338.28534	0.12894
1334.42861	0.13046
1330.57188	0.13149
1326.71515	0.13177
1322.85842	0.13081
1319.00169	0.12811
1315.14496	0.12629
1311.28823	0.12551
1307.43150	0.12415
1303.57477	0.12465
1299.71804	0.12773
1295.86130	0.12930
1292.00457	0.12820
1288.14784	0.12746
1284.29111	0.12729
1280.43438	0.12628
1276.57765	0.12651
1272.72092	0.12975
1268.86419	0.13263
1265.00746	0.13181
1261.15073	0.12981
1257.29400	0.12940
1253.43727	0.12855
1249.58054	0.12452
1245.72381	0.11962
1241.86708	0.11997
1238.01035	0.12531
1234.15362	0.12666
1230.29689	0.12307
1226.44016	0.12324
1222.58343	0.12768
1218.72670	0.12735
1214.86997	0.12135
1211.01324	0.11600
1207.15651	0.11446
1203.29978	0.11718
1199.44305	0.12009
1195.58632	0.12013
1191.72959	0.12081
1187.87286	0.12353
1184.01613	0.12569
1180.15940	0.12496
1176.30267	0.12154
1172.44594	0.11941
1168.58921	0.11991
1164.73248	0.12086
1160.87575	0.12239
1157.01902	0.12732
1153.16229	0.13120
1149.30556	0.12887
1145.44883	0.12380
1141.59210	0.11937
1137.73537	0.11735
1133.87864	0.11930
1130.02191	0.12009
1126.16518	0.11744
1122.30845	0.11748
1118.45172	0.12101
1114.59499	0.12273
1110.73826	0.11932
1106.88153	0.11312
1103.02480	0.11011
1099.16807	0.11118
1095.31134	0.11309
1091.45461	0.11432
1087.59788	0.11603
1083.74115	0.11936
1079.88442	0.11937
1076.02769	0.11366
1072.17096	0.11002
1068.31423	0.11270
1064.45750	0.11725
1060.60077	0.12131
1056.74404	0.12351
1052.88731	0.12181
1049.03058	0.11545
1045.17385	0.10923
1041.31712	0.10798
1037.46039	0.10753
1033.60366	0.10594
1029.74693	0.10845
1025.89020	0.11543
1022.03347	0.12068
1018.17674	0.12044
1014.32001	0.11819
1010.46328	0.11686
1006.60655	0.11553
1002.74982	0.11482
998.89309	0.11652
995.03636	0.12010
991.17963	0.12342
987.32290	0.12592
983.46617	0.12594
979.60944	0.12271
975.75271	0.12159
971.89598	0.12476
968.03925	0.12678
964.18252	0.12542
960.32579	0.12421
956.46906	0.12352
952.61233	0.12127
948.75560	0.11890
944.89887	0.11702
941.04214	0.11513
937.18541	0.11510
933.32868	0.11857
929.47195	0.12404
925.61522	0.12812
921.75849	0.12907
917.90176	0.12806
914.04503	0.12615
910.18830	0.12271
906.33157	0.11846
902.47484	0.11649
898.61811	0.11745
894.76138	0.11994
890.90465	0.12558
887.04792	0.13274
883.19119	0.13400
879.33446	0.12823
875.47773	0.12520
871.62100	0.12768
867.76427	0.12910
863.90754	0.12896
860.05081	0.12892
856.19408	0.12769
852.33735	0.12604
848.48062	0.12510
844.62389	0.12675
840.76716	0.13101
836.91043	0.13162
833.05370	0.12568
829.19697	0.12028
825.34024	0.12107
821.48351	0.12353
817.62678	0.12275
813.77005	0.12242
809.91332	0.12337
806.05659	0.12292
802.19986	0.12431
798.34313	0.12753
794.48640	0.12768
790.62967	0.12397
786.77294	0.12195
782.91621	0.12313
779.05947	0.12372
775.20274	0.12238
771.34601	0.11948
767.48928	0.11796
763.63255	0.12131
759.77582	0.12640
755.91909	0.12799
752.06236	0.12689
748.20563	0.12709
744.34890	0.12798
740.49217	0.12639
736.63544	0.12298
732.77871	0.11830
728.92198	0.11560
725.06525	0.11653
721.20852	0.11810
717.35179	0.11833
713.49506	0.11802
709.63833	0.11781
705.78160	0.11621
701.92487	0.11330
698.06814	0.11358
694.21141	0.11779
690.35468	0.12177
686.49795	0.12626
682.64122	0.13081
678.78449	0.12952
674.92776	0.12419
671.07103	0.12469
667.21430	0.13314
663.35757	0.14032
659.50084	0.14501
655.64411	0.14567
651.78738	0.13903
647.93065	0.13073
644.07392	0.12566
640.21719	0.12558
636.36046	0.12898
632.50373	0.13215
628.64700	0.13574
624.79027	0.13945
620.93354	0.13759
617.07681	0.13409
613.22008	0.13676
609.36335	0.13853
605.50662	0.13045
601.64989	0.11770
597.79316	0.11203
