3995.57236	0.20077
3991.71563	0.19934
3987.85890	0.20105
3984.00217	0.20201
3980.14544	0.20111
3976.28871	0.20219
3972.43198	0.20724
3968.57525	0.21140
3964.71852	0.21077
3960.86179	0.20970
3957.00506	0.21226
3953.14833	0.21500
3949.29160	0.21518
3945.43487	0.21433
3941.57814	0.21384
3937.72141	0.21489
3933.86468	0.21803
3930.00795	0.22138
3926.15122	0.22254
3922.29449	0.22083
3918.43776	0.21805
3914.58103	0.21705
3910.72430	0.21786
3906.86757	0.21970
3903.01084	0.22331
3899.15411	0.22752
3895.29737	0.22926
3891.44064	0.22862
3887.58391	0.22884
3883.72718	0.23009
3879.87045	0.22849
3876.01372	0.22515
3872.15699	0.22501
3868.30026	0.22973
3864.44353	0.23377
3860.58680	0.23242
3856.73007	0.22872
3852.87334	0.22743
3849.01661	0.22933
3845.15988	0.23079
3841.30315	0.23286
3837.44642	0.23783
3833.58969	0.24047
3829.73296	0.23910
3825.87623	0.23835
3822.01950	0.23788
3818.16277	0.23496
3814.30604	0.23211
3810.44931	0.23246
3806.59258	0.23543
3802.73585	0.23771
3798.87912	0.23498
3795.02239	0.23015
3791.16566	0.22917
3787.30893	0.23099
3783.45220	0.23137
3779.59547	0.22963
3775.73874	0.22768
3771.88201	0.22643
3768.02528	0.22538
3764.16855	0.22442
3760.31182	0.22507
3756.45509	0.22863
3752.59836	0.23262
3748.74163	0.23171
3744.88490	0.22604
3741.02817	0.22322
3737.17144	0.22379
3733.31471	0.22139
3729.45798	0.21578
3725.60125	0.21132
3721.74452	0.20739
3717.88779	0.20509
3714.03106	0.20683
3710.17433	0.20777
3706.31760	0.20320
3702.46087	0.19749
3698.60414	0.19195
3694.74741	0.18374
3690.89068	0.17358
3687.03395	0.16700
3683.17722	0.16525
3679.32049	0.16428
3675.46376	0.16286
3671.60703	0.15764
3667.75030	0.14648
3663.89357	0.13600
3660.03684	0.12997
3656.18011	0.12634
3652.32338	0.12128
3648.46665	0.11408
3644.60992	0.10904
3640.75319	0.10646
3636.89646	0.10500
3633.03973	0.10623
3629.18300	0.10887
3625.32627	0.10949
3621.46954	0.10786
3617.61281	0.10569
3613.75608	0.10586
3609.89935	0.10813
3606.04262	0.10858
3602.18589	0.10804
3598.32916	0.10881
3594.47243	0.10768
3590.61570	0.10490
3586.75897	0.10586
3582.90224	0.10889
3579.04551	0.11078
3575.18878	0.11367
3571.33205	0.11422
3567.47532	0.10613
3563.61859	0.09602
3559.76186	0.09505
3555.90513	0.10046
3552.04840	0.10527
3548.19167	0.10785
3544.33494	0.10802
3540.47821	0.10603
3536.62148	0.10441
3532.76475	0.10466
3528.90802	0.10579
3525.05129	0.10608
3521.19456	0.10644
3517.33783	0.10649
3513.48110	0.10426
3509.62437	0.10117
3505.76764	0.10024
3501.91091	0.10247
3498.05418	0.10545
3494.19745	0.10563
3490.34072	0.10252
3486.48399	0.10006
3482.62726	0.10171
3478.77053	0.10610
3474.91380	0.10867
3471.05707	0.10714
3467.20034	0.10380
3463.34361	0.10153
3459.48688	0.10072
3455.63015	0.10037
3451.77342	0.09998
3447.91669	0.10345
3444.05996	0.11123
3440.20323	0.11432
3436.34650	0.10871
3432.48977	0.10362
3428.63304	0.10449
3424.77631	0.10545
3420.91958	0.10413
3417.06285	0.10386
3413.20612	0.10692
3409.34939	0.10989
3405.49266	0.10679
3401.63593	0.10147
3397.77920	0.10124
3393.92247	0.10267
3390.06574	0.10037
3386.20901	0.09736
3382.35228	0.09547
3378.49555	0.09399
3374.63881	0.09458
3370.78208	0.09495
3366.92535	0.09430
3363.06862	0.09560
3359.21189	0.09744
3355.35516	0.09815
3351.49843	0.09969
3347.64170	0.10271
3343.78497	0.10484
3339.92824	0.10391
3336.07151	0.10029
3332.21478	0.09586
3328.35805	0.09245
3324.50132	0.09209
3320.64459	0.09380
3316.78786	0.09397
3312.93113	0.09571
3309.07440	0.10123
3305.21767	0.10457
3301.36094	0.10425
3297.50421	0.10450
3293.64748	0.10525
3289.79075	0.10374
3285.93402	0.10146
3282.07729	0.10005
3278.22056	0.09840
3274.36383	0.09772
3270.50710	0.09879
3266.65037	0.10007
3262.79364	0.09911
3258.93691	0.09922
3255.08018	0.10296
3251.22345	0.10363
3247.36672	0.09869
3243.50999	0.09553
3239.65326	0.09879
3235.79653	0.10510
3231.93980	0.10879
3228.08307	0.10788
3224.22634	0.10456
3220.36961	0.10077
3216.51288	0.09842
3212.65615	0.09837
3208.79942	0.09869
3204.94269	0.09993
3201.08596	0.10305
3197.22923	0.10485
3193.37250	0.10291
3189.51577	0.10056
3185.65904	0.10066
3181.80231	0.10255
3177.94558	0.10495
3174.08885	0.10427
3170.23212	0.10189
3166.37539	0.10393
3162.51866	0.10899
3158.66193	0.11309
3154.80520	0.11496
3150.94847	0.11397
3147.09174	0.11164
3143.23501	0.10937
3139.37828	0.10606
3135.52155	0.10142
3131.66482	0.10020
3127.80809	0.10460
3123.95136	0.10840
3120.09463	0.10787
3116.23790	0.10668
3112.38117	0.10796
3108.52444	0.11003
3104.66771	0.10816
3100.81098	0.10325
3096.95425	0.10294
3093.09752	0.10577
3089.24079	0.10338
3085.38406	0.09834
3081.52733	0.09838
3077.67060	0.10225
3073.81387	0.10396
3069.95714	0.10250
3066.10041	0.10320
3062.24368	0.10833
3058.38695	0.11131
3054.53022	0.10703
3050.67349	0.10104
3046.81676	0.10085
3042.96003	0.10488
3039.10330	0.10689
3035.24657	0.10615
3031.38984	0.10551
3027.53311	0.10752
3023.67638	0.11162
3019.81965	0.11255
3015.96292	0.10987
3012.10619	0.10806
3008.24946	0.10746
3004.39273	0.10722
3000.53600	0.10804
2996.67927	0.10954
2992.82254	0.11000
2988.96581	0.10919
2985.10908	0.10866
2981.25235	0.10992
2977.39562	0.11132
2973.53889	0.10871
2969.68216	0.10404
2965.82543	0.10340
2961.96870	0.10676
2958.11197	0.10879
2954.25524	0.10688
2950.39851	0.10332
2946.54178	0.10364
2942.68505	0.11006
2938.82832	0.11683
2934.97159	0.11648
2931.11486	0.11115
2927.25813	0.10880
2923.40140	0.10968
2919.54467	0.10808
2915.68794	0.10587
2911.83121	0.10598
2907.97448	0.10704
2904.11775	0.10970
2900.26102	0.11272
2896.40429	0.11167
2892.54756	0.10833
2888.69083	0.10897
2884.83410	0.11178
2880.97737	0.11136
2877.12064	0.11166
2873.26391	0.11465
2869.40718	0.11495
2865.55045	0.11161
2861.69372	0.11047
2857.83698	0.11271
2853.98025	0.11360
2850.12352	0.11226
2846.26679	0.11328
2842.41006	0.11732
2838.55333	0.11973
2834.69660	0.11843
2830.83987	0.11561
2826.98314	0.11420
2823.12641	0.11454
2819.26968	0.11431
2815.41295	0.11254
2811.55622	0.11012
2807.69949	0.10853
2803.84276	0.10972
2799.98603	0.11333
2796.12930	0.11616
2792.27257	0.11690
2788.41584	0.11633
2784.55911	0.11439
2780.70238	0.11217
2776.84565	0.11120
2772.98892	0.11083
2769.13219	0.11046
2765.27546	0.11018
2761.41873	0.11003
2757.56200	0.10993
2753.70527	0.11038
2749.84854	0.11308
2745.99181	0.11655
2742.13508	0.11695
2738.27835	0.11517
2734.42162	0.11371
2730.56489	0.11270
2726.70816	0.11289
2722.85143	0.11398
2718.99470	0.11470
2715.13797	0.11546
2711.28124	0.11626
2707.42451	0.11597
2703.56778	0.11390
2699.71105	0.11294
2695.85432	0.11534
2691.99759	0.11766
2688.14086	0.11754
2684.28413	0.11679
2680.42740	0.11744
2676.57067	0.11922
2672.71394	0.12069
2668.85721	0.12037
2665.00048	0.11756
2661.14375	0.11470
2657.28702	0.11487
2653.43029	0.11726
2649.57356	0.11841
2645.71683	0.11718
2641.86010	0.11539
2638.00337	0.11464
2634.14664	0.11588
2630.28991	0.11861
2626.43318	0.12061
2622.57645	0.12082
2618.71972	0.12068
2614.86299	0.12075
2611.00626	0.11935
2607.14953	0.11617
2603.29280	0.11383
2599.43607	0.11450
2595.57934	0.11655
2591.72261	0.11770
2587.86588	0.11758
2584.00915	0.11644
2580.15242	0.11607
2576.29569	0.11698
2572.43896	0.11766
2568.58223	0.11814
2564.72550	0.11879
2560.86877	0.11878
2557.01204	0.11720
2553.15531	0.11492
2549.29858	0.11363
2545.44185	0.11398
2541.58512	0.11583
2537.72839	0.11858
2533.87166	0.12041
2530.01493	0.11984
2526.15820	0.11857
2522.30147	0.11818
2518.44474	0.11765
2514.58801	0.11712
2510.73128	0.11818
2506.87455	0.12019
2503.01782	0.12121
2499.16109	0.12072
2495.30436	0.11998
2491.44763	0.11948
2487.59090	0.11892
2483.73417	0.11859
2479.87744	0.11880
2476.02071	0.11994
2472.16398	0.12098
2468.30725	0.11946
2464.45052	0.11698
2460.59379	0.11709
2456.73706	0.11893
2452.88033	0.11982
2449.02360	0.11897
2445.16687	0.11828
2441.31014	0.11971
2437.45341	0.12143
2433.59668	0.12130
2429.73995	0.12048
2425.88322	0.12029
2422.02649	0.12102
2418.16976	0.12139
2414.31303	0.12009
2410.45630	0.11973
2406.59957	0.12133
2402.74284	0.12159
2398.88611	0.12062
2395.02938	0.12127
2391.17265	0.12323
2387.31592	0.12451
2383.45919	0.12412
2379.60246	0.12198
2375.74573	0.11964
2371.88900	0.11924
2368.03227	0.12129
2364.17554	0.12683
2360.31881	0.13423
2356.46208	0.13291
2352.60535	0.12490
2348.74862	0.12216
2344.89189	0.12665
2341.03516	0.13012
2337.17842	0.12678
2333.32169	0.12421
2329.46496	0.12562
2325.60823	0.12657
2321.75150	0.12500
2317.89477	0.12334
2314.03804	0.12372
2310.18131	0.12548
2306.32458	0.12621
2302.46785	0.12583
2298.61112	0.12697
2294.75439	0.12983
2290.89766	0.13188
2287.04093	0.13122
2283.18420	0.12824
2279.32747	0.12614
2275.47074	0.12705
2271.61401	0.12940
2267.75728	0.13088
2263.90055	0.13033
2260.04382	0.12891
2256.18709	0.12888
2252.33036	0.12996
2248.47363	0.13114
2244.61690	0.13221
2240.76017	0.13241
2236.90344	0.13188
2233.04671	0.13141
2229.18998	0.13089
2225.33325	0.12993
2221.47652	0.12885
2217.61979	0.12861
2213.76306	0.12912
2209.90633	0.12934
2206.04960	0.13016
2202.19287	0.13218
2198.33614	0.13312
2194.47941	0.13150
2190.62268	0.12873
2186.76595	0.12717
2182.90922	0.12733
2179.05249	0.12750
2175.19576	0.12703
2171.33903	0.12686
2167.48230	0.12650
2163.62557	0.12531
2159.76884	0.12447
2155.91211	0.12459
2152.05538	0.12449
2148.19865	0.12410
2144.34192	0.12485
2140.48519	0.12624
2136.62846	0.12695
2132.77173	0.12737
2128.91500	0.12733
2125.05827	0.12559
2121.20154	0.12431
2117.34481	0.12551
2113.48808	0.12636
2109.63135	0.12609
2105.77462	0.12763
2101.91789	0.13047
2098.06116	0.13179
2094.20443	0.13123
2090.34770	0.13064
2086.49097	0.13045
2082.63424	0.12954
2078.77751	0.12888
2074.92078	0.12946
2071.06405	0.13007
2067.20732	0.13044
2063.35059	0.13106
2059.49386	0.13141
2055.63713	0.13166
2051.78040	0.13296
2047.92367	0.13472
2044.06694	0.13503
2040.21021	0.13391
2036.35348	0.13272
2032.49675	0.13216
2028.64002	0.13193
2024.78329	0.13096
2020.92656	0.12972
2017.06983	0.13011
2013.21310	0.13159
2009.35637	0.13220
2005.49964	0.13145
2001.64291	0.13002
1997.78618	0.12917
1993.92945	0.12958
1990.07272	0.13070
1986.21599	0.13107
1982.35926	0.12961
1978.50253	0.12811
1974.64580	0.12871
1970.78907	0.13026
1966.93234	0.13137
1963.07561	0.13158
1959.21888	0.13044
1955.36215	0.12877
1951.50542	0.12791
1947.64869	0.12827
1943.79196	0.12891
1939.93523	0.12830
1936.07850	0.12646
1932.22177	0.12520
1928.36504	0.12648
1924.50831	0.12972
1920.65158	0.13201
1916.79485	0.13215
1912.93812	0.13127
1909.08139	0.12948
1905.22466	0.12718
1901.36793	0.12656
1897.51120	0.12808
1893.65447	0.12939
1889.79774	0.12898
1885.94101	0.12815
1882.08428	0.12802
1878.22755	0.12777
1874.37082	0.12667
1870.51409	0.12522
1866.65736	0.12485
1862.80063	0.12619
1858.94390	0.12784
1855.08717	0.12821
1851.23044	0.12707
1847.37371	0.12525
1843.51698	0.12397
1839.66025	0.12371
1835.80352	0.12385
1831.94679	0.12348
1828.09006	0.12186
1824.23333	0.12012
1820.37660	0.11949
1816.51986	0.11919
1812.66313	0.11791
1808.80640	0.11624
1804.94967	0.11561
1801.09294	0.11509
1797.23621	0.11366
1793.37948	0.11272
1789.52275	0.11239
1785.66602	0.11137
1781.80929	0.11018
1777.95256	0.10910
1774.09583	0.10824
1770.23910	0.10849
1766.38237	0.10828
1762.52564	0.10628
1758.66891	0.10402
1754.81218	0.10196
1750.95545	0.10071
1747.09872	0.10286
1743.24199	0.10859
1739.38526	0.11531
1735.52853	0.12133
1731.67180	0.12488
1727.81507	0.12423
1723.95834	0.12069
1720.10161	0.11549
1716.24488	0.11001
1712.38815	0.10758
1708.53142	0.10646
1704.67469	0.10284
1700.81796	0.09720
1696.96123	0.09314
1693.10450	0.09220
1689.24777	0.09325
1685.39104	0.09488
1681.53431	0.09580
1677.67758	0.09694
1673.82085	0.09944
1669.96412	0.10249
1666.10739	0.10566
1662.25066	0.10780
1658.39393	0.10748
1654.53720	0.10662
1650.68047	0.10788
1646.82374	0.11140
1642.96701	0.11432
1639.11028	0.11386
1635.25355	0.11115
1631.39682	0.10994
1627.54009	0.10977
1623.68336	0.10857
1619.82663	0.10744
1615.96990	0.10728
1612.11317	0.10685
1608.25644	0.10668
1604.39971	0.10621
1600.54298	0.10403
1596.68625	0.10327
1592.82952	0.10574
1588.97279	0.10760
1585.11606	0.10680
1581.25933	0.10535
1577.40260	0.10454
1573.54587	0.10352
1569.68914	0.10226
1565.83241	0.10172
1561.97568	0.10231
1558.11895	0.10424
1554.26222	0.10679
1550.40549	0.10987
1546.54876	0.11306
1542.69203	0.11452
1538.83530	0.11301
1534.97857	0.11117
1531.12184	0.11171
1527.26511	0.11389
1523.40838	0.11495
1519.55165	0.11349
1515.69492	0.11093
1511.83819	0.10840
1507.98146	0.10834
1504.12473	0.11169
1500.26800	0.11397
1496.41127	0.11356
1492.55454	0.11215
1488.69781	0.11114
1484.84108	0.11064
1480.98435	0.11027
1477.12762	0.10907
1473.27089	0.10718
1469.41416	0.10627
1465.55743	0.10601
1461.70070	0.10702
1457.84397	0.11040
1453.98724	0.11311
1450.13051	0.11219
1446.27378	0.10934
1442.41705	0.10773
1438.56032	0.10774
1434.70359	0.10806
1430.84686	0.10869
1426.99013	0.10962
1423.13340	0.11226
1419.27667	0.11459
1415.41994	0.11232
1411.56321	0.10865
1407.70648	0.10750
1403.84975	0.10862
1399.99302	0.11006
1396.13629	0.10912
1392.27956	0.10624
1388.42283	0.10490
1384.56610	0.10574
1380.70937	0.10831
1376.85264	0.11156
1372.99591	0.11202
1369.13918	0.11010
1365.28245	0.10922
1361.42572	0.11007
1357.56899	0.11224
1353.71226	0.11288
1349.85553	0.10964
1345.99880	0.10515
1342.14207	0.10211
1338.28534	0.10138
1334.42861	0.10320
1330.57188	0.10477
1326.71515	0.10386
1322.85842	0.10310
1319.00169	0.10533
1315.14496	0.10736
1311.28823	0.10530
1307.43150	0.10216
1303.57477	0.10087
1299.71804	0.09861
1295.86130	0.09538
1292.00457	0.09493
1288.14784	0.09764
1284.29111	0.10076
1280.43438	0.10297
1276.57765	0.10257
1272.72092	0.09931
1268.86419	0.09847
1265.00746	0.10299
1261.15073	0.10689
1257.29400	0.10526
1253.43727	0.10080
1249.58054	0.09970
1245.72381	0.10189
1241.86708	0.10178
1238.01035	0.09963
1234.15362	0.09947
1230.29689	0.10464
1226.44016	0.10738
1222.58343	0.10274
1218.72670	0.09544
1214.86997	0.09407
1211.01324	0.10017
1207.15651	0.10594
1203.29978	0.10604
1199.44305	0.10560
1195.58632	0.10810
1191.72959	0.11139
1187.87286	0.11209
1184.01613	0.10613
1180.15940	0.09605
1176.30267	0.09254
1172.44594	0.10126
1168.58921	0.11062
1164.73248	0.11406
1160.87575	0.11849
1157.01902	0.12350
1153.16229	0.12124
1149.30556	0.11207
1145.44883	0.10532
1141.59210	0.10549
1137.73537	0.10538
1133.87864	0.10174
1130.02191	0.09884
1126.16518	0.09780
1122.30845	0.09748
1118.45172	0.09710
1114.59499	0.09583
1110.73826	0.09536
1106.88153	0.09709
1103.02480	0.10215
1099.16807	0.11000
1095.31134	0.11332
1091.45461	0.10639
1087.59788	0.09605
1083.74115	0.09338
1079.88442	0.09561
1076.02769	0.09650
1072.17096	0.09635
1068.31423	0.09431
1064.45750	0.09592
1060.60077	0.10621
1056.74404	0.11381
1052.88731	0.10936
1049.03058	0.10116
1045.17385	0.09901
1041.31712	0.10062
1037.46039	0.10029
1033.60366	0.09919
1029.74693	0.10047
1025.89020	0.10363
1022.03347	0.10418
1018.17674	0.09995
1014.32001	0.09753
1010.46328	0.10377
1006.60655	0.11082
1002.74982	0.10977
998.89309	0.10652
995.03636	0.10619
991.17963	0.10608
987.32290	0.10617
983.46617	0.10761
979.60944	0.10763
975.75271	0.10391
971.89598	0.09977
968.03925	0.10025
964.18252	0.10288
960.32579	0.10296
956.46906	0.10287
952.61233	0.10582
948.75560	0.11107
944.89887	0.11431
941.04214	0.11340
937.18541	0.11283
933.32868	0.11233
929.47195	0.10669
925.61522	0.10240
921.75849	0.10473
917.90176	0.10617
914.04503	0.10297
910.18830	0.09751
906.33157	0.09445
902.47484	0.09760
898.61811	0.10152
894.76138	0.09877
890.90465	0.09552
887.04792	0.09634
883.19119	0.09553
879.33446	0.09480
875.47773	0.10003
871.62100	0.10747
867.76427	0.11153
863.90754	0.10943
860.05081	0.10566
856.19408	0.10990
852.33735	0.11935
848.48062	0.12367
844.62389	0.11914
840.76716	0.10945
836.91043	0.10052
833.05370	0.09796
829.19697	0.09913
825.34024	0.09542
821.48351	0.08892
817.62678	0.08788
813.77005	0.09127
809.91332	0.09647
806.05659	0.10138
802.19986	0.10363
798.34313	0.10460
794.48640	0.10548
790.62967	0.10401
786.77294	0.09831
782.91621	0.09152
779.05947	0.08975
775.20274	0.09586
771.34601	0.10377
767.48928	0.10407
763.63255	0.09802
759.77582	0.09396
755.91909	0.09455
752.06236	0.09681
748.20563	0.09967
744.34890	0.09878
740.49217	0.09316
736.63544	0.09076
732.77871	0.09532
728.92198	0.10161
725.06525	0.10537
721.20852	0.10818
717.35179	0.10868
713.49506	0.10461
709.63833	0.10028
705.78160	0.09781
701.92487	0.09816
698.06814	0.10048
694.21141	0.09700
690.35468	0.09354
686.49795	0.10268
682.64122	0.11330
678.78449	0.11477
674.92776	0.11615
671.07103	0.12291
667.21430	0.12661
663.35757	0.12398
659.50084	0.12095
655.64411	0.11789
651.78738	0.11776
647.93065	0.12135
644.07392	0.11959
640.21719	0.11021
636.36046	0.10187
632.50373	0.10271
628.64700	0.11342
624.79027	0.12372
620.93354	0.12794
617.07681	0.12587
613.22008	0.11952
609.36335	0.11754
605.50662	0.12053
601.64989	0.12431
597.79316	0.12188
