3995.57236	0.14520
3991.71563	0.14727
3987.85890	0.14902
3984.00217	0.15086
3980.14544	0.15304
3976.28871	0.15452
3972.43198	0.15460
3968.57525	0.15395
3964.71852	0.15383
3960.86179	0.15583
3957.00506	0.15929
3953.14833	0.16126
3949.29160	0.16192
3945.43487	0.16271
3941.57814	0.16283
3937.72141	0.16254
3933.86468	0.16247
3930.00795	0.16251
3926.15122	0.16284
3922.29449	0.16410
3918.43776	0.16594
3914.58103	0.16729
3910.72430	0.16850
3906.86757	0.16962
3903.01084	0.16940
3899.15411	0.16933
3895.29737	0.17131
3891.44064	0.17424
3887.58391	0.17669
3883.72718	0.17725
3879.87045	0.17544
3876.01372	0.17300
3872.15699	0.17172
3868.30026	0.17246
3864.44353	0.17460
3860.58680	0.17727
3856.73007	0.17925
3852.87334	0.17996
3849.01661	0.18053
3845.15988	0.18065
3841.30315	0.18097
3837.44642	0.18400
3833.58969	0.18694
3829.73296	0.18609
3825.87623	0.18252
3822.01950	0.17835
3818.16277	0.17753
3814.30604	0.18097
3810.44931	0.18335
3806.59258	0.18198
3802.73585	0.17993
3798.87912	0.18182
3795.02239	0.18432
3791.16566	0.18371
3787.30893	0.18262
3783.45220	0.18330
3779.59547	0.18347
3775.73874	0.18195
3771.88201	0.18006
3768.02528	0.17856
3764.16855	0.17749
3760.31182	0.17644
3756.45509	0.17628
3752.59836	0.17693
3748.74163	0.17637
3744.88490	0.17608
3741.02817	0.17740
3737.17144	0.17800
3733.31471	0.17562
3729.45798	0.17071
3725.60125	0.16582
3721.74452	0.16151
3717.88779	0.15727
3714.03106	0.15293
3710.17433	0.14990
3706.31760	0.14925
3702.46087	0.14734
3698.60414	0.14247
3694.74741	0.13605
3690.89068	0.12644
3687.03395	0.11690
3683.17722	0.11339
3679.32049	0.11113
3675.46376	0.10644
3671.60703	0.10148
3667.75030	0.09872
3663.89357	0.09585
3660.03684	0.09105
3656.18011	0.08703
3652.32338	0.08628
3648.46665	0.08536
3644.60992	0.08325
3640.75319	0.08132
3636.89646	0.07775
3633.03973	0.07355
3629.18300	0.07317
3625.32627	0.07577
3621.46954	0.07769
3617.61281	0.07944
3613.75608	0.07953
3609.89935	0.07718
3606.04262	0.07568
3602.18589	0.07560
3598.32916	0.07453
3594.47243	0.07320
3590.61570	0.07367
3586.75897	0.07531
3582.90224	0.07711
3579.04551	0.07803
3575.18878	0.07895
3571.33205	0.08004
3567.47532	0.07814
3563.61859	0.07438
3559.76186	0.07408
3555.90513	0.07681
3552.04840	0.07904
3548.19167	0.07862
3544.33494	0.07764
3540.47821	0.07872
3536.62148	0.07994
3532.76475	0.07783
3528.90802	0.07360
3525.05129	0.07203
3521.19456	0.07325
3517.33783	0.07393
3513.48110	0.07531
3509.62437	0.07855
3505.76764	0.08061
3501.91091	0.08119
3498.05418	0.08266
3494.19745	0.08362
3490.34072	0.08097
3486.48399	0.07684
3482.62726	0.07473
3478.77053	0.07625
3474.91380	0.08099
3471.05707	0.08512
3467.20034	0.08602
3463.34361	0.08465
3459.48688	0.08326
3455.63015	0.08241
3451.77342	0.08055
3447.91669	0.07784
3444.05996	0.07448
3440.20323	0.07206
3436.34650	0.07496
3432.48977	0.08053
3428.63304	0.08197
3424.77631	0.07955
3420.91958	0.07879
3417.06285	0.08084
3413.20612	0.08104
3409.34939	0.07859
3405.49266	0.07932
3401.63593	0.08573
3397.77920	0.09020
3393.92247	0.08739
3390.06574	0.08127
3386.20901	0.07689
3382.35228	0.07611
3378.49555	0.07892
3374.63881	0.08344
3370.78208	0.08545
3366.92535	0.08410
3363.06862	0.08161
3359.21189	0.07873
3355.35516	0.07703
3351.49843	0.07746
3347.64170	0.07732
3343.78497	0.07496
3339.92824	0.07453
3336.07151	0.08033
3332.21478	0.08730
3328.35805	0.08752
3324.50132	0.08315
3320.64459	0.08172
3316.78786	0.08254
3312.93113	0.08265
3309.07440	0.08366
3305.21767	0.08335
3301.36094	0.07956
3297.50421	0.07670
3293.64748	0.07764
3289.79075	0.08152
3285.93402	0.08625
3282.07729	0.08912
3278.22056	0.08867
3274.36383	0.08579
3270.50710	0.08282
3266.65037	0.08294
3262.79364	0.08442
3258.93691	0.08390
3255.08018	0.08316
3251.22345	0.08263
3247.36672	0.08134
3243.50999	0.08230
3239.65326	0.08539
3235.79653	0.08660
3231.93980	0.08563
3228.08307	0.08541
3224.22634	0.08593
3220.36961	0.08378
3216.51288	0.08000
3212.65615	0.07866
3208.79942	0.07958
3204.94269	0.08247
3201.08596	0.08653
3197.22923	0.08801
3193.37250	0.08702
3189.51577	0.08688
3185.65904	0.08745
3181.80231	0.08695
3177.94558	0.08545
3174.08885	0.08507
3170.23212	0.08704
3166.37539	0.08912
3162.51866	0.08839
3158.66193	0.08616
3154.80520	0.08523
3150.94847	0.08650
3147.09174	0.08769
3143.23501	0.08659
3139.37828	0.08546
3135.52155	0.08663
3131.66482	0.08839
3127.80809	0.08794
3123.95136	0.08526
3120.09463	0.08338
3116.23790	0.08391
3112.38117	0.08537
3108.52444	0.08707
3104.66771	0.08826
3100.81098	0.08758
3096.95425	0.08611
3093.09752	0.08555
3089.24079	0.08625
3085.38406	0.08752
3081.52733	0.08796
3077.67060	0.08717
3073.81387	0.08628
3069.95714	0.08660
3066.10041	0.08738
3062.24368	0.08720
3058.38695	0.08721
3054.53022	0.08818
3050.67349	0.08879
3046.81676	0.08847
3042.96003	0.08755
3039.10330	0.08711
3035.24657	0.08761
3031.38984	0.08757
3027.53311	0.08689
3023.67638	0.08701
3019.81965	0.08809
3015.96292	0.08953
3012.10619	0.09028
3008.24946	0.08966
3004.39273	0.08876
3000.53600	0.08743
2996.67927	0.08428
2992.82254	0.08209
2988.96581	0.08493
2985.10908	0.08983
2981.25235	0.09140
2977.39562	0.08982
2973.53889	0.08780
2969.68216	0.08696
2965.82543	0.08845
2961.96870	0.09044
2958.11197	0.09142
2954.25524	0.09206
2950.39851	0.09144
2946.54178	0.08924
2942.68505	0.08749
2938.82832	0.08600
2934.97159	0.08450
2931.11486	0.08436
2927.25813	0.08541
2923.40140	0.08664
2919.54467	0.08766
2915.68794	0.09000
2911.83121	0.09314
2907.97448	0.09368
2904.11775	0.09279
2900.26102	0.09215
2896.40429	0.09081
2892.54756	0.09070
2888.69083	0.09250
2884.83410	0.09238
2880.97737	0.09050
2877.12064	0.08985
2873.26391	0.08968
2869.40718	0.08911
2865.55045	0.08862
2861.69372	0.08909
2857.83698	0.09157
2853.98025	0.09395
2850.12352	0.09336
2846.26679	0.09060
2842.41006	0.08854
2838.55333	0.08903
2834.69660	0.09069
2830.83987	0.09132
2826.98314	0.09086
2823.12641	0.09062
2819.26968	0.09226
2815.41295	0.09501
2811.55622	0.09579
2807.69949	0.09434
2803.84276	0.09268
2799.98603	0.09146
2796.12930	0.09066
2792.27257	0.09066
2788.41584	0.09091
2784.55911	0.09110
2780.70238	0.09235
2776.84565	0.09437
2772.98892	0.09519
2769.13219	0.09428
2765.27546	0.09247
2761.41873	0.09067
2757.56200	0.09005
2753.70527	0.09119
2749.84854	0.09302
2745.99181	0.09386
2742.13508	0.09356
2738.27835	0.09348
2734.42162	0.09346
2730.56489	0.09253
2726.70816	0.09113
2722.85143	0.08992
2718.99470	0.08924
2715.13797	0.08967
2711.28124	0.09097
2707.42451	0.09238
2703.56778	0.09418
2699.71105	0.09594
2695.85432	0.09663
2691.99759	0.09655
2688.14086	0.09641
2684.28413	0.09619
2680.42740	0.09605
2676.57067	0.09650
2672.71394	0.09739
2668.85721	0.09844
2665.00048	0.09880
2661.14375	0.09751
2657.28702	0.09583
2653.43029	0.09525
2649.57356	0.09503
2645.71683	0.09476
2641.86010	0.09516
2638.00337	0.09591
2634.14664	0.09654
2630.28991	0.09694
2626.43318	0.09616
2622.57645	0.09510
2618.71972	0.09589
2614.86299	0.09753
2611.00626	0.09825
2607.14953	0.09846
2603.29280	0.09848
2599.43607	0.09778
2595.57934	0.09640
2591.72261	0.09476
2587.86588	0.09373
2584.00915	0.09356
2580.15242	0.09359
2576.29569	0.09356
2572.43896	0.09402
2568.58223	0.09523
2564.72550	0.09567
2560.86877	0.09445
2557.01204	0.09322
2553.15531	0.09244
2549.29858	0.09186
2545.44185	0.09269
2541.58512	0.09476
2537.72839	0.09640
2533.87166	0.09680
2530.01493	0.09623
2526.15820	0.09581
2522.30147	0.09646
2518.44474	0.09744
2514.58801	0.09765
2510.73128	0.09805
2506.87455	0.09872
2503.01782	0.09826
2499.16109	0.09775
2495.30436	0.09800
2491.44763	0.09794
2487.59090	0.09840
2483.73417	0.09965
2479.87744	0.10009
2476.02071	0.09963
2472.16398	0.09901
2468.30725	0.09845
2464.45052	0.09861
2460.59379	0.09986
2456.73706	0.10109
2452.88033	0.10104
2449.02360	0.10001
2445.16687	0.09973
2441.31014	0.10084
2437.45341	0.10188
2433.59668	0.10216
2429.73995	0.10248
2425.88322	0.10279
2422.02649	0.10225
2418.16976	0.10136
2414.31303	0.10106
2410.45630	0.10176
2406.59957	0.10397
2402.74284	0.10647
2398.88611	0.10740
2395.02938	0.10636
2391.17265	0.10446
2387.31592	0.10390
2383.45919	0.10543
2379.60246	0.10769
2375.74573	0.10927
2371.88900	0.10971
2368.03227	0.10853
2364.17554	0.10765
2360.31881	0.11069
2356.46208	0.11120
2352.60535	0.10906
2348.74862	0.10928
2344.89189	0.10963
2341.03516	0.10675
2337.17842	0.10570
2333.32169	0.10938
2329.46496	0.11052
2325.60823	0.10825
2321.75150	0.10699
2317.89477	0.10610
2314.03804	0.10470
2310.18131	0.10448
2306.32458	0.10585
2302.46785	0.10722
2298.61112	0.10830
2294.75439	0.10937
2290.89766	0.10971
2287.04093	0.10949
2283.18420	0.10902
2279.32747	0.10818
2275.47074	0.10762
2271.61401	0.10733
2267.75728	0.10714
2263.90055	0.10778
2260.04382	0.10869
2256.18709	0.10860
2252.33036	0.10840
2248.47363	0.10908
2244.61690	0.10937
2240.76017	0.10866
2236.90344	0.10852
2233.04671	0.10954
2229.18998	0.11023
2225.33325	0.11003
2221.47652	0.10945
2217.61979	0.10847
2213.76306	0.10746
2209.90633	0.10689
2206.04960	0.10624
2202.19287	0.10539
2198.33614	0.10554
2194.47941	0.10712
2190.62268	0.10877
2186.76595	0.10897
2182.90922	0.10762
2179.05249	0.10616
2175.19576	0.10526
2171.33903	0.10406
2167.48230	0.10302
2163.62557	0.10318
2159.76884	0.10351
2155.91211	0.10283
2152.05538	0.10154
2148.19865	0.10057
2144.34192	0.10055
2140.48519	0.10146
2136.62846	0.10246
2132.77173	0.10280
2128.91500	0.10268
2125.05827	0.10294
2121.20154	0.10350
2117.34481	0.10345
2113.48808	0.10347
2109.63135	0.10443
2105.77462	0.10493
2101.91789	0.10384
2098.06116	0.10299
2094.20443	0.10403
2090.34770	0.10558
2086.49097	0.10573
2082.63424	0.10443
2078.77751	0.10268
2074.92078	0.10122
2071.06405	0.10087
2067.20732	0.10239
2063.35059	0.10443
2059.49386	0.10476
2055.63713	0.10404
2051.78040	0.10363
2047.92367	0.10347
2044.06694	0.10381
2040.21021	0.10455
2036.35348	0.10513
2032.49675	0.10589
2028.64002	0.10670
2024.78329	0.10669
2020.92656	0.10619
2017.06983	0.10635
2013.21310	0.10707
2009.35637	0.10717
2005.49964	0.10661
2001.64291	0.10668
1997.78618	0.10748
1993.92945	0.10742
1990.07272	0.10596
1986.21599	0.10498
1982.35926	0.10564
1978.50253	0.10624
1974.64580	0.10560
1970.78907	0.10487
1966.93234	0.10472
1963.07561	0.10483
1959.21888	0.10510
1955.36215	0.10526
1951.50542	0.10563
1947.64869	0.10656
1943.79196	0.10791
1939.93523	0.10944
1936.07850	0.11059
1932.22177	0.11100
1928.36504	0.11018
1924.50831	0.10862
1920.65158	0.10756
1916.79485	0.10654
1912.93812	0.10522
1909.08139	0.10497
1905.22466	0.10631
1901.36793	0.10802
1897.51120	0.10847
1893.65447	0.10743
1889.79774	0.10568
1885.94101	0.10397
1882.08428	0.10320
1878.22755	0.10365
1874.37082	0.10469
1870.51409	0.10518
1866.65736	0.10483
1862.80063	0.10520
1858.94390	0.10617
1855.08717	0.10582
1851.23044	0.10415
1847.37371	0.10220
1843.51698	0.10077
1839.66025	0.10072
1835.80352	0.10084
1831.94679	0.10028
1828.09006	0.09996
1824.23333	0.09911
1820.37660	0.09708
1816.51986	0.09532
1812.66313	0.09413
1808.80640	0.09298
1804.94967	0.09167
1801.09294	0.08957
1797.23621	0.08664
1793.37948	0.08427
1789.52275	0.08321
1785.66602	0.08305
1781.80929	0.08301
1777.95256	0.08163
1774.09583	0.07827
1770.23910	0.07528
1766.38237	0.07494
1762.52564	0.07597
1758.66891	0.07759
1754.81218	0.07931
1750.95545	0.07907
1747.09872	0.07632
1743.24199	0.07476
1739.38526	0.07619
1735.52853	0.07776
1731.67180	0.07538
1727.81507	0.07098
1723.95834	0.06868
1720.10161	0.06781
1716.24488	0.06571
1712.38815	0.06336
1708.53142	0.06349
1704.67469	0.06576
1700.81796	0.06695
1696.96123	0.06507
1693.10450	0.06395
1689.24777	0.06478
1685.39104	0.06590
1681.53431	0.06731
1677.67758	0.06973
1673.82085	0.07240
1669.96412	0.07434
1666.10739	0.07503
1662.25066	0.07527
1658.39393	0.07693
1654.53720	0.08040
1650.68047	0.08289
1646.82374	0.08361
1642.96701	0.08496
1639.11028	0.08596
1635.25355	0.08634
1631.39682	0.08678
1627.54009	0.08806
1623.68336	0.09112
1619.82663	0.09378
1615.96990	0.09309
1612.11317	0.09110
1608.25644	0.08991
1604.39971	0.08875
1600.54298	0.08694
1596.68625	0.08482
1592.82952	0.08332
1588.97279	0.08293
1585.11606	0.08366
1581.25933	0.08501
1577.40260	0.08522
1573.54587	0.08346
1569.68914	0.08217
1565.83241	0.08288
1561.97568	0.08609
1558.11895	0.09200
1554.26222	0.09550
1550.40549	0.09579
1546.54876	0.09544
1542.69203	0.09522
1538.83530	0.09676
1534.97857	0.09958
1531.12184	0.10093
1527.26511	0.10010
1523.40838	0.09974
1519.55165	0.10258
1515.69492	0.10546
1511.83819	0.10634
1507.98146	0.10548
1504.12473	0.10423
1500.26800	0.10324
1496.41127	0.10093
1492.55454	0.09737
1488.69781	0.09475
1484.84108	0.09396
1480.98435	0.09391
1477.12762	0.09388
1473.27089	0.09401
1469.41416	0.09466
1465.55743	0.09490
1461.70070	0.09257
1457.84397	0.08857
1453.98724	0.08819
1450.13051	0.09158
1446.27378	0.09494
1442.41705	0.09612
1438.56032	0.09459
1434.70359	0.09095
1430.84686	0.08768
1426.99013	0.08592
1423.13340	0.08565
1419.27667	0.08631
1415.41994	0.08691
1411.56321	0.08767
1407.70648	0.08851
1403.84975	0.08900
1399.99302	0.08993
1396.13629	0.09235
1392.27956	0.09466
1388.42283	0.09395
1384.56610	0.09065
1380.70937	0.08743
1376.85264	0.08616
1372.99591	0.08753
1369.13918	0.08896
1365.28245	0.08850
1361.42572	0.08834
1357.56899	0.08888
1353.71226	0.08810
1349.85553	0.08734
1345.99880	0.08833
1342.14207	0.09069
1338.28534	0.09375
1334.42861	0.09509
1330.57188	0.09271
1326.71515	0.08891
1322.85842	0.08720
1319.00169	0.08697
1315.14496	0.08635
1311.28823	0.08591
1307.43150	0.08520
1303.57477	0.08475
1299.71804	0.08610
1295.86130	0.08652
1292.00457	0.08409
1288.14784	0.08121
1284.29111	0.08051
1280.43438	0.08247
1276.57765	0.08586
1272.72092	0.08890
1268.86419	0.08886
1265.00746	0.08691
1261.15073	0.08512
1257.29400	0.08395
1253.43727	0.08616
1249.58054	0.08914
1245.72381	0.08799
1241.86708	0.08567
1238.01035	0.08405
1234.15362	0.08315
1230.29689	0.08405
1226.44016	0.08455
1222.58343	0.08473
1218.72670	0.08615
1214.86997	0.08890
1211.01324	0.09038
1207.15651	0.08793
1203.29978	0.08489
1199.44305	0.08419
1195.58632	0.08544
1191.72959	0.09074
1187.87286	0.09529
1184.01613	0.09602
1180.15940	0.09318
1176.30267	0.09048
1172.44594	0.09125
1168.58921	0.09003
1164.73248	0.08609
1160.87575	0.08855
1157.01902	0.09646
1153.16229	0.10099
1149.30556	0.10188
1145.44883	0.10170
1141.59210	0.09915
1137.73537	0.09438
1133.87864	0.09139
1130.02191	0.09244
1126.16518	0.09357
1122.30845	0.09468
1118.45172	0.09645
1114.59499	0.09552
1110.73826	0.09313
1106.88153	0.08926
1103.02480	0.08498
1099.16807	0.08556
1095.31134	0.08954
1091.45461	0.09171
1087.59788	0.09249
1083.74115	0.09280
1079.88442	0.08994
1076.02769	0.08697
1072.17096	0.08752
1068.31423	0.09069
1064.45750	0.09484
1060.60077	0.09431
1056.74404	0.08930
1052.88731	0.08494
1049.03058	0.08122
1045.17385	0.08074
1041.31712	0.08569
1037.46039	0.09022
1033.60366	0.09278
1029.74693	0.09608
1025.89020	0.09580
1022.03347	0.09046
1018.17674	0.08657
1014.32001	0.08541
1010.46328	0.08480
1006.60655	0.08577
1002.74982	0.08742
998.89309	0.08830
995.03636	0.08898
991.17963	0.08804
987.32290	0.08444
983.46617	0.08193
979.60944	0.08265
975.75271	0.08400
971.89598	0.08497
968.03925	0.08708
964.18252	0.08898
960.32579	0.08670
956.46906	0.08296
952.61233	0.08355
948.75560	0.08731
944.89887	0.08825
941.04214	0.08541
937.18541	0.08351
933.32868	0.08509
929.47195	0.08703
925.61522	0.08752
921.75849	0.08686
917.90176	0.08406
914.04503	0.08107
910.18830	0.08146
906.33157	0.08451
902.47484	0.08660
898.61811	0.08485
894.76138	0.08108
890.90465	0.08040
887.04792	0.08160
883.19119	0.08034
879.33446	0.08006
875.47773	0.08347
871.62100	0.08765
867.76427	0.09102
863.90754	0.09261
860.05081	0.09059
856.19408	0.08651
852.33735	0.08530
848.48062	0.08541
844.62389	0.08359
840.76716	0.08375
836.91043	0.08640
833.05370	0.08644
829.19697	0.08351
825.34024	0.08185
821.48351	0.08387
817.62678	0.08642
813.77005	0.08585
809.91332	0.08459
806.05659	0.08530
802.19986	0.08453
798.34313	0.08334
794.48640	0.08420
790.62967	0.08699
786.77294	0.09115
782.91621	0.09365
779.05947	0.09117
775.20274	0.08675
771.34601	0.08258
767.48928	0.08002
763.63255	0.08173
759.77582	0.08560
755.91909	0.08930
752.06236	0.09102
748.20563	0.08742
744.34890	0.08161
740.49217	0.07914
736.63544	0.08061
732.77871	0.08387
728.92198	0.08769
725.06525	0.09295
721.20852	0.09846
717.35179	0.10111
713.49506	0.10054
709.63833	0.09792
705.78160	0.09378
701.92487	0.08978
698.06814	0.08692
694.21141	0.08496
690.35468	0.08543
686.49795	0.09154
682.64122	0.09659
678.78449	0.09368
674.92776	0.08838
671.07103	0.08997
667.21430	0.09794
663.35757	0.09888
659.50084	0.09013
655.64411	0.08324
651.78738	0.08515
647.93065	0.09256
644.07392	0.09956
640.21719	0.09966
636.36046	0.09269
632.50373	0.08681
628.64700	0.08563
624.79027	0.08931
620.93354	0.09675
617.07681	0.10491
613.22008	0.10950
609.36335	0.10708
605.50662	0.10581
601.64989	0.10908
597.79316	0.10815
