3995.57236	0.18480
3991.71563	0.18435
3987.85890	0.18312
3984.00217	0.18375
3980.14544	0.18430
3976.28871	0.18228
3972.43198	0.18013
3968.57525	0.18259
3964.71852	0.18924
3960.86179	0.19430
3957.00506	0.19566
3953.14833	0.19497
3949.29160	0.19359
3945.43487	0.19367
3941.57814	0.19655
3937.72141	0.20055
3933.86468	0.20219
3930.00795	0.20056
3926.15122	0.19952
3922.29449	0.20083
3918.43776	0.20216
3914.58103	0.20216
3910.72430	0.20184
3906.86757	0.20344
3903.01084	0.20635
3899.15411	0.20715
3895.29737	0.20638
3891.44064	0.20689
3887.58391	0.20853
3883.72718	0.20964
3879.87045	0.20993
3876.01372	0.21018
3872.15699	0.21036
3868.30026	0.21007
3864.44353	0.21019
3860.58680	0.21251
3856.73007	0.21710
3852.87334	0.22042
3849.01661	0.21998
3845.15988	0.21917
3841.30315	0.21974
3837.44642	0.22050
3833.58969	0.22014
3829.73296	0.21948
3825.87623	0.21993
3822.01950	0.22068
3818.16277	0.21910
3814.30604	0.21573
3810.44931	0.21355
3806.59258	0.21301
3802.73585	0.21348
3798.87912	0.21406
3795.02239	0.21369
3791.16566	0.21356
3787.30893	0.21376
3783.45220	0.21181
3779.59547	0.20891
3775.73874	0.20923
3771.88201	0.21193
3768.02528	0.21405
3764.16855	0.21455
3760.31182	0.21346
3756.45509	0.21135
3752.59836	0.20790
3748.74163	0.20454
3744.88490	0.20385
3741.02817	0.20332
3737.17144	0.20159
3733.31471	0.20107
3729.45798	0.20022
3725.60125	0.19582
3721.74452	0.19074
3717.88779	0.18909
3714.03106	0.18980
3710.17433	0.18929
3706.31760	0.18598
3702.46087	0.18129
3698.60414	0.17627
3694.74741	0.17227
3690.89068	0.16997
3687.03395	0.16789
3683.17722	0.16469
3679.32049	0.16060
3675.46376	0.15731
3671.60703	0.15412
3667.75030	0.14537
3663.89357	0.13513
3660.03684	0.13016
3656.18011	0.12731
3652.32338	0.12131
3648.46665	0.11333
3644.60992	0.10811
3640.75319	0.10555
3636.89646	0.10356
3633.03973	0.10248
3629.18300	0.10317
3625.32627	0.10242
3621.46954	0.09828
3617.61281	0.09477
3613.75608	0.09389
3609.89935	0.09258
3606.04262	0.09156
3602.18589	0.09282
3598.32916	0.09380
3594.47243	0.09370
3590.61570	0.09417
3586.75897	0.09461
3582.90224	0.09451
3579.04551	0.09465
3575.18878	0.09460
3571.33205	0.09367
3567.47532	0.09238
3563.61859	0.09263
3559.76186	0.09371
3555.90513	0.09390
3552.04840	0.09553
3548.19167	0.09845
3544.33494	0.09650
3540.47821	0.08982
3536.62148	0.08628
3532.76475	0.08756
3528.90802	0.09041
3525.05129	0.09064
3521.19456	0.08733
3517.33783	0.08663
3513.48110	0.08861
3509.62437	0.08761
3505.76764	0.08608
3501.91091	0.08878
3498.05418	0.09263
3494.19745	0.09141
3490.34072	0.08772
3486.48399	0.08759
3482.62726	0.08819
3478.77053	0.08514
3474.91380	0.08170
3471.05707	0.08163
3467.20034	0.08163
3463.34361	0.07750
3459.48688	0.07323
3455.63015	0.07360
3451.77342	0.07704
3447.91669	0.07829
3444.05996	0.07878
3440.20323	0.08273
3436.34650	0.08620
3432.48977	0.08538
3428.63304	0.08373
3424.77631	0.08483
3420.91958	0.08641
3417.06285	0.08570
3413.20612	0.08595
3409.34939	0.08718
3405.49266	0.08421
3401.63593	0.08031
3397.77920	0.07974
3393.92247	0.07985
3390.06574	0.08004
3386.20901	0.08130
3382.35228	0.08129
3378.49555	0.07967
3374.63881	0.08078
3370.78208	0.08621
3366.92535	0.09094
3363.06862	0.08989
3359.21189	0.08607
3355.35516	0.08504
3351.49843	0.08704
3347.64170	0.08775
3343.78497	0.08574
3339.92824	0.08388
3336.07151	0.08255
3332.21478	0.07980
3328.35805	0.07736
3324.50132	0.07676
3320.64459	0.07550
3316.78786	0.07448
3312.93113	0.07738
3309.07440	0.08355
3305.21767	0.08832
3301.36094	0.08751
3297.50421	0.08278
3293.64748	0.07970
3289.79075	0.08154
3285.93402	0.08552
3282.07729	0.08664
3278.22056	0.08495
3274.36383	0.08385
3270.50710	0.08551
3266.65037	0.08946
3262.79364	0.09208
3258.93691	0.09207
3255.08018	0.08981
3251.22345	0.08545
3247.36672	0.08178
3243.50999	0.08237
3239.65326	0.08587
3235.79653	0.08791
3231.93980	0.08673
3228.08307	0.08534
3224.22634	0.08589
3220.36961	0.08784
3216.51288	0.09018
3212.65615	0.09106
3208.79942	0.09069
3204.94269	0.09261
3201.08596	0.09474
3197.22923	0.09194
3193.37250	0.08586
3189.51577	0.08325
3185.65904	0.08424
3181.80231	0.08359
3177.94558	0.08205
3174.08885	0.08351
3170.23212	0.08760
3166.37539	0.09017
3162.51866	0.09011
3158.66193	0.09018
3154.80520	0.09082
3150.94847	0.09072
3147.09174	0.09107
3143.23501	0.09425
3139.37828	0.09819
3135.52155	0.09872
3131.66482	0.09606
3127.80809	0.09384
3123.95136	0.09430
3120.09463	0.09573
3116.23790	0.09582
3112.38117	0.09452
3108.52444	0.09335
3104.66771	0.09394
3100.81098	0.09547
3096.95425	0.09602
3093.09752	0.09705
3089.24079	0.09919
3085.38406	0.09925
3081.52733	0.09724
3077.67060	0.09625
3073.81387	0.09568
3069.95714	0.09505
3066.10041	0.09561
3062.24368	0.09592
3058.38695	0.09489
3054.53022	0.09408
3050.67349	0.09413
3046.81676	0.09438
3042.96003	0.09428
3039.10330	0.09351
3035.24657	0.09224
3031.38984	0.09051
3027.53311	0.08871
3023.67638	0.08772
3019.81965	0.08875
3015.96292	0.09125
3012.10619	0.09319
3008.24946	0.09433
3004.39273	0.09381
3000.53600	0.09181
2996.67927	0.09145
2992.82254	0.09196
2988.96581	0.09163
2985.10908	0.09320
2981.25235	0.09653
2977.39562	0.09661
2973.53889	0.09323
2969.68216	0.08950
2965.82543	0.08727
2961.96870	0.08775
2958.11197	0.08703
2954.25524	0.08405
2950.39851	0.08764
2946.54178	0.09583
2942.68505	0.09899
2938.82832	0.09820
2934.97159	0.09939
2931.11486	0.10082
2927.25813	0.09868
2923.40140	0.09606
2919.54467	0.09801
2915.68794	0.10287
2911.83121	0.10307
2907.97448	0.09787
2904.11775	0.09345
2900.26102	0.09248
2896.40429	0.09223
2892.54756	0.09134
2888.69083	0.09295
2884.83410	0.09676
2880.97737	0.09925
2877.12064	0.10000
2873.26391	0.09916
2869.40718	0.09755
2865.55045	0.09731
2861.69372	0.09879
2857.83698	0.09931
2853.98025	0.09811
2850.12352	0.09829
2846.26679	0.09967
2842.41006	0.09941
2838.55333	0.09816
2834.69660	0.09715
2830.83987	0.09790
2826.98314	0.09962
2823.12641	0.09844
2819.26968	0.09581
2815.41295	0.09670
2811.55622	0.10038
2807.69949	0.10257
2803.84276	0.10207
2799.98603	0.10165
2796.12930	0.10324
2792.27257	0.10479
2788.41584	0.10434
2784.55911	0.10294
2780.70238	0.10257
2776.84565	0.10320
2772.98892	0.10319
2769.13219	0.10260
2765.27546	0.10274
2761.41873	0.10355
2757.56200	0.10433
2753.70527	0.10408
2749.84854	0.10214
2745.99181	0.10160
2742.13508	0.10484
2738.27835	0.10858
2734.42162	0.10985
2730.56489	0.10881
2726.70816	0.10607
2722.85143	0.10346
2718.99470	0.10381
2715.13797	0.10669
2711.28124	0.10903
2707.42451	0.10926
2703.56778	0.10873
2699.71105	0.10937
2695.85432	0.11005
2691.99759	0.10945
2688.14086	0.10988
2684.28413	0.11112
2680.42740	0.11075
2676.57067	0.11034
2672.71394	0.11147
2668.85721	0.11302
2665.00048	0.11473
2661.14375	0.11629
2657.28702	0.11501
2653.43029	0.11105
2649.57356	0.10941
2645.71683	0.11169
2641.86010	0.11356
2638.00337	0.11297
2634.14664	0.11163
2630.28991	0.11002
2626.43318	0.10781
2622.57645	0.10599
2618.71972	0.10608
2614.86299	0.10802
2611.00626	0.11036
2607.14953	0.11225
2603.29280	0.11315
2599.43607	0.11255
2595.57934	0.11111
2591.72261	0.11087
2587.86588	0.11288
2584.00915	0.11515
2580.15242	0.11492
2576.29569	0.11262
2572.43896	0.11149
2568.58223	0.11379
2564.72550	0.11791
2560.86877	0.11961
2557.01204	0.11750
2553.15531	0.11452
2549.29858	0.11323
2545.44185	0.11351
2541.58512	0.11415
2537.72839	0.11524
2533.87166	0.11713
2530.01493	0.11887
2526.15820	0.11960
2522.30147	0.11935
2518.44474	0.11947
2514.58801	0.12067
2510.73128	0.12163
2506.87455	0.12177
2503.01782	0.12083
2499.16109	0.11874
2495.30436	0.11695
2491.44763	0.11715
2487.59090	0.11901
2483.73417	0.12007
2479.87744	0.12013
2476.02071	0.12125
2472.16398	0.12307
2468.30725	0.12414
2464.45052	0.12474
2460.59379	0.12505
2456.73706	0.12487
2452.88033	0.12477
2449.02360	0.12535
2445.16687	0.12617
2441.31014	0.12649
2437.45341	0.12671
2433.59668	0.12758
2429.73995	0.12875
2425.88322	0.12960
2422.02649	0.12999
2418.16976	0.12987
2414.31303	0.12917
2410.45630	0.12865
2406.59957	0.12913
2402.74284	0.12965
2398.88611	0.12937
2395.02938	0.12904
2391.17265	0.12878
2387.31592	0.12801
2383.45919	0.12749
2379.60246	0.12939
2375.74573	0.13406
2371.88900	0.13799
2368.03227	0.13755
2364.17554	0.13134
2360.31881	0.12220
2356.46208	0.12330
2352.60535	0.13447
2348.74862	0.14299
2344.89189	0.14452
2341.03516	0.13873
2337.17842	0.13214
2333.32169	0.13165
2329.46496	0.13438
2325.60823	0.13678
2321.75150	0.13823
2317.89477	0.13798
2314.03804	0.13710
2310.18131	0.13741
2306.32458	0.13906
2302.46785	0.14002
2298.61112	0.13762
2294.75439	0.13415
2290.89766	0.13461
2287.04093	0.13750
2283.18420	0.13852
2279.32747	0.13778
2275.47074	0.13728
2271.61401	0.13793
2267.75728	0.13843
2263.90055	0.13757
2260.04382	0.13627
2256.18709	0.13581
2252.33036	0.13653
2248.47363	0.13738
2244.61690	0.13799
2240.76017	0.13947
2236.90344	0.14120
2233.04671	0.14143
2229.18998	0.14027
2225.33325	0.13907
2221.47652	0.13833
2217.61979	0.13804
2213.76306	0.13733
2209.90633	0.13556
2206.04960	0.13473
2202.19287	0.13578
2198.33614	0.13676
2194.47941	0.13680
2190.62268	0.13673
2186.76595	0.13659
2182.90922	0.13512
2179.05249	0.13281
2175.19576	0.13124
2171.33903	0.12988
2167.48230	0.12845
2163.62557	0.12836
2159.76884	0.12956
2155.91211	0.13012
2152.05538	0.12924
2148.19865	0.12884
2144.34192	0.13070
2140.48519	0.13304
2136.62846	0.13302
2132.77173	0.13153
2128.91500	0.13093
2125.05827	0.13109
2121.20154	0.13156
2117.34481	0.13261
2113.48808	0.13379
2109.63135	0.13439
2105.77462	0.13393
2101.91789	0.13315
2098.06116	0.13427
2094.20443	0.13661
2090.34770	0.13699
2086.49097	0.13506
2082.63424	0.13278
2078.77751	0.13172
2074.92078	0.13205
2071.06405	0.13296
2067.20732	0.13415
2063.35059	0.13481
2059.49386	0.13411
2055.63713	0.13294
2051.78040	0.13281
2047.92367	0.13420
2044.06694	0.13583
2040.21021	0.13626
2036.35348	0.13607
2032.49675	0.13646
2028.64002	0.13656
2024.78329	0.13550
2020.92656	0.13459
2017.06983	0.13517
2013.21310	0.13720
2009.35637	0.13903
2005.49964	0.13849
2001.64291	0.13609
1997.78618	0.13423
1993.92945	0.13386
1990.07272	0.13427
1986.21599	0.13487
1982.35926	0.13544
1978.50253	0.13566
1974.64580	0.13535
1970.78907	0.13490
1966.93234	0.13500
1963.07561	0.13522
1959.21888	0.13427
1955.36215	0.13238
1951.50542	0.13129
1947.64869	0.13183
1943.79196	0.13308
1939.93523	0.13417
1936.07850	0.13451
1932.22177	0.13400
1928.36504	0.13411
1924.50831	0.13500
1920.65158	0.13576
1916.79485	0.13693
1912.93812	0.13805
1909.08139	0.13809
1905.22466	0.13750
1901.36793	0.13702
1897.51120	0.13718
1893.65447	0.13723
1889.79774	0.13614
1885.94101	0.13512
1882.08428	0.13547
1878.22755	0.13628
1874.37082	0.13615
1870.51409	0.13505
1866.65736	0.13474
1862.80063	0.13535
1858.94390	0.13491
1855.08717	0.13404
1851.23044	0.13375
1847.37371	0.13204
1843.51698	0.12854
1839.66025	0.12603
1835.80352	0.12516
1831.94679	0.12480
1828.09006	0.12444
1824.23333	0.12397
1820.37660	0.12317
1816.51986	0.12208
1812.66313	0.12133
1808.80640	0.12057
1804.94967	0.11891
1801.09294	0.11691
1797.23621	0.11465
1793.37948	0.11215
1789.52275	0.11048
1785.66602	0.10928
1781.80929	0.10784
1777.95256	0.10654
1774.09583	0.10452
1770.23910	0.10131
1766.38237	0.09907
1762.52564	0.09806
1758.66891	0.09674
1754.81218	0.09477
1750.95545	0.09308
1747.09872	0.09278
1743.24199	0.09316
1739.38526	0.09340
1735.52853	0.09471
1731.67180	0.09634
1727.81507	0.09462
1723.95834	0.08987
1720.10161	0.08404
1716.24488	0.07977
1712.38815	0.07796
1708.53142	0.07611
1704.67469	0.07432
1700.81796	0.07392
1696.96123	0.07439
1693.10450	0.07372
1689.24777	0.07168
1685.39104	0.06902
1681.53431	0.06860
1677.67758	0.07242
1673.82085	0.07783
1669.96412	0.08159
1666.10739	0.08194
1662.25066	0.08033
1658.39393	0.08035
1654.53720	0.08171
1650.68047	0.08308
1646.82374	0.08665
1642.96701	0.08897
1639.11028	0.08777
1635.25355	0.08859
1631.39682	0.09390
1627.54009	0.09770
1623.68336	0.09733
1619.82663	0.09527
1615.96990	0.09422
1612.11317	0.09400
1608.25644	0.09308
1604.39971	0.09103
1600.54298	0.08889
1596.68625	0.08648
1592.82952	0.08390
1588.97279	0.08273
1585.11606	0.08314
1581.25933	0.08380
1577.40260	0.08365
1573.54587	0.08301
1569.68914	0.08211
1565.83241	0.08095
1561.97568	0.08115
1558.11895	0.08356
1554.26222	0.08677
1550.40549	0.08955
1546.54876	0.09096
1542.69203	0.09162
1538.83530	0.09412
1534.97857	0.09675
1531.12184	0.09644
1527.26511	0.09460
1523.40838	0.09376
1519.55165	0.09539
1515.69492	0.09867
1511.83819	0.10104
1507.98146	0.10100
1504.12473	0.09994
1500.26800	0.09967
1496.41127	0.09924
1492.55454	0.09674
1488.69781	0.09283
1484.84108	0.09122
1480.98435	0.09359
1477.12762	0.09738
1473.27089	0.09785
1469.41416	0.09394
1465.55743	0.09109
1461.70070	0.09336
1457.84397	0.09911
1453.98724	0.10052
1450.13051	0.09660
1446.27378	0.09335
1442.41705	0.09243
1438.56032	0.09229
1434.70359	0.09204
1430.84686	0.09135
1426.99013	0.09053
1423.13340	0.08950
1419.27667	0.08781
1415.41994	0.08671
1411.56321	0.08669
1407.70648	0.08661
1403.84975	0.08680
1399.99302	0.08765
1396.13629	0.08771
1392.27956	0.08771
1388.42283	0.08951
1384.56610	0.09198
1380.70937	0.09299
1376.85264	0.09210
1372.99591	0.09090
1369.13918	0.09103
1365.28245	0.09127
1361.42572	0.08932
1357.56899	0.08690
1353.71226	0.08733
1349.85553	0.08929
1345.99880	0.08928
1342.14207	0.08790
1338.28534	0.08699
1334.42861	0.08557
1330.57188	0.08392
1326.71515	0.08299
1322.85842	0.08161
1319.00169	0.08108
1315.14496	0.08381
1311.28823	0.08724
1307.43150	0.08737
1303.57477	0.08445
1299.71804	0.08100
1295.86130	0.07774
1292.00457	0.07689
1288.14784	0.07906
1284.29111	0.07981
1280.43438	0.07751
1276.57765	0.07755
1272.72092	0.08227
1268.86419	0.08569
1265.00746	0.08259
1261.15073	0.07947
1257.29400	0.08381
1253.43727	0.09142
1249.58054	0.09644
1245.72381	0.09873
1241.86708	0.10003
1238.01035	0.10012
1234.15362	0.09590
1230.29689	0.08888
1226.44016	0.07869
1222.58343	0.07015
1218.72670	0.07385
1214.86997	0.08552
1211.01324	0.08946
1207.15651	0.07962
1203.29978	0.06973
1199.44305	0.07129
1195.58632	0.07980
1191.72959	0.08661
1187.87286	0.08803
1184.01613	0.08602
1180.15940	0.08647
1176.30267	0.09009
1172.44594	0.08992
1168.58921	0.08609
1164.73248	0.08605
1160.87575	0.08751
1157.01902	0.09154
1153.16229	0.09847
1149.30556	0.09872
1145.44883	0.09121
1141.59210	0.08377
1137.73537	0.07801
1133.87864	0.07284
1130.02191	0.06941
1126.16518	0.07073
1122.30845	0.07922
1118.45172	0.08501
1114.59499	0.08408
1110.73826	0.08557
1106.88153	0.08666
1103.02480	0.08149
1099.16807	0.07986
1095.31134	0.08707
1091.45461	0.09397
1087.59788	0.09515
1083.74115	0.09686
1079.88442	0.10258
1076.02769	0.10800
1072.17096	0.10938
1068.31423	0.10165
1064.45750	0.09148
1060.60077	0.08847
1056.74404	0.08829
1052.88731	0.08607
1049.03058	0.08762
1045.17385	0.09453
1041.31712	0.09780
1037.46039	0.09378
1033.60366	0.09137
1029.74693	0.09638
1025.89020	0.10342
1022.03347	0.10379
1018.17674	0.09396
1014.32001	0.08230
1010.46328	0.07915
1006.60655	0.08380
1002.74982	0.09114
998.89309	0.09598
995.03636	0.09530
991.17963	0.09251
987.32290	0.08995
983.46617	0.08619
979.60944	0.08201
975.75271	0.08093
971.89598	0.08223
968.03925	0.08411
964.18252	0.08730
960.32579	0.08756
956.46906	0.08395
952.61233	0.08177
948.75560	0.08232
944.89887	0.08625
941.04214	0.09345
937.18541	0.09984
933.32868	0.10191
929.47195	0.09818
925.61522	0.09197
921.75849	0.08734
917.90176	0.08505
914.04503	0.08696
910.18830	0.09027
906.33157	0.08840
902.47484	0.08185
898.61811	0.07772
894.76138	0.07946
890.90465	0.08388
887.04792	0.08548
883.19119	0.08349
879.33446	0.07670
875.47773	0.07162
871.62100	0.07928
867.76427	0.09376
863.90754	0.10233
860.05081	0.10260
856.19408	0.09781
852.33735	0.09184
848.48062	0.09023
844.62389	0.09119
840.76716	0.09137
836.91043	0.09157
833.05370	0.09166
829.19697	0.08867
825.34024	0.08291
821.48351	0.07918
817.62678	0.08194
813.77005	0.08845
809.91332	0.08809
806.05659	0.08231
802.19986	0.08549
798.34313	0.09504
794.48640	0.09626
790.62967	0.08994
786.77294	0.08355
782.91621	0.07997
779.05947	0.08144
775.20274	0.08469
771.34601	0.08486
767.48928	0.08409
763.63255	0.08427
759.77582	0.07918
755.91909	0.07418
752.06236	0.07995
748.20563	0.08936
744.34890	0.08809
740.49217	0.07686
736.63544	0.06901
732.77871	0.07115
728.92198	0.07644
725.06525	0.07863
721.20852	0.07734
717.35179	0.07626
713.49506	0.08061
709.63833	0.09015
705.78160	0.09609
701.92487	0.09366
698.06814	0.08879
694.21141	0.08139
690.35468	0.07196
686.49795	0.07232
682.64122	0.08711
678.78449	0.09932
674.92776	0.09917
671.07103	0.08783
667.21430	0.06876
663.35757	0.05987
659.50084	0.06570
655.64411	0.07815
651.78738	0.08966
647.93065	0.09196
644.07392	0.08305
640.21719	0.07519
636.36046	0.07743
632.50373	0.08463
628.64700	0.09027
624.79027	0.09525
620.93354	0.09326
617.07681	0.09398
613.22008	0.09865
609.36335	0.09898
605.50662	0.09764
601.64989	0.09916
597.79316	0.10300
