3995.57236	0.22832
3991.71563	0.22890
3987.85890	0.22719
3984.00217	0.22742
3980.14544	0.22910
3976.28871	0.23066
3972.43198	0.23326
3968.57525	0.23535
3964.71852	0.23571
3960.86179	0.23668
3957.00506	0.23873
3953.14833	0.23909
3949.29160	0.23741
3945.43487	0.23701
3941.57814	0.23928
3937.72141	0.24241
3933.86468	0.24456
3930.00795	0.24483
3926.15122	0.24554
3922.29449	0.24868
3918.43776	0.24996
3914.58103	0.24760
3910.72430	0.24644
3906.86757	0.24739
3903.01084	0.24850
3899.15411	0.24913
3895.29737	0.24855
3891.44064	0.24936
3887.58391	0.25398
3883.72718	0.25783
3879.87045	0.25760
3876.01372	0.25778
3872.15699	0.26030
3868.30026	0.26193
3864.44353	0.26280
3860.58680	0.26444
3856.73007	0.26517
3852.87334	0.26531
3849.01661	0.26616
3845.15988	0.26630
3841.30315	0.26561
3837.44642	0.26481
3833.58969	0.26273
3829.73296	0.26008
3825.87623	0.26108
3822.01950	0.26658
3818.16277	0.27035
3814.30604	0.26912
3810.44931	0.26721
3806.59258	0.26601
3802.73585	0.26554
3798.87912	0.26574
3795.02239	0.26393
3791.16566	0.26165
3787.30893	0.26281
3783.45220	0.26465
3779.59547	0.26253
3775.73874	0.25948
3771.88201	0.25779
3768.02528	0.25587
3764.16855	0.25538
3760.31182	0.25699
3756.45509	0.25662
3752.59836	0.25253
3748.74163	0.24851
3744.88490	0.24610
3741.02817	0.24322
3737.17144	0.24115
3733.31471	0.24039
3729.45798	0.23827
3725.60125	0.23475
3721.74452	0.23177
3717.88779	0.22981
3714.03106	0.22616
3710.17433	0.21848
3706.31760	0.21089
3702.46087	0.20553
3698.60414	0.19994
3694.74741	0.19398
3690.89068	0.18766
3687.03395	0.18047
3683.17722	0.17427
3679.32049	0.16964
3675.46376	0.16423
3671.60703	0.15491
3667.75030	0.14505
3663.89357	0.13831
3660.03684	0.13293
3656.18011	0.12520
3652.32338	0.11507
3648.46665	0.10999
3644.60992	0.11236
3640.75319	0.11376
3636.89646	0.11231
3633.03973	0.11023
3629.18300	0.10933
3625.32627	0.10956
3621.46954	0.11017
3617.61281	0.11051
3613.75608	0.10853
3609.89935	0.10391
3606.04262	0.10006
3602.18589	0.09962
3598.32916	0.10153
3594.47243	0.10345
3590.61570	0.10239
3586.75897	0.09912
3582.90224	0.09756
3579.04551	0.09810
3575.18878	0.10065
3571.33205	0.10486
3567.47532	0.10712
3563.61859	0.10571
3559.76186	0.10394
3555.90513	0.10253
3552.04840	0.09927
3548.19167	0.09460
3544.33494	0.09302
3540.47821	0.09471
3536.62148	0.09604
3532.76475	0.09878
3528.90802	0.10304
3525.05129	0.10316
3521.19456	0.09879
3517.33783	0.09720
3513.48110	0.09832
3509.62437	0.09648
3505.76764	0.09399
3501.91091	0.09560
3498.05418	0.09820
3494.19745	0.09786
3490.34072	0.09604
3486.48399	0.09509
3482.62726	0.09587
3478.77053	0.09772
3474.91380	0.09821
3471.05707	0.09769
3467.20034	0.09809
3463.34361	0.09728
3459.48688	0.09507
3455.63015	0.09496
3451.77342	0.09403
3447.91669	0.08970
3444.05996	0.08713
3440.20323	0.08969
3436.34650	0.09361
3432.48977	0.09451
3428.63304	0.09272
3424.77631	0.09285
3420.91958	0.09602
3417.06285	0.09788
3413.20612	0.09523
3409.34939	0.09151
3405.49266	0.09198
3401.63593	0.09611
3397.77920	0.09838
3393.92247	0.09711
3390.06574	0.09503
3386.20901	0.09497
3382.35228	0.09794
3378.49555	0.09734
3374.63881	0.09016
3370.78208	0.08485
3366.92535	0.08532
3363.06862	0.08803
3359.21189	0.09107
3355.35516	0.09421
3351.49843	0.09639
3347.64170	0.09512
3343.78497	0.09158
3339.92824	0.09214
3336.07151	0.09672
3332.21478	0.09895
3328.35805	0.09709
3324.50132	0.09466
3320.64459	0.09576
3316.78786	0.09906
3312.93113	0.10055
3309.07440	0.10061
3305.21767	0.09953
3301.36094	0.09722
3297.50421	0.09632
3293.64748	0.09756
3289.79075	0.09926
3285.93402	0.10108
3282.07729	0.10287
3278.22056	0.10355
3274.36383	0.10271
3270.50710	0.10128
3266.65037	0.09987
3262.79364	0.09861
3258.93691	0.09839
3255.08018	0.09871
3251.22345	0.09679
3247.36672	0.09266
3243.50999	0.09137
3239.65326	0.09550
3235.79653	0.10054
3231.93980	0.10263
3228.08307	0.10150
3224.22634	0.09928
3220.36961	0.10028
3216.51288	0.10266
3212.65615	0.10142
3208.79942	0.09945
3204.94269	0.10135
3201.08596	0.10433
3197.22923	0.10479
3193.37250	0.10433
3189.51577	0.10301
3185.65904	0.10110
3181.80231	0.10154
3177.94558	0.10286
3174.08885	0.10189
3170.23212	0.10090
3166.37539	0.10255
3162.51866	0.10430
3158.66193	0.10459
3154.80520	0.10435
3150.94847	0.10348
3147.09174	0.10230
3143.23501	0.10209
3139.37828	0.10293
3135.52155	0.10329
3131.66482	0.10229
3127.80809	0.10047
3123.95136	0.09921
3120.09463	0.09963
3116.23790	0.10072
3112.38117	0.10131
3108.52444	0.10175
3104.66771	0.10159
3100.81098	0.10113
3096.95425	0.10102
3093.09752	0.10117
3089.24079	0.10120
3085.38406	0.09954
3081.52733	0.09642
3077.67060	0.09484
3073.81387	0.09656
3069.95714	0.10022
3066.10041	0.10317
3062.24368	0.10485
3058.38695	0.10544
3054.53022	0.10394
3050.67349	0.10154
3046.81676	0.09961
3042.96003	0.09735
3039.10330	0.09646
3035.24657	0.09911
3031.38984	0.10292
3027.53311	0.10357
3023.67638	0.10120
3019.81965	0.09974
3015.96292	0.10012
3012.10619	0.10133
3008.24946	0.10326
3004.39273	0.10517
3000.53600	0.10625
2996.67927	0.10664
2992.82254	0.10605
2988.96581	0.10336
2985.10908	0.09985
2981.25235	0.09804
2977.39562	0.09740
2973.53889	0.09568
2969.68216	0.09287
2965.82543	0.09339
2961.96870	0.09845
2958.11197	0.10322
2954.25524	0.10376
2950.39851	0.10151
2946.54178	0.09989
2942.68505	0.09805
2938.82832	0.09494
2934.97159	0.09382
2931.11486	0.09692
2927.25813	0.10040
2923.40140	0.10168
2919.54467	0.10284
2915.68794	0.10488
2911.83121	0.10713
2907.97448	0.10820
2904.11775	0.10581
2900.26102	0.10226
2896.40429	0.10281
2892.54756	0.10696
2888.69083	0.10996
2884.83410	0.10987
2880.97737	0.10750
2877.12064	0.10418
2873.26391	0.10226
2869.40718	0.10296
2865.55045	0.10500
2861.69372	0.10706
2857.83698	0.10878
2853.98025	0.10891
2850.12352	0.10764
2846.26679	0.10733
2842.41006	0.10770
2838.55333	0.10802
2834.69660	0.10911
2830.83987	0.11014
2826.98314	0.10998
2823.12641	0.10870
2819.26968	0.10739
2815.41295	0.10819
2811.55622	0.11067
2807.69949	0.11136
2803.84276	0.10985
2799.98603	0.10931
2796.12930	0.11000
2792.27257	0.11004
2788.41584	0.10986
2784.55911	0.11020
2780.70238	0.11037
2776.84565	0.11009
2772.98892	0.10948
2769.13219	0.10888
2765.27546	0.10907
2761.41873	0.10930
2757.56200	0.10886
2753.70527	0.10904
2749.84854	0.10996
2745.99181	0.11115
2742.13508	0.11290
2738.27835	0.11438
2734.42162	0.11499
2730.56489	0.11491
2726.70816	0.11418
2722.85143	0.11399
2718.99470	0.11580
2715.13797	0.11795
2711.28124	0.11745
2707.42451	0.11487
2703.56778	0.11361
2699.71105	0.11419
2695.85432	0.11520
2691.99759	0.11607
2688.14086	0.11595
2684.28413	0.11519
2680.42740	0.11520
2676.57067	0.11590
2672.71394	0.11645
2668.85721	0.11681
2665.00048	0.11766
2661.14375	0.11916
2657.28702	0.12054
2653.43029	0.12176
2649.57356	0.12270
2645.71683	0.12265
2641.86010	0.12134
2638.00337	0.11931
2634.14664	0.11822
2630.28991	0.11883
2626.43318	0.11975
2622.57645	0.11989
2618.71972	0.11918
2614.86299	0.11809
2611.00626	0.11754
2607.14953	0.11733
2603.29280	0.11671
2599.43607	0.11647
2595.57934	0.11741
2591.72261	0.11886
2587.86588	0.11980
2584.00915	0.11977
2580.15242	0.11956
2576.29569	0.12033
2572.43896	0.12145
2568.58223	0.12149
2564.72550	0.12047
2560.86877	0.11925
2557.01204	0.11848
2553.15531	0.11860
2549.29858	0.11894
2545.44185	0.11870
2541.58512	0.11920
2537.72839	0.12088
2533.87166	0.12178
2530.01493	0.12169
2526.15820	0.12208
2522.30147	0.12262
2518.44474	0.12264
2514.58801	0.12303
2510.73128	0.12381
2506.87455	0.12423
2503.01782	0.12451
2499.16109	0.12462
2495.30436	0.12467
2491.44763	0.12505
2487.59090	0.12503
2483.73417	0.12434
2479.87744	0.12439
2476.02071	0.12582
2472.16398	0.12707
2468.30725	0.12681
2464.45052	0.12590
2460.59379	0.12561
2456.73706	0.12589
2452.88033	0.12643
2449.02360	0.12735
2445.16687	0.12861
2441.31014	0.13002
2437.45341	0.13086
2433.59668	0.13051
2429.73995	0.12983
2425.88322	0.12938
2422.02649	0.12913
2418.16976	0.12975
2414.31303	0.13057
2410.45630	0.13081
2406.59957	0.13162
2402.74284	0.13263
2398.88611	0.13189
2395.02938	0.13035
2391.17265	0.12982
2387.31592	0.12994
2383.45919	0.12970
2379.60246	0.12842
2375.74573	0.12569
2371.88900	0.12173
2368.03227	0.11736
2364.17554	0.11445
2360.31881	0.11445
2356.46208	0.11610
2352.60535	0.11791
2348.74862	0.11936
2344.89189	0.12086
2341.03516	0.12266
2337.17842	0.12283
2333.32169	0.12035
2329.46496	0.11964
2325.60823	0.12263
2321.75150	0.12630
2317.89477	0.13028
2314.03804	0.13362
2310.18131	0.13441
2306.32458	0.13408
2302.46785	0.13462
2298.61112	0.13597
2294.75439	0.13738
2290.89766	0.13848
2287.04093	0.13923
2283.18420	0.14008
2279.32747	0.14151
2275.47074	0.14274
2271.61401	0.14267
2267.75728	0.14137
2263.90055	0.13992
2260.04382	0.14016
2256.18709	0.14185
2252.33036	0.14265
2248.47363	0.14225
2244.61690	0.14193
2240.76017	0.14209
2236.90344	0.14233
2233.04671	0.14230
2229.18998	0.14186
2225.33325	0.14092
2221.47652	0.13988
2217.61979	0.13965
2213.76306	0.14058
2209.90633	0.14134
2206.04960	0.14022
2202.19287	0.13798
2198.33614	0.13682
2194.47941	0.13741
2190.62268	0.13838
2186.76595	0.13892
2182.90922	0.13960
2179.05249	0.13991
2175.19576	0.13866
2171.33903	0.13684
2167.48230	0.13621
2163.62557	0.13676
2159.76884	0.13682
2155.91211	0.13534
2152.05538	0.13349
2148.19865	0.13311
2144.34192	0.13371
2140.48519	0.13372
2136.62846	0.13354
2132.77173	0.13434
2128.91500	0.13640
2125.05827	0.13819
2121.20154	0.13768
2117.34481	0.13569
2113.48808	0.13414
2109.63135	0.13370
2105.77462	0.13466
2101.91789	0.13666
2098.06116	0.13831
2094.20443	0.13833
2090.34770	0.13707
2086.49097	0.13620
2082.63424	0.13653
2078.77751	0.13697
2074.92078	0.13694
2071.06405	0.13745
2067.20732	0.13882
2063.35059	0.13989
2059.49386	0.13932
2055.63713	0.13804
2051.78040	0.13844
2047.92367	0.13995
2044.06694	0.14039
2040.21021	0.14038
2036.35348	0.14099
2032.49675	0.14110
2028.64002	0.14020
2024.78329	0.14034
2020.92656	0.14212
2017.06983	0.14271
2013.21310	0.14116
2009.35637	0.13971
2005.49964	0.13952
2001.64291	0.14059
1997.78618	0.14265
1993.92945	0.14422
1990.07272	0.14436
1986.21599	0.14388
1982.35926	0.14326
1978.50253	0.14244
1974.64580	0.14146
1970.78907	0.14025
1966.93234	0.13982
1963.07561	0.14036
1959.21888	0.14064
1955.36215	0.14092
1951.50542	0.14124
1947.64869	0.14109
1943.79196	0.14099
1939.93523	0.14092
1936.07850	0.14089
1932.22177	0.14120
1928.36504	0.14098
1924.50831	0.14021
1920.65158	0.14015
1916.79485	0.14028
1912.93812	0.13994
1909.08139	0.13973
1905.22466	0.13943
1901.36793	0.13867
1897.51120	0.13795
1893.65447	0.13803
1889.79774	0.13853
1885.94101	0.13840
1882.08428	0.13860
1878.22755	0.13955
1874.37082	0.13977
1870.51409	0.13865
1866.65736	0.13717
1862.80063	0.13652
1858.94390	0.13632
1855.08717	0.13581
1851.23044	0.13453
1847.37371	0.13220
1843.51698	0.13058
1839.66025	0.13145
1835.80352	0.13270
1831.94679	0.13266
1828.09006	0.13145
1824.23333	0.12904
1820.37660	0.12635
1816.51986	0.12476
1812.66313	0.12358
1808.80640	0.12148
1804.94967	0.11897
1801.09294	0.11702
1797.23621	0.11576
1793.37948	0.11435
1789.52275	0.11209
1785.66602	0.10988
1781.80929	0.10841
1777.95256	0.10710
1774.09583	0.10534
1770.23910	0.10388
1766.38237	0.10346
1762.52564	0.10219
1758.66891	0.09876
1754.81218	0.09515
1750.95545	0.09448
1747.09872	0.09638
1743.24199	0.09746
1739.38526	0.09749
1735.52853	0.09773
1731.67180	0.09646
1727.81507	0.09289
1723.95834	0.08980
1720.10161	0.08811
1716.24488	0.08583
1712.38815	0.08237
1708.53142	0.07919
1704.67469	0.07681
1700.81796	0.07657
1696.96123	0.07839
1693.10450	0.07831
1689.24777	0.07654
1685.39104	0.07660
1681.53431	0.07900
1677.67758	0.08008
1673.82085	0.08051
1669.96412	0.08175
1666.10739	0.08237
1662.25066	0.08238
1658.39393	0.08318
1654.53720	0.08665
1650.68047	0.09291
1646.82374	0.09476
1642.96701	0.09254
1639.11028	0.09168
1635.25355	0.09448
1631.39682	0.09937
1627.54009	0.10261
1623.68336	0.10381
1619.82663	0.10396
1615.96990	0.10265
1612.11317	0.10006
1608.25644	0.09833
1604.39971	0.09708
1600.54298	0.09523
1596.68625	0.09434
1592.82952	0.09453
1588.97279	0.09384
1585.11606	0.09233
1581.25933	0.09099
1577.40260	0.08999
1573.54587	0.08892
1569.68914	0.08854
1565.83241	0.09021
1561.97568	0.09333
1558.11895	0.09625
1554.26222	0.09749
1550.40549	0.09794
1546.54876	0.09873
1542.69203	0.10119
1538.83530	0.10469
1534.97857	0.10525
1531.12184	0.10432
1527.26511	0.10354
1523.40838	0.10282
1519.55165	0.10340
1515.69492	0.10558
1511.83819	0.10717
1507.98146	0.10712
1504.12473	0.10656
1500.26800	0.10712
1496.41127	0.10733
1492.55454	0.10623
1488.69781	0.10463
1484.84108	0.10259
1480.98435	0.10066
1477.12762	0.09996
1473.27089	0.10000
1469.41416	0.09997
1465.55743	0.10111
1461.70070	0.10320
1457.84397	0.10306
1453.98724	0.09933
1450.13051	0.09746
1446.27378	0.09890
1442.41705	0.10054
1438.56032	0.10176
1434.70359	0.10358
1430.84686	0.10405
1426.99013	0.10137
1423.13340	0.09641
1419.27667	0.09226
1415.41994	0.09227
1411.56321	0.09511
1407.70648	0.09766
1403.84975	0.09826
1399.99302	0.09678
1396.13629	0.09536
1392.27956	0.09619
1388.42283	0.09808
1384.56610	0.09888
1380.70937	0.09791
1376.85264	0.09573
1372.99591	0.09510
1369.13918	0.09746
1365.28245	0.09896
1361.42572	0.09738
1357.56899	0.09621
1353.71226	0.09710
1349.85553	0.09812
1345.99880	0.09776
1342.14207	0.09649
1338.28534	0.09545
1334.42861	0.09453
1330.57188	0.09459
1326.71515	0.09573
1322.85842	0.09574
1319.00169	0.09497
1315.14496	0.09487
1311.28823	0.09529
1307.43150	0.09577
1303.57477	0.09499
1299.71804	0.09385
1295.86130	0.09477
1292.00457	0.09561
1288.14784	0.09373
1284.29111	0.09226
1280.43438	0.09389
1276.57765	0.09551
1272.72092	0.09376
1268.86419	0.09007
1265.00746	0.08925
1261.15073	0.09193
1257.29400	0.09211
1253.43727	0.08750
1249.58054	0.08561
1245.72381	0.09121
1241.86708	0.09673
1238.01035	0.09533
1234.15362	0.09376
1230.29689	0.09805
1226.44016	0.10013
1222.58343	0.09244
1218.72670	0.08439
1214.86997	0.08484
1211.01324	0.09022
1207.15651	0.09468
1203.29978	0.09677
1199.44305	0.09956
1195.58632	0.10466
1191.72959	0.10498
1187.87286	0.10040
1184.01613	0.10132
1180.15940	0.10755
1176.30267	0.10644
1172.44594	0.09905
1168.58921	0.09771
1164.73248	0.09911
1160.87575	0.09895
1157.01902	0.10237
1153.16229	0.10422
1149.30556	0.10236
1145.44883	0.10096
1141.59210	0.09914
1137.73537	0.09793
1133.87864	0.09713
1130.02191	0.09665
1126.16518	0.09617
1122.30845	0.09714
1118.45172	0.10195
1114.59499	0.10741
1110.73826	0.10779
1106.88153	0.10167
1103.02480	0.09393
1099.16807	0.09143
1095.31134	0.09508
1091.45461	0.10058
1087.59788	0.10385
1083.74115	0.10445
1079.88442	0.10321
1076.02769	0.09919
1072.17096	0.09467
1068.31423	0.09306
1064.45750	0.09486
1060.60077	0.09638
1056.74404	0.09572
1052.88731	0.09582
1049.03058	0.09728
1045.17385	0.09747
1041.31712	0.09800
1037.46039	0.10038
1033.60366	0.10110
1029.74693	0.09994
1025.89020	0.10098
1022.03347	0.10479
1018.17674	0.10674
1014.32001	0.10545
1010.46328	0.10389
1006.60655	0.10286
1002.74982	0.10059
998.89309	0.09801
995.03636	0.09783
991.17963	0.09976
987.32290	0.10306
983.46617	0.10632
979.60944	0.10600
975.75271	0.10182
971.89598	0.09679
968.03925	0.09477
964.18252	0.09687
960.32579	0.09881
956.46906	0.09891
952.61233	0.09795
948.75560	0.09493
944.89887	0.09196
941.04214	0.09324
937.18541	0.09783
933.32868	0.10217
929.47195	0.10597
925.61522	0.10902
921.75849	0.10782
917.90176	0.10310
914.04503	0.09986
910.18830	0.10155
906.33157	0.10539
902.47484	0.10825
898.61811	0.10710
894.76138	0.10134
890.90465	0.09755
887.04792	0.09834
883.19119	0.09866
879.33446	0.09554
875.47773	0.09218
871.62100	0.09199
867.76427	0.09467
863.90754	0.09667
860.05081	0.09679
856.19408	0.09620
852.33735	0.09687
848.48062	0.10032
844.62389	0.10202
840.76716	0.09787
836.91043	0.09539
833.05370	0.10096
829.19697	0.10560
825.34024	0.10177
821.48351	0.09526
817.62678	0.09454
813.77005	0.09791
809.91332	0.09808
806.05659	0.09459
802.19986	0.09329
798.34313	0.09660
794.48640	0.10235
790.62967	0.10497
786.77294	0.10146
782.91621	0.09751
779.05947	0.09939
775.20274	0.10353
771.34601	0.10377
767.48928	0.10032
763.63255	0.09906
759.77582	0.09895
755.91909	0.09635
752.06236	0.09288
748.20563	0.08927
744.34890	0.08740
740.49217	0.09050
736.63544	0.09647
732.77871	0.10063
728.92198	0.10228
725.06525	0.10145
721.20852	0.09800
717.35179	0.09378
713.49506	0.09089
709.63833	0.09068
705.78160	0.09411
701.92487	0.09894
698.06814	0.09907
694.21141	0.09648
690.35468	0.09932
686.49795	0.10574
682.64122	0.11026
678.78449	0.11133
674.92776	0.10630
671.07103	0.09810
667.21430	0.09765
663.35757	0.10307
659.50084	0.10403
655.64411	0.09856
651.78738	0.09613
647.93065	0.09491
644.07392	0.09143
640.21719	0.09189
636.36046	0.09703
632.50373	0.09859
628.64700	0.09999
624.79027	0.10357
620.93354	0.10230
617.07681	0.09831
613.22008	0.09672
609.36335	0.09392
605.50662	0.09493
601.64989	0.10066
597.79316	0.10144
