3995.57236	0.17551
3991.71563	0.17855
3987.85890	0.18216
3984.00217	0.18809
3980.14544	0.19479
3976.28871	0.19844
3972.43198	0.19665
3968.57525	0.19165
3964.71852	0.18747
3960.86179	0.18622
3957.00506	0.18723
3953.14833	0.18707
3949.29160	0.18568
3945.43487	0.18743
3941.57814	0.19230
3937.72141	0.19664
3933.86468	0.19966
3930.00795	0.20165
3926.15122	0.20020
3922.29449	0.19612
3918.43776	0.19472
3914.58103	0.19525
3910.72430	0.19375
3906.86757	0.19320
3903.01084	0.19727
3899.15411	0.20237
3895.29737	0.20430
3891.44064	0.20361
3887.58391	0.20176
3883.72718	0.20017
3879.87045	0.20089
3876.01372	0.20582
3872.15699	0.21234
3868.30026	0.21608
3864.44353	0.21743
3860.58680	0.21823
3856.73007	0.21828
3852.87334	0.21906
3849.01661	0.22207
3845.15988	0.22335
3841.30315	0.21957
3837.44642	0.21428
3833.58969	0.21473
3829.73296	0.22010
3825.87623	0.22453
3822.01950	0.22458
3818.16277	0.22217
3814.30604	0.22122
3810.44931	0.22070
3806.59258	0.21959
3802.73585	0.21926
3798.87912	0.22036
3795.02239	0.22219
3791.16566	0.22289
3787.30893	0.22182
3783.45220	0.22199
3779.59547	0.22450
3775.73874	0.22547
3771.88201	0.22307
3768.02528	0.21825
3764.16855	0.21315
3760.31182	0.21102
3756.45509	0.21167
3752.59836	0.21319
3748.74163	0.21486
3744.88490	0.21330
3741.02817	0.20875
3737.17144	0.20513
3733.31471	0.20288
3729.45798	0.20181
3725.60125	0.20027
3721.74452	0.19636
3717.88779	0.19158
3714.03106	0.18814
3710.17433	0.18525
3706.31760	0.18168
3702.46087	0.17903
3698.60414	0.17651
3694.74741	0.17234
3690.89068	0.16705
3687.03395	0.15975
3683.17722	0.15102
3679.32049	0.14395
3675.46376	0.13719
3671.60703	0.12770
3667.75030	0.11909
3663.89357	0.11499
3660.03684	0.11391
3656.18011	0.11347
3652.32338	0.11166
3648.46665	0.10701
3644.60992	0.10180
3640.75319	0.09823
3636.89646	0.09623
3633.03973	0.09685
3629.18300	0.09832
3625.32627	0.09518
3621.46954	0.08964
3617.61281	0.08743
3613.75608	0.09055
3609.89935	0.09686
3606.04262	0.10083
3602.18589	0.09956
3598.32916	0.09514
3594.47243	0.09137
3590.61570	0.09071
3586.75897	0.09270
3582.90224	0.09553
3579.04551	0.09621
3575.18878	0.09351
3571.33205	0.09013
3567.47532	0.08960
3563.61859	0.09184
3559.76186	0.09354
3555.90513	0.09395
3552.04840	0.09388
3548.19167	0.09452
3544.33494	0.09650
3540.47821	0.09831
3536.62148	0.10007
3532.76475	0.10215
3528.90802	0.10073
3525.05129	0.09543
3521.19456	0.09279
3517.33783	0.09471
3513.48110	0.09823
3509.62437	0.09806
3505.76764	0.09226
3501.91091	0.08797
3498.05418	0.08780
3494.19745	0.08584
3490.34072	0.08276
3486.48399	0.08309
3482.62726	0.08719
3478.77053	0.09394
3474.91380	0.09814
3471.05707	0.09478
3467.20034	0.08851
3463.34361	0.08729
3459.48688	0.08936
3455.63015	0.08872
3451.77342	0.08551
3447.91669	0.08378
3444.05996	0.08512
3440.20323	0.08562
3436.34650	0.08482
3432.48977	0.08673
3428.63304	0.08961
3424.77631	0.08892
3420.91958	0.08757
3417.06285	0.08918
3413.20612	0.09425
3409.34939	0.10018
3405.49266	0.10202
3401.63593	0.09850
3397.77920	0.09159
3393.92247	0.08383
3390.06574	0.08061
3386.20901	0.08332
3382.35228	0.08606
3378.49555	0.08400
3374.63881	0.07814
3370.78208	0.07296
3366.92535	0.07380
3363.06862	0.08002
3359.21189	0.08532
3355.35516	0.08662
3351.49843	0.08550
3347.64170	0.08298
3343.78497	0.08023
3339.92824	0.08226
3336.07151	0.08771
3332.21478	0.08897
3328.35805	0.08679
3324.50132	0.08783
3320.64459	0.09387
3316.78786	0.09771
3312.93113	0.09510
3309.07440	0.09166
3305.21767	0.09087
3301.36094	0.08994
3297.50421	0.08768
3293.64748	0.08360
3289.79075	0.08040
3285.93402	0.08236
3282.07729	0.08755
3278.22056	0.09031
3274.36383	0.08959
3270.50710	0.08866
3266.65037	0.08934
3262.79364	0.09068
3258.93691	0.09196
3255.08018	0.09326
3251.22345	0.09456
3247.36672	0.09669
3243.50999	0.09833
3239.65326	0.09528
3235.79653	0.08806
3231.93980	0.08385
3228.08307	0.08529
3224.22634	0.08742
3220.36961	0.08747
3216.51288	0.08776
3212.65615	0.08968
3208.79942	0.09190
3204.94269	0.09322
3201.08596	0.09320
3197.22923	0.09067
3193.37250	0.08686
3189.51577	0.08575
3185.65904	0.08661
3181.80231	0.08730
3177.94558	0.08864
3174.08885	0.09018
3170.23212	0.08974
3166.37539	0.08846
3162.51866	0.09031
3158.66193	0.09410
3154.80520	0.09577
3150.94847	0.09589
3147.09174	0.09609
3143.23501	0.09599
3139.37828	0.09449
3135.52155	0.09143
3131.66482	0.08827
3127.80809	0.08706
3123.95136	0.08802
3120.09463	0.09054
3116.23790	0.09389
3112.38117	0.09697
3108.52444	0.09922
3104.66771	0.09986
3100.81098	0.09731
3096.95425	0.09308
3093.09752	0.09097
3089.24079	0.09132
3085.38406	0.09222
3081.52733	0.09377
3077.67060	0.09651
3073.81387	0.09851
3069.95714	0.09766
3066.10041	0.09542
3062.24368	0.09395
3058.38695	0.09280
3054.53022	0.09277
3050.67349	0.09588
3046.81676	0.09970
3042.96003	0.10090
3039.10330	0.09949
3035.24657	0.09758
3031.38984	0.09726
3027.53311	0.09825
3023.67638	0.09827
3019.81965	0.09609
3015.96292	0.09393
3012.10619	0.09420
3008.24946	0.09660
3004.39273	0.09799
3000.53600	0.09640
2996.67927	0.09545
2992.82254	0.09704
2988.96581	0.09704
2985.10908	0.09391
2981.25235	0.09128
2977.39562	0.09106
2973.53889	0.09172
2969.68216	0.09273
2965.82543	0.09359
2961.96870	0.09248
2958.11197	0.09228
2954.25524	0.09587
2950.39851	0.09839
2946.54178	0.09765
2942.68505	0.09728
2938.82832	0.09795
2934.97159	0.09632
2931.11486	0.09240
2927.25813	0.09112
2923.40140	0.09265
2919.54467	0.09216
2915.68794	0.08926
2911.83121	0.08708
2907.97448	0.08758
2904.11775	0.08916
2900.26102	0.09033
2896.40429	0.09230
2892.54756	0.09497
2888.69083	0.09592
2884.83410	0.09552
2880.97737	0.09607
2877.12064	0.09646
2873.26391	0.09585
2869.40718	0.09620
2865.55045	0.09753
2861.69372	0.09784
2857.83698	0.09637
2853.98025	0.09561
2850.12352	0.09654
2846.26679	0.09655
2842.41006	0.09622
2838.55333	0.09699
2834.69660	0.09790
2830.83987	0.09819
2826.98314	0.09905
2823.12641	0.10085
2819.26968	0.10177
2815.41295	0.10085
2811.55622	0.09997
2807.69949	0.10007
2803.84276	0.09881
2799.98603	0.09651
2796.12930	0.09627
2792.27257	0.09687
2788.41584	0.09629
2784.55911	0.09552
2780.70238	0.09542
2776.84565	0.09695
2772.98892	0.09955
2769.13219	0.10042
2765.27546	0.09880
2761.41873	0.09703
2757.56200	0.09864
2753.70527	0.10248
2749.84854	0.10235
2745.99181	0.09840
2742.13508	0.09662
2738.27835	0.09769
2734.42162	0.09903
2730.56489	0.09984
2726.70816	0.09955
2722.85143	0.09837
2718.99470	0.09882
2715.13797	0.10096
2711.28124	0.10110
2707.42451	0.09865
2703.56778	0.09755
2699.71105	0.09929
2695.85432	0.10048
2691.99759	0.09895
2688.14086	0.09675
2684.28413	0.09628
2680.42740	0.09825
2676.57067	0.10117
2672.71394	0.10207
2668.85721	0.10167
2665.00048	0.10308
2661.14375	0.10567
2657.28702	0.10686
2653.43029	0.10587
2649.57356	0.10377
2645.71683	0.10196
2641.86010	0.10147
2638.00337	0.10323
2634.14664	0.10610
2630.28991	0.10780
2626.43318	0.10726
2622.57645	0.10496
2618.71972	0.10302
2614.86299	0.10263
2611.00626	0.10308
2607.14953	0.10336
2603.29280	0.10231
2599.43607	0.10063
2595.57934	0.10068
2591.72261	0.10211
2587.86588	0.10176
2584.00915	0.10078
2580.15242	0.10199
2576.29569	0.10277
2572.43896	0.10128
2568.58223	0.10046
2564.72550	0.10220
2560.86877	0.10506
2557.01204	0.10630
2553.15531	0.10520
2549.29858	0.10385
2545.44185	0.10425
2541.58512	0.10656
2537.72839	0.10908
2533.87166	0.11018
2530.01493	0.10991
2526.15820	0.10865
2522.30147	0.10743
2518.44474	0.10751
2514.58801	0.10817
2510.73128	0.10828
2506.87455	0.10734
2503.01782	0.10481
2499.16109	0.10245
2495.30436	0.10299
2491.44763	0.10656
2487.59090	0.11021
2483.73417	0.11084
2479.87744	0.10905
2476.02071	0.10781
2472.16398	0.10836
2468.30725	0.10971
2464.45052	0.11080
2460.59379	0.11140
2456.73706	0.11105
2452.88033	0.11042
2449.02360	0.11116
2445.16687	0.11325
2441.31014	0.11463
2437.45341	0.11424
2433.59668	0.11422
2429.73995	0.11505
2425.88322	0.11402
2422.02649	0.11168
2418.16976	0.11081
2414.31303	0.11123
2410.45630	0.11242
2406.59957	0.11523
2402.74284	0.11790
2398.88611	0.11803
2395.02938	0.11663
2391.17265	0.11578
2387.31592	0.11629
2383.45919	0.11763
2379.60246	0.11852
2375.74573	0.11858
2371.88900	0.11921
2368.03227	0.12037
2364.17554	0.11926
2360.31881	0.11764
2356.46208	0.11719
2352.60535	0.11701
2348.74862	0.11826
2344.89189	0.12009
2341.03516	0.12056
2337.17842	0.11871
2333.32169	0.11564
2329.46496	0.11345
2325.60823	0.11378
2321.75150	0.11678
2317.89477	0.11997
2314.03804	0.12176
2310.18131	0.12325
2306.32458	0.12559
2302.46785	0.12745
2298.61112	0.12744
2294.75439	0.12606
2290.89766	0.12465
2287.04093	0.12442
2283.18420	0.12501
2279.32747	0.12499
2275.47074	0.12452
2271.61401	0.12450
2267.75728	0.12488
2263.90055	0.12546
2260.04382	0.12591
2256.18709	0.12610
2252.33036	0.12698
2248.47363	0.12824
2244.61690	0.12788
2240.76017	0.12624
2236.90344	0.12526
2233.04671	0.12460
2229.18998	0.12383
2225.33325	0.12421
2221.47652	0.12522
2217.61979	0.12548
2213.76306	0.12553
2209.90633	0.12520
2206.04960	0.12446
2202.19287	0.12437
2198.33614	0.12423
2194.47941	0.12332
2190.62268	0.12281
2186.76595	0.12327
2182.90922	0.12346
2179.05249	0.12256
2175.19576	0.12211
2171.33903	0.12213
2167.48230	0.12073
2163.62557	0.11908
2159.76884	0.11850
2155.91211	0.11787
2152.05538	0.11813
2148.19865	0.11950
2144.34192	0.11979
2140.48519	0.11937
2136.62846	0.11962
2132.77173	0.12004
2128.91500	0.12021
2125.05827	0.12060
2121.20154	0.12110
2117.34481	0.12158
2113.48808	0.12257
2109.63135	0.12309
2105.77462	0.12172
2101.91789	0.11980
2098.06116	0.11955
2094.20443	0.12070
2090.34770	0.12120
2086.49097	0.12077
2082.63424	0.12056
2078.77751	0.12091
2074.92078	0.12156
2071.06405	0.12213
2067.20732	0.12262
2063.35059	0.12310
2059.49386	0.12353
2055.63713	0.12402
2051.78040	0.12422
2047.92367	0.12351
2044.06694	0.12234
2040.21021	0.12219
2036.35348	0.12354
2032.49675	0.12491
2028.64002	0.12528
2024.78329	0.12526
2020.92656	0.12493
2017.06983	0.12418
2013.21310	0.12390
2009.35637	0.12414
2005.49964	0.12441
2001.64291	0.12491
1997.78618	0.12578
1993.92945	0.12663
1990.07272	0.12659
1986.21599	0.12529
1982.35926	0.12365
1978.50253	0.12240
1974.64580	0.12152
1970.78907	0.12133
1966.93234	0.12195
1963.07561	0.12159
1959.21888	0.12062
1955.36215	0.12161
1951.50542	0.12348
1947.64869	0.12371
1943.79196	0.12277
1939.93523	0.12259
1936.07850	0.12331
1932.22177	0.12328
1928.36504	0.12242
1924.50831	0.12195
1920.65158	0.12265
1916.79485	0.12378
1912.93812	0.12352
1909.08139	0.12298
1905.22466	0.12410
1901.36793	0.12518
1897.51120	0.12434
1893.65447	0.12328
1889.79774	0.12367
1885.94101	0.12408
1882.08428	0.12314
1878.22755	0.12247
1874.37082	0.12333
1870.51409	0.12381
1866.65736	0.12238
1862.80063	0.12105
1858.94390	0.12117
1855.08717	0.12122
1851.23044	0.12071
1847.37371	0.12034
1843.51698	0.11942
1839.66025	0.11734
1835.80352	0.11498
1831.94679	0.11362
1828.09006	0.11358
1824.23333	0.11308
1820.37660	0.11154
1816.51986	0.11022
1812.66313	0.10902
1808.80640	0.10737
1804.94967	0.10566
1801.09294	0.10410
1797.23621	0.10249
1793.37948	0.10021
1789.52275	0.09746
1785.66602	0.09573
1781.80929	0.09543
1777.95256	0.09578
1774.09583	0.09556
1770.23910	0.09354
1766.38237	0.08973
1762.52564	0.08647
1758.66891	0.08610
1754.81218	0.08679
1750.95545	0.08640
1747.09872	0.08666
1743.24199	0.08866
1739.38526	0.09181
1735.52853	0.09562
1731.67180	0.09713
1727.81507	0.09533
1723.95834	0.09345
1720.10161	0.09155
1716.24488	0.08714
1712.38815	0.08252
1708.53142	0.07990
1704.67469	0.07851
1700.81796	0.07836
1696.96123	0.07926
1693.10450	0.08154
1689.24777	0.08490
1685.39104	0.08714
1681.53431	0.08601
1677.67758	0.08438
1673.82085	0.08422
1669.96412	0.08606
1666.10739	0.08952
1662.25066	0.09157
1658.39393	0.09304
1654.53720	0.09747
1650.68047	0.10150
1646.82374	0.10250
1642.96701	0.10437
1639.11028	0.10584
1635.25355	0.10458
1631.39682	0.10231
1627.54009	0.10084
1623.68336	0.09970
1619.82663	0.09877
1615.96990	0.09822
1612.11317	0.09787
1608.25644	0.09768
1604.39971	0.09808
1600.54298	0.09886
1596.68625	0.09812
1592.82952	0.09532
1588.97279	0.09318
1585.11606	0.09269
1581.25933	0.09227
1577.40260	0.09152
1573.54587	0.09016
1569.68914	0.08763
1565.83241	0.08597
1561.97568	0.08724
1558.11895	0.09033
1554.26222	0.09261
1550.40549	0.09452
1546.54876	0.09752
1542.69203	0.10204
1538.83530	0.10345
1534.97857	0.10021
1531.12184	0.09892
1527.26511	0.10112
1523.40838	0.10381
1519.55165	0.10409
1515.69492	0.10275
1511.83819	0.10241
1507.98146	0.10343
1504.12473	0.10494
1500.26800	0.10609
1496.41127	0.10479
1492.55454	0.10130
1488.69781	0.09888
1484.84108	0.09726
1480.98435	0.09604
1477.12762	0.09625
1473.27089	0.09627
1469.41416	0.09536
1465.55743	0.09534
1461.70070	0.09738
1457.84397	0.10035
1453.98724	0.09866
1450.13051	0.09375
1446.27378	0.09293
1442.41705	0.09599
1438.56032	0.09835
1434.70359	0.09695
1430.84686	0.09382
1426.99013	0.09323
1423.13340	0.09478
1419.27667	0.09447
1415.41994	0.09154
1411.56321	0.08884
1407.70648	0.08882
1403.84975	0.09111
1399.99302	0.09292
1396.13629	0.09345
1392.27956	0.09544
1388.42283	0.09829
1384.56610	0.09773
1380.70937	0.09608
1376.85264	0.09789
1372.99591	0.09929
1369.13918	0.09708
1365.28245	0.09424
1361.42572	0.09362
1357.56899	0.09528
1353.71226	0.09610
1349.85553	0.09492
1345.99880	0.09310
1342.14207	0.09054
1338.28534	0.08716
1334.42861	0.08436
1330.57188	0.08250
1326.71515	0.08154
1322.85842	0.08278
1319.00169	0.08557
1315.14496	0.08587
1311.28823	0.08482
1307.43150	0.08591
1303.57477	0.08699
1299.71804	0.08567
1295.86130	0.08262
1292.00457	0.08058
1288.14784	0.08378
1284.29111	0.09089
1280.43438	0.09488
1276.57765	0.09315
1272.72092	0.08891
1268.86419	0.08633
1265.00746	0.08524
1261.15073	0.08402
1257.29400	0.08556
1253.43727	0.09040
1249.58054	0.09154
1245.72381	0.08677
1241.86708	0.08426
1238.01035	0.08646
1234.15362	0.08543
1230.29689	0.08251
1226.44016	0.08417
1222.58343	0.09064
1218.72670	0.10034
1214.86997	0.10691
1211.01324	0.10362
1207.15651	0.09645
1203.29978	0.09115
1199.44305	0.08719
1195.58632	0.08981
1191.72959	0.09583
1187.87286	0.09166
1184.01613	0.08073
1180.15940	0.07998
1176.30267	0.08956
1172.44594	0.09526
1168.58921	0.09366
1164.73248	0.09346
1160.87575	0.09746
1157.01902	0.09914
1153.16229	0.09428
1149.30556	0.08464
1145.44883	0.07618
1141.59210	0.07461
1137.73537	0.07888
1133.87864	0.08165
1130.02191	0.07967
1126.16518	0.07990
1122.30845	0.08694
1118.45172	0.09089
1114.59499	0.08919
1110.73826	0.08983
1106.88153	0.09330
1103.02480	0.09281
1099.16807	0.08459
1095.31134	0.07697
1091.45461	0.07375
1087.59788	0.07178
1083.74115	0.07114
1079.88442	0.07446
1076.02769	0.08128
1072.17096	0.08667
1068.31423	0.08806
1064.45750	0.08450
1060.60077	0.07622
1056.74404	0.06980
1052.88731	0.07045
1049.03058	0.07735
1045.17385	0.08208
1041.31712	0.07786
1037.46039	0.07200
1033.60366	0.07171
1029.74693	0.07353
1025.89020	0.07696
1022.03347	0.08646
1018.17674	0.09732
1014.32001	0.09989
1010.46328	0.09316
1006.60655	0.08328
1002.74982	0.07595
998.89309	0.07686
995.03636	0.08611
991.17963	0.09401
987.32290	0.09402
983.46617	0.09035
979.60944	0.08742
975.75271	0.08447
971.89598	0.08265
968.03925	0.08453
964.18252	0.08759
960.32579	0.08977
956.46906	0.09249
952.61233	0.09229
948.75560	0.08729
944.89887	0.08426
941.04214	0.08508
937.18541	0.08437
933.32868	0.08145
929.47195	0.07931
925.61522	0.07749
921.75849	0.07626
917.90176	0.08049
914.04503	0.08911
910.18830	0.09378
906.33157	0.08999
902.47484	0.08335
898.61811	0.08169
894.76138	0.08671
890.90465	0.09150
887.04792	0.09236
883.19119	0.09127
879.33446	0.09351
875.47773	0.09885
871.62100	0.09946
867.76427	0.09517
863.90754	0.09016
860.05081	0.08235
856.19408	0.07521
852.33735	0.07762
848.48062	0.08767
844.62389	0.09415
840.76716	0.09234
836.91043	0.08606
833.05370	0.07993
829.19697	0.07900
825.34024	0.08139
821.48351	0.08276
817.62678	0.08265
813.77005	0.08089
809.91332	0.08014
806.05659	0.08016
802.19986	0.07836
798.34313	0.07946
794.48640	0.08028
790.62967	0.08124
786.77294	0.08747
782.91621	0.09323
779.05947	0.09143
775.20274	0.08460
771.34601	0.07614
767.48928	0.06982
763.63255	0.07327
759.77582	0.08498
755.91909	0.09306
752.06236	0.09028
748.20563	0.07973
744.34890	0.07054
740.49217	0.06949
736.63544	0.07344
732.77871	0.07545
728.92198	0.07547
725.06525	0.07789
721.20852	0.08155
717.35179	0.08292
713.49506	0.08196
709.63833	0.08287
705.78160	0.08659
701.92487	0.09067
698.06814	0.09091
694.21141	0.08220
690.35468	0.07865
686.49795	0.08177
682.64122	0.08250
678.78449	0.08146
674.92776	0.08422
671.07103	0.08434
667.21430	0.07865
663.35757	0.08355
659.50084	0.09685
655.64411	0.09905
651.78738	0.09066
647.93065	0.08869
644.07392	0.09280
640.21719	0.09370
636.36046	0.08919
632.50373	0.08687
628.64700	0.09448
624.79027	0.10536
620.93354	0.10996
617.07681	0.10169
613.22008	0.08192
609.36335	0.06545
605.50662	0.06707
601.64989	0.07846
597.79316	0.08111
