3995.57236	0.16139
3991.71563	0.16298
3987.85890	0.16594
3984.00217	0.17039
3980.14544	0.17330
3976.28871	0.17142
3972.43198	0.16753
3968.57525	0.16486
3964.71852	0.16463
3960.86179	0.16748
3957.00506	0.17002
3953.14833	0.17183
3949.29160	0.17549
3945.43487	0.17781
3941.57814	0.17665
3937.72141	0.17482
3933.86468	0.17536
3930.00795	0.17882
3926.15122	0.18124
3922.29449	0.18069
3918.43776	0.18037
3914.58103	0.18116
3910.72430	0.18216
3906.86757	0.18403
3903.01084	0.18485
3899.15411	0.18253
3895.29737	0.18155
3891.44064	0.18359
3887.58391	0.18528
3883.72718	0.18664
3879.87045	0.19036
3876.01372	0.19436
3872.15699	0.19598
3868.30026	0.19424
3864.44353	0.19051
3860.58680	0.19007
3856.73007	0.19480
3852.87334	0.20153
3849.01661	0.20653
3845.15988	0.20957
3841.30315	0.21066
3837.44642	0.21012
3833.58969	0.20935
3829.73296	0.20781
3825.87623	0.20551
3822.01950	0.20483
3818.16277	0.20571
3814.30604	0.20383
3810.44931	0.20110
3806.59258	0.20097
3802.73585	0.20324
3798.87912	0.20462
3795.02239	0.20218
3791.16566	0.19902
3787.30893	0.19971
3783.45220	0.20132
3779.59547	0.19810
3775.73874	0.19493
3771.88201	0.19574
3768.02528	0.19573
3764.16855	0.19374
3760.31182	0.19243
3756.45509	0.19127
3752.59836	0.19037
3748.74163	0.19109
3744.88490	0.19051
3741.02817	0.18753
3737.17144	0.18402
3733.31471	0.18115
3729.45798	0.18032
3725.60125	0.17986
3721.74452	0.17735
3717.88779	0.17462
3714.03106	0.17196
3710.17433	0.16689
3706.31760	0.16161
3702.46087	0.15867
3698.60414	0.15675
3694.74741	0.15345
3690.89068	0.14770
3687.03395	0.14172
3683.17722	0.13669
3679.32049	0.13073
3675.46376	0.12304
3671.60703	0.11410
3667.75030	0.10473
3663.89357	0.09692
3660.03684	0.09275
3656.18011	0.09189
3652.32338	0.09317
3648.46665	0.09481
3644.60992	0.09463
3640.75319	0.09508
3636.89646	0.09720
3633.03973	0.09972
3629.18300	0.10005
3625.32627	0.09571
3621.46954	0.08732
3617.61281	0.07918
3613.75608	0.07935
3609.89935	0.08351
3606.04262	0.08371
3602.18589	0.08222
3598.32916	0.08245
3594.47243	0.08423
3590.61570	0.08747
3586.75897	0.09020
3582.90224	0.09036
3579.04551	0.08894
3575.18878	0.08795
3571.33205	0.08646
3567.47532	0.08188
3563.61859	0.07807
3559.76186	0.08081
3555.90513	0.08703
3552.04840	0.09025
3548.19167	0.08947
3544.33494	0.08650
3540.47821	0.08447
3536.62148	0.08647
3532.76475	0.09015
3528.90802	0.09086
3525.05129	0.08841
3521.19456	0.08610
3517.33783	0.08637
3513.48110	0.08888
3509.62437	0.08913
3505.76764	0.08354
3501.91091	0.07743
3498.05418	0.07884
3494.19745	0.08579
3490.34072	0.08929
3486.48399	0.08840
3482.62726	0.08760
3478.77053	0.08603
3474.91380	0.08442
3471.05707	0.08475
3467.20034	0.08653
3463.34361	0.08928
3459.48688	0.09145
3455.63015	0.09202
3451.77342	0.09269
3447.91669	0.09553
3444.05996	0.10028
3440.20323	0.10298
3436.34650	0.09731
3432.48977	0.08722
3428.63304	0.08412
3424.77631	0.08710
3420.91958	0.08610
3417.06285	0.08129
3413.20612	0.08015
3409.34939	0.08283
3405.49266	0.08523
3401.63593	0.08741
3397.77920	0.08810
3393.92247	0.08787
3390.06574	0.09066
3386.20901	0.09412
3382.35228	0.09088
3378.49555	0.08337
3374.63881	0.07969
3370.78208	0.07895
3366.92535	0.07795
3363.06862	0.07720
3359.21189	0.07701
3355.35516	0.07682
3351.49843	0.07685
3347.64170	0.07754
3343.78497	0.07888
3339.92824	0.08182
3336.07151	0.08474
3332.21478	0.08381
3328.35805	0.07981
3324.50132	0.07717
3320.64459	0.08051
3316.78786	0.08754
3312.93113	0.09228
3309.07440	0.09358
3305.21767	0.09240
3301.36094	0.08907
3297.50421	0.08476
3293.64748	0.08046
3289.79075	0.08020
3285.93402	0.08456
3282.07729	0.08738
3278.22056	0.08558
3274.36383	0.08273
3270.50710	0.08214
3266.65037	0.08494
3262.79364	0.08775
3258.93691	0.08855
3255.08018	0.09075
3251.22345	0.09266
3247.36672	0.09262
3243.50999	0.09539
3239.65326	0.09866
3235.79653	0.09501
3231.93980	0.08748
3228.08307	0.08122
3224.22634	0.07697
3220.36961	0.07751
3216.51288	0.08321
3212.65615	0.09010
3208.79942	0.09456
3204.94269	0.09548
3201.08596	0.09304
3197.22923	0.08996
3193.37250	0.08922
3189.51577	0.08872
3185.65904	0.08657
3181.80231	0.08613
3177.94558	0.08829
3174.08885	0.09067
3170.23212	0.09212
3166.37539	0.09252
3162.51866	0.09347
3158.66193	0.09577
3154.80520	0.09792
3150.94847	0.09818
3147.09174	0.09736
3143.23501	0.09665
3139.37828	0.09406
3135.52155	0.09131
3131.66482	0.09247
3127.80809	0.09498
3123.95136	0.09513
3120.09463	0.09338
3116.23790	0.09211
3112.38117	0.09471
3108.52444	0.09938
3104.66771	0.09934
3100.81098	0.09315
3096.95425	0.08793
3093.09752	0.08962
3089.24079	0.09414
3085.38406	0.09564
3081.52733	0.09443
3077.67060	0.09324
3073.81387	0.09319
3069.95714	0.09270
3066.10041	0.09152
3062.24368	0.09250
3058.38695	0.09503
3054.53022	0.09510
3050.67349	0.09228
3046.81676	0.09006
3042.96003	0.09059
3039.10330	0.09243
3035.24657	0.09368
3031.38984	0.09418
3027.53311	0.09407
3023.67638	0.09322
3019.81965	0.09225
3015.96292	0.09266
3012.10619	0.09451
3008.24946	0.09610
3004.39273	0.09670
3000.53600	0.09689
2996.67927	0.09615
2992.82254	0.09351
2988.96581	0.09004
2985.10908	0.08959
2981.25235	0.09223
2977.39562	0.09315
2973.53889	0.09447
2969.68216	0.09734
2965.82543	0.09720
2961.96870	0.09717
2958.11197	0.10150
2954.25524	0.10323
2950.39851	0.10062
2946.54178	0.09884
2942.68505	0.09736
2938.82832	0.09701
2934.97159	0.09931
2931.11486	0.10042
2927.25813	0.09977
2923.40140	0.10096
2919.54467	0.10316
2915.68794	0.10179
2911.83121	0.09638
2907.97448	0.09025
2904.11775	0.08747
2900.26102	0.08917
2896.40429	0.09076
2892.54756	0.09141
2888.69083	0.09380
2884.83410	0.09591
2880.97737	0.09600
2877.12064	0.09579
2873.26391	0.09687
2869.40718	0.09856
2865.55045	0.10024
2861.69372	0.10155
2857.83698	0.10100
2853.98025	0.09890
2850.12352	0.09697
2846.26679	0.09609
2842.41006	0.09633
2838.55333	0.09689
2834.69660	0.09689
2830.83987	0.09607
2826.98314	0.09450
2823.12641	0.09366
2819.26968	0.09487
2815.41295	0.09707
2811.55622	0.09770
2807.69949	0.09585
2803.84276	0.09351
2799.98603	0.09312
2796.12930	0.09462
2792.27257	0.09664
2788.41584	0.09822
2784.55911	0.10030
2780.70238	0.10239
2776.84565	0.10222
2772.98892	0.10138
2769.13219	0.10131
2765.27546	0.09935
2761.41873	0.09653
2757.56200	0.09692
2753.70527	0.09906
2749.84854	0.09996
2745.99181	0.10003
2742.13508	0.09972
2738.27835	0.09918
2734.42162	0.09884
2730.56489	0.09891
2726.70816	0.09909
2722.85143	0.09977
2718.99470	0.10051
2715.13797	0.09957
2711.28124	0.09880
2707.42451	0.10074
2703.56778	0.10308
2699.71105	0.10303
2695.85432	0.10107
2691.99759	0.09952
2688.14086	0.09998
2684.28413	0.10157
2680.42740	0.10273
2676.57067	0.10289
2672.71394	0.10213
2668.85721	0.10198
2665.00048	0.10343
2661.14375	0.10435
2657.28702	0.10384
2653.43029	0.10294
2649.57356	0.10155
2645.71683	0.10111
2641.86010	0.10275
2638.00337	0.10481
2634.14664	0.10636
2630.28991	0.10740
2626.43318	0.10706
2622.57645	0.10561
2618.71972	0.10450
2614.86299	0.10373
2611.00626	0.10308
2607.14953	0.10265
2603.29280	0.10168
2599.43607	0.10138
2595.57934	0.10361
2591.72261	0.10605
2587.86588	0.10631
2584.00915	0.10531
2580.15242	0.10461
2576.29569	0.10460
2572.43896	0.10381
2568.58223	0.10230
2564.72550	0.10243
2560.86877	0.10364
2557.01204	0.10326
2553.15531	0.10095
2549.29858	0.09962
2545.44185	0.10128
2541.58512	0.10398
2537.72839	0.10590
2533.87166	0.10773
2530.01493	0.10936
2526.15820	0.10955
2522.30147	0.10881
2518.44474	0.10841
2514.58801	0.10904
2510.73128	0.10939
2506.87455	0.10745
2503.01782	0.10576
2499.16109	0.10692
2495.30436	0.10842
2491.44763	0.10866
2487.59090	0.10855
2483.73417	0.10860
2479.87744	0.10889
2476.02071	0.10965
2472.16398	0.11013
2468.30725	0.10944
2464.45052	0.10932
2460.59379	0.11058
2456.73706	0.11166
2452.88033	0.11204
2449.02360	0.11202
2445.16687	0.11244
2441.31014	0.11418
2437.45341	0.11538
2433.59668	0.11451
2429.73995	0.11404
2425.88322	0.11464
2422.02649	0.11382
2418.16976	0.11227
2414.31303	0.11227
2410.45630	0.11323
2406.59957	0.11359
2402.74284	0.11408
2398.88611	0.11586
2395.02938	0.11744
2391.17265	0.11719
2387.31592	0.11624
2383.45919	0.11711
2379.60246	0.12122
2375.74573	0.12701
2371.88900	0.12978
2368.03227	0.12699
2364.17554	0.12462
2360.31881	0.12994
2356.46208	0.13578
2352.60535	0.13377
2348.74862	0.12886
2344.89189	0.12556
2341.03516	0.12480
2337.17842	0.12469
2333.32169	0.12229
2329.46496	0.11881
2325.60823	0.11869
2321.75150	0.12191
2317.89477	0.12339
2314.03804	0.12150
2310.18131	0.11933
2306.32458	0.11970
2302.46785	0.12187
2298.61112	0.12284
2294.75439	0.12128
2290.89766	0.11961
2287.04093	0.12001
2283.18420	0.12144
2279.32747	0.12201
2275.47074	0.12210
2271.61401	0.12317
2267.75728	0.12430
2263.90055	0.12363
2260.04382	0.12222
2256.18709	0.12238
2252.33036	0.12417
2248.47363	0.12586
2244.61690	0.12593
2240.76017	0.12455
2236.90344	0.12283
2233.04671	0.12126
2229.18998	0.12005
2225.33325	0.11970
2221.47652	0.12026
2217.61979	0.12142
2213.76306	0.12188
2209.90633	0.12058
2206.04960	0.11919
2202.19287	0.11942
2198.33614	0.12000
2194.47941	0.11963
2190.62268	0.11964
2186.76595	0.12050
2182.90922	0.12036
2179.05249	0.11906
2175.19576	0.11812
2171.33903	0.11780
2167.48230	0.11734
2163.62557	0.11653
2159.76884	0.11568
2155.91211	0.11492
2152.05538	0.11471
2148.19865	0.11524
2144.34192	0.11514
2140.48519	0.11454
2136.62846	0.11508
2132.77173	0.11620
2128.91500	0.11677
2125.05827	0.11677
2121.20154	0.11634
2117.34481	0.11630
2113.48808	0.11696
2109.63135	0.11735
2105.77462	0.11701
2101.91789	0.11679
2098.06116	0.11749
2094.20443	0.11843
2090.34770	0.11879
2086.49097	0.11881
2082.63424	0.11834
2078.77751	0.11780
2074.92078	0.11831
2071.06405	0.11939
2067.20732	0.12003
2063.35059	0.12024
2059.49386	0.11997
2055.63713	0.11997
2051.78040	0.12098
2047.92367	0.12186
2044.06694	0.12192
2040.21021	0.12162
2036.35348	0.12089
2032.49675	0.11993
2028.64002	0.12004
2024.78329	0.12151
2020.92656	0.12213
2017.06983	0.12099
2013.21310	0.11960
2009.35637	0.11852
2005.49964	0.11817
2001.64291	0.11920
1997.78618	0.12051
1993.92945	0.12059
1990.07272	0.12029
1986.21599	0.12096
1982.35926	0.12208
1978.50253	0.12220
1974.64580	0.12097
1970.78907	0.11974
1966.93234	0.11903
1963.07561	0.11885
1959.21888	0.12016
1955.36215	0.12211
1951.50542	0.12331
1947.64869	0.12373
1943.79196	0.12266
1939.93523	0.12046
1936.07850	0.11951
1932.22177	0.12039
1928.36504	0.12144
1924.50831	0.12204
1920.65158	0.12226
1916.79485	0.12114
1912.93812	0.11925
1909.08139	0.11824
1905.22466	0.11824
1901.36793	0.11875
1897.51120	0.11922
1893.65447	0.11852
1889.79774	0.11725
1885.94101	0.11774
1882.08428	0.11935
1878.22755	0.11999
1874.37082	0.11979
1870.51409	0.11972
1866.65736	0.12000
1862.80063	0.11990
1858.94390	0.11903
1855.08717	0.11821
1851.23044	0.11811
1847.37371	0.11766
1843.51698	0.11623
1839.66025	0.11544
1835.80352	0.11505
1831.94679	0.11355
1828.09006	0.11147
1824.23333	0.11031
1820.37660	0.10973
1816.51986	0.10880
1812.66313	0.10777
1808.80640	0.10696
1804.94967	0.10571
1801.09294	0.10376
1797.23621	0.10157
1793.37948	0.09878
1789.52275	0.09564
1785.66602	0.09379
1781.80929	0.09286
1777.95256	0.09118
1774.09583	0.08882
1770.23910	0.08768
1766.38237	0.08825
1762.52564	0.08862
1758.66891	0.08745
1754.81218	0.08498
1750.95545	0.08252
1747.09872	0.08146
1743.24199	0.08175
1739.38526	0.08284
1735.52853	0.08495
1731.67180	0.08699
1727.81507	0.08690
1723.95834	0.08603
1720.10161	0.08565
1716.24488	0.08408
1712.38815	0.08061
1708.53142	0.07705
1704.67469	0.07245
1700.81796	0.06756
1696.96123	0.06848
1693.10450	0.07297
1689.24777	0.07491
1685.39104	0.07583
1681.53431	0.07808
1677.67758	0.07994
1673.82085	0.08312
1669.96412	0.08921
1666.10739	0.09377
1662.25066	0.09426
1658.39393	0.09212
1654.53720	0.08968
1650.68047	0.09073
1646.82374	0.09601
1642.96701	0.10156
1639.11028	0.10426
1635.25355	0.10291
1631.39682	0.10135
1627.54009	0.10179
1623.68336	0.10158
1619.82663	0.10055
1615.96990	0.10119
1612.11317	0.10210
1608.25644	0.10078
1604.39971	0.09796
1600.54298	0.09551
1596.68625	0.09509
1592.82952	0.09588
1588.97279	0.09415
1585.11606	0.09055
1581.25933	0.08899
1577.40260	0.08894
1573.54587	0.08835
1569.68914	0.08878
1565.83241	0.09003
1561.97568	0.09103
1558.11895	0.09340
1554.26222	0.09652
1550.40549	0.09868
1546.54876	0.10087
1542.69203	0.10353
1538.83530	0.10447
1534.97857	0.10221
1531.12184	0.10100
1527.26511	0.10346
1523.40838	0.10627
1519.55165	0.10754
1515.69492	0.11087
1511.83819	0.11417
1507.98146	0.11200
1504.12473	0.10598
1500.26800	0.10316
1496.41127	0.10323
1492.55454	0.10475
1488.69781	0.10590
1484.84108	0.10435
1480.98435	0.10133
1477.12762	0.09879
1473.27089	0.09637
1469.41416	0.09349
1465.55743	0.09270
1461.70070	0.09561
1457.84397	0.09929
1453.98724	0.09893
1450.13051	0.09683
1446.27378	0.09535
1442.41705	0.09330
1438.56032	0.09159
1434.70359	0.09293
1430.84686	0.09645
1426.99013	0.09790
1423.13340	0.09400
1419.27667	0.08695
1415.41994	0.08424
1411.56321	0.08634
1407.70648	0.08944
1403.84975	0.09289
1399.99302	0.09581
1396.13629	0.09654
1392.27956	0.09426
1388.42283	0.09107
1384.56610	0.09261
1380.70937	0.09834
1376.85264	0.10116
1372.99591	0.10026
1369.13918	0.09778
1365.28245	0.09392
1361.42572	0.09257
1357.56899	0.09317
1353.71226	0.09173
1349.85553	0.09089
1345.99880	0.09278
1342.14207	0.09498
1338.28534	0.09377
1334.42861	0.09149
1330.57188	0.09155
1326.71515	0.09044
1322.85842	0.08758
1319.00169	0.08699
1315.14496	0.08833
1311.28823	0.08893
1307.43150	0.08791
1303.57477	0.08656
1299.71804	0.08555
1295.86130	0.08342
1292.00457	0.08188
1288.14784	0.08549
1284.29111	0.09244
1280.43438	0.09523
1276.57765	0.09168
1272.72092	0.08862
1268.86419	0.08932
1265.00746	0.09030
1261.15073	0.09149
1257.29400	0.09341
1253.43727	0.09264
1249.58054	0.08688
1245.72381	0.07632
1241.86708	0.06510
1238.01035	0.06059
1234.15362	0.06590
1230.29689	0.07792
1226.44016	0.08855
1222.58343	0.09304
1218.72670	0.09440
1214.86997	0.09608
1211.01324	0.09569
1207.15651	0.09357
1203.29978	0.09361
1199.44305	0.09275
1195.58632	0.09040
1191.72959	0.08948
1187.87286	0.09183
1184.01613	0.09556
1180.15940	0.09853
1176.30267	0.09912
1172.44594	0.09580
1168.58921	0.09143
1164.73248	0.08776
1160.87575	0.08172
1157.01902	0.07673
1153.16229	0.08196
1149.30556	0.09125
1145.44883	0.09418
1141.59210	0.09433
1137.73537	0.09305
1133.87864	0.09033
1130.02191	0.09062
1126.16518	0.09028
1122.30845	0.08458
1118.45172	0.07714
1114.59499	0.07069
1110.73826	0.07006
1106.88153	0.07958
1103.02480	0.09235
1099.16807	0.09515
1095.31134	0.08668
1091.45461	0.07998
1087.59788	0.07971
1083.74115	0.08193
1079.88442	0.08206
1076.02769	0.07967
1072.17096	0.07691
1068.31423	0.07582
1064.45750	0.07938
1060.60077	0.08713
1056.74404	0.09508
1052.88731	0.09847
1049.03058	0.09383
1045.17385	0.08676
1041.31712	0.08420
1037.46039	0.08493
1033.60366	0.08528
1029.74693	0.08484
1025.89020	0.08481
1022.03347	0.08787
1018.17674	0.09269
1014.32001	0.09301
1010.46328	0.08926
1006.60655	0.08493
1002.74982	0.08162
998.89309	0.08187
995.03636	0.08570
991.17963	0.09066
987.32290	0.09464
983.46617	0.09423
979.60944	0.08894
975.75271	0.08519
971.89598	0.08612
968.03925	0.08690
964.18252	0.08513
960.32579	0.08436
956.46906	0.08482
952.61233	0.08275
948.75560	0.08129
944.89887	0.08533
941.04214	0.08951
937.18541	0.08931
933.32868	0.08759
929.47195	0.08582
925.61522	0.08290
921.75849	0.08089
917.90176	0.08132
914.04503	0.08058
910.18830	0.07824
906.33157	0.07772
902.47484	0.08079
898.61811	0.08566
894.76138	0.08880
890.90465	0.08891
887.04792	0.08773
883.19119	0.08785
879.33446	0.09053
875.47773	0.09412
871.62100	0.09592
867.76427	0.09259
863.90754	0.08662
860.05081	0.08521
856.19408	0.08791
852.33735	0.08863
848.48062	0.08450
844.62389	0.07862
840.76716	0.07502
836.91043	0.07476
833.05370	0.07698
829.19697	0.07961
825.34024	0.08196
821.48351	0.08756
817.62678	0.09315
813.77005	0.09220
809.91332	0.08742
806.05659	0.08678
802.19986	0.08890
798.34313	0.08863
794.48640	0.08733
790.62967	0.08367
786.77294	0.07766
782.91621	0.07410
779.05947	0.07472
775.20274	0.07619
771.34601	0.07801
767.48928	0.08338
763.63255	0.08968
759.77582	0.09137
755.91909	0.08783
752.06236	0.08273
748.20563	0.07996
744.34890	0.08011
740.49217	0.08131
736.63544	0.08048
732.77871	0.07801
728.92198	0.07660
725.06525	0.07732
721.20852	0.07966
717.35179	0.08104
713.49506	0.07846
709.63833	0.07879
705.78160	0.08784
701.92487	0.09501
698.06814	0.09270
694.21141	0.08476
690.35468	0.07935
686.49795	0.08489
682.64122	0.09523
678.78449	0.09908
674.92776	0.09291
671.07103	0.08658
667.21430	0.09027
663.35757	0.09124
659.50084	0.08681
655.64411	0.08590
651.78738	0.09054
647.93065	0.09776
644.07392	0.09760
640.21719	0.09374
636.36046	0.09286
632.50373	0.09382
628.64700	0.09279
624.79027	0.08386
620.93354	0.07144
617.07681	0.06926
613.22008	0.07668
609.36335	0.08717
605.50662	0.09672
601.64989	0.10141
597.79316	0.10007
