3995.57236	0.20706
3991.71563	0.20864
3987.85890	0.21263
3984.00217	0.21483
3980.14544	0.21391
3976.28871	0.21206
3972.43198	0.21180
3968.57525	0.21286
3964.71852	0.21488
3960.86179	0.21697
3957.00506	0.21834
3953.14833	0.22111
3949.29160	0.22359
3945.43487	0.22168
3941.57814	0.21987
3937.72141	0.22328
3933.86468	0.22828
3930.00795	0.22976
3926.15122	0.22795
3922.29449	0.22693
3918.43776	0.22876
3914.58103	0.23148
3910.72430	0.23343
3906.86757	0.23525
3903.01084	0.23660
3899.15411	0.23711
3895.29737	0.23709
3891.44064	0.23718
3887.58391	0.23900
3883.72718	0.24030
3879.87045	0.24041
3876.01372	0.24347
3872.15699	0.24673
3868.30026	0.24529
3864.44353	0.24254
3860.58680	0.24380
3856.73007	0.24954
3852.87334	0.25654
3849.01661	0.25961
3845.15988	0.25932
3841.30315	0.25857
3837.44642	0.25683
3833.58969	0.25324
3829.73296	0.25239
3825.87623	0.25474
3822.01950	0.25712
3818.16277	0.25879
3814.30604	0.25933
3810.44931	0.25870
3806.59258	0.25687
3802.73585	0.25208
3798.87912	0.24639
3795.02239	0.24429
3791.16566	0.24454
3787.30893	0.24484
3783.45220	0.24475
3779.59547	0.24375
3775.73874	0.24234
3771.88201	0.24252
3768.02528	0.24342
3764.16855	0.24175
3760.31182	0.23970
3756.45509	0.23974
3752.59836	0.23919
3748.74163	0.23692
3744.88490	0.23455
3741.02817	0.23421
3737.17144	0.23585
3733.31471	0.23293
3729.45798	0.22613
3725.60125	0.22218
3721.74452	0.21831
3717.88779	0.21231
3714.03106	0.20633
3710.17433	0.19988
3706.31760	0.19418
3702.46087	0.19120
3698.60414	0.18824
3694.74741	0.18248
3690.89068	0.17381
3687.03395	0.16336
3683.17722	0.15501
3679.32049	0.15054
3675.46376	0.14473
3671.60703	0.13167
3667.75030	0.11818
3663.89357	0.10794
3660.03684	0.09884
3656.18011	0.09158
3652.32338	0.08738
3648.46665	0.08725
3644.60992	0.09032
3640.75319	0.09246
3636.89646	0.09225
3633.03973	0.09145
3629.18300	0.09082
3625.32627	0.08908
3621.46954	0.08671
3617.61281	0.08163
3613.75608	0.07656
3609.89935	0.07710
3606.04262	0.07977
3602.18589	0.08054
3598.32916	0.08152
3594.47243	0.08437
3590.61570	0.08589
3586.75897	0.08288
3582.90224	0.07834
3579.04551	0.07790
3575.18878	0.08095
3571.33205	0.08274
3567.47532	0.08042
3563.61859	0.07662
3559.76186	0.07364
3555.90513	0.07108
3552.04840	0.07098
3548.19167	0.07434
3544.33494	0.07696
3540.47821	0.07434
3536.62148	0.07090
3532.76475	0.07213
3528.90802	0.07616
3525.05129	0.07948
3521.19456	0.08096
3517.33783	0.07995
3513.48110	0.07657
3509.62437	0.07307
3505.76764	0.07048
3501.91091	0.06867
3498.05418	0.06912
3494.19745	0.07160
3490.34072	0.07379
3486.48399	0.07270
3482.62726	0.07091
3478.77053	0.07176
3474.91380	0.07206
3471.05707	0.07046
3467.20034	0.06817
3463.34361	0.06701
3459.48688	0.06960
3455.63015	0.07371
3451.77342	0.07542
3447.91669	0.07496
3444.05996	0.07446
3440.20323	0.07662
3436.34650	0.07933
3432.48977	0.07872
3428.63304	0.07642
3424.77631	0.07461
3420.91958	0.07381
3417.06285	0.07397
3413.20612	0.07237
3409.34939	0.06928
3405.49266	0.06931
3401.63593	0.07305
3397.77920	0.07902
3393.92247	0.08293
3390.06574	0.08035
3386.20901	0.07709
3382.35228	0.07967
3378.49555	0.08101
3374.63881	0.07404
3370.78208	0.06526
3366.92535	0.06158
3363.06862	0.06186
3359.21189	0.06476
3355.35516	0.06961
3351.49843	0.07614
3347.64170	0.08262
3343.78497	0.08404
3339.92824	0.07879
3336.07151	0.07387
3332.21478	0.07545
3328.35805	0.08004
3324.50132	0.08204
3320.64459	0.08188
3316.78786	0.08173
3312.93113	0.08190
3309.07440	0.08044
3305.21767	0.07743
3301.36094	0.07425
3297.50421	0.07163
3293.64748	0.07169
3289.79075	0.07477
3285.93402	0.07601
3282.07729	0.07367
3278.22056	0.07163
3274.36383	0.07010
3270.50710	0.06971
3266.65037	0.07429
3262.79364	0.08005
3258.93691	0.08234
3255.08018	0.08230
3251.22345	0.08074
3247.36672	0.07885
3243.50999	0.08196
3239.65326	0.08772
3235.79653	0.08631
3231.93980	0.08113
3228.08307	0.08135
3224.22634	0.08409
3220.36961	0.08466
3216.51288	0.08392
3212.65615	0.08171
3208.79942	0.07712
3204.94269	0.07541
3201.08596	0.07821
3197.22923	0.08042
3193.37250	0.08192
3189.51577	0.08417
3185.65904	0.08471
3181.80231	0.08359
3177.94558	0.08367
3174.08885	0.08442
3170.23212	0.08479
3166.37539	0.08557
3162.51866	0.08681
3158.66193	0.08824
3154.80520	0.08865
3150.94847	0.08680
3147.09174	0.08433
3143.23501	0.08241
3139.37828	0.08181
3135.52155	0.08233
3131.66482	0.08178
3127.80809	0.08112
3123.95136	0.08258
3120.09463	0.08552
3116.23790	0.08693
3112.38117	0.08721
3108.52444	0.08717
3104.66771	0.08523
3100.81098	0.08220
3096.95425	0.08183
3093.09752	0.08360
3089.24079	0.08289
3085.38406	0.08010
3081.52733	0.08064
3077.67060	0.08407
3073.81387	0.08644
3069.95714	0.08841
3066.10041	0.09057
3062.24368	0.08952
3058.38695	0.08582
3054.53022	0.08430
3050.67349	0.08425
3046.81676	0.08179
3042.96003	0.07834
3039.10330	0.07695
3035.24657	0.07792
3031.38984	0.07958
3027.53311	0.07960
3023.67638	0.07860
3019.81965	0.07925
3015.96292	0.08116
3012.10619	0.08153
3008.24946	0.08114
3004.39273	0.08322
3000.53600	0.08604
2996.67927	0.08639
2992.82254	0.08559
2988.96581	0.08518
2985.10908	0.08417
2981.25235	0.08215
2977.39562	0.07951
2973.53889	0.07767
2969.68216	0.07968
2965.82543	0.08367
2961.96870	0.08270
2958.11197	0.07773
2954.25524	0.07630
2950.39851	0.07918
2946.54178	0.08249
2942.68505	0.08369
2938.82832	0.08449
2934.97159	0.08721
2931.11486	0.08785
2927.25813	0.08213
2923.40140	0.07530
2919.54467	0.07573
2915.68794	0.08200
2911.83121	0.08631
2907.97448	0.08567
2904.11775	0.08348
2900.26102	0.08442
2896.40429	0.08655
2892.54756	0.08606
2888.69083	0.08488
2884.83410	0.08593
2880.97737	0.08780
2877.12064	0.08709
2873.26391	0.08488
2869.40718	0.08458
2865.55045	0.08575
2861.69372	0.08730
2857.83698	0.08863
2853.98025	0.08870
2850.12352	0.08784
2846.26679	0.08644
2842.41006	0.08588
2838.55333	0.08856
2834.69660	0.09205
2830.83987	0.09184
2826.98314	0.08877
2823.12641	0.08686
2819.26968	0.08741
2815.41295	0.08889
2811.55622	0.08906
2807.69949	0.08726
2803.84276	0.08555
2799.98603	0.08566
2796.12930	0.08667
2792.27257	0.08711
2788.41584	0.08674
2784.55911	0.08595
2780.70238	0.08483
2776.84565	0.08541
2772.98892	0.08809
2769.13219	0.08886
2765.27546	0.08722
2761.41873	0.08570
2757.56200	0.08460
2753.70527	0.08478
2749.84854	0.08648
2745.99181	0.08793
2742.13508	0.08855
2738.27835	0.08829
2734.42162	0.08712
2730.56489	0.08666
2726.70816	0.08806
2722.85143	0.08945
2718.99470	0.09018
2715.13797	0.09093
2711.28124	0.09035
2707.42451	0.08800
2703.56778	0.08696
2699.71105	0.08901
2695.85432	0.09072
2691.99759	0.09025
2688.14086	0.09034
2684.28413	0.09088
2680.42740	0.09053
2676.57067	0.09059
2672.71394	0.09082
2668.85721	0.09088
2665.00048	0.09191
2661.14375	0.09224
2657.28702	0.09084
2653.43029	0.09024
2649.57356	0.09191
2645.71683	0.09464
2641.86010	0.09632
2638.00337	0.09590
2634.14664	0.09376
2630.28991	0.09079
2626.43318	0.08910
2622.57645	0.09019
2618.71972	0.09265
2614.86299	0.09468
2611.00626	0.09593
2607.14953	0.09603
2603.29280	0.09461
2599.43607	0.09313
2595.57934	0.09246
2591.72261	0.09188
2587.86588	0.09154
2584.00915	0.09184
2580.15242	0.09277
2576.29569	0.09402
2572.43896	0.09454
2568.58223	0.09357
2564.72550	0.09161
2560.86877	0.09033
2557.01204	0.09074
2553.15531	0.09160
2549.29858	0.09158
2545.44185	0.09194
2541.58512	0.09387
2537.72839	0.09540
2533.87166	0.09506
2530.01493	0.09383
2526.15820	0.09283
2522.30147	0.09324
2518.44474	0.09480
2514.58801	0.09564
2510.73128	0.09559
2506.87455	0.09586
2503.01782	0.09659
2499.16109	0.09739
2495.30436	0.09767
2491.44763	0.09675
2487.59090	0.09518
2483.73417	0.09449
2479.87744	0.09560
2476.02071	0.09731
2472.16398	0.09857
2468.30725	0.09985
2464.45052	0.10078
2460.59379	0.10108
2456.73706	0.10156
2452.88033	0.10252
2449.02360	0.10365
2445.16687	0.10376
2441.31014	0.10263
2437.45341	0.10148
2433.59668	0.10081
2429.73995	0.10088
2425.88322	0.10187
2422.02649	0.10267
2418.16976	0.10252
2414.31303	0.10195
2410.45630	0.10118
2406.59957	0.09968
2402.74284	0.09867
2398.88611	0.09925
2395.02938	0.09991
2391.17265	0.09989
2387.31592	0.10007
2383.45919	0.10108
2379.60246	0.10393
2375.74573	0.10829
2371.88900	0.10991
2368.03227	0.10594
2364.17554	0.10050
2360.31881	0.09850
2356.46208	0.10276
2352.60535	0.11003
2348.74862	0.11541
2344.89189	0.11852
2341.03516	0.11907
2337.17842	0.11479
2333.32169	0.10845
2329.46496	0.10764
2325.60823	0.10997
2321.75150	0.10882
2317.89477	0.10705
2314.03804	0.10780
2310.18131	0.10857
2306.32458	0.10883
2302.46785	0.11015
2298.61112	0.11197
2294.75439	0.11322
2290.89766	0.11323
2287.04093	0.11195
2283.18420	0.11114
2279.32747	0.11210
2275.47074	0.11353
2271.61401	0.11344
2267.75728	0.11228
2263.90055	0.11156
2260.04382	0.11130
2256.18709	0.11121
2252.33036	0.11179
2248.47363	0.11289
2244.61690	0.11385
2240.76017	0.11384
2236.90344	0.11256
2233.04671	0.11160
2229.18998	0.11204
2225.33325	0.11285
2221.47652	0.11369
2217.61979	0.11382
2213.76306	0.11168
2209.90633	0.10876
2206.04960	0.10800
2202.19287	0.10888
2198.33614	0.10912
2194.47941	0.10849
2190.62268	0.10799
2186.76595	0.10805
2182.90922	0.10896
2179.05249	0.10991
2175.19576	0.10949
2171.33903	0.10849
2167.48230	0.10859
2163.62557	0.10935
2159.76884	0.10933
2155.91211	0.10860
2152.05538	0.10838
2148.19865	0.10848
2144.34192	0.10726
2140.48519	0.10554
2136.62846	0.10586
2132.77173	0.10777
2128.91500	0.10867
2125.05827	0.10848
2121.20154	0.10889
2117.34481	0.10956
2113.48808	0.10971
2109.63135	0.10982
2105.77462	0.10955
2101.91789	0.10855
2098.06116	0.10773
2094.20443	0.10756
2090.34770	0.10779
2086.49097	0.10834
2082.63424	0.10981
2078.77751	0.11186
2074.92078	0.11270
2071.06405	0.11201
2067.20732	0.11090
2063.35059	0.11025
2059.49386	0.11000
2055.63713	0.10978
2051.78040	0.11014
2047.92367	0.11114
2044.06694	0.11234
2040.21021	0.11392
2036.35348	0.11522
2032.49675	0.11535
2028.64002	0.11439
2024.78329	0.11343
2020.92656	0.11385
2017.06983	0.11435
2013.21310	0.11306
2009.35637	0.11224
2005.49964	0.11345
2001.64291	0.11402
1997.78618	0.11251
1993.92945	0.11110
1990.07272	0.11105
1986.21599	0.11086
1982.35926	0.11069
1978.50253	0.11201
1974.64580	0.11351
1970.78907	0.11381
1966.93234	0.11361
1963.07561	0.11347
1959.21888	0.11332
1955.36215	0.11314
1951.50542	0.11293
1947.64869	0.11257
1943.79196	0.11208
1939.93523	0.11221
1936.07850	0.11288
1932.22177	0.11271
1928.36504	0.11157
1924.50831	0.11106
1920.65158	0.11183
1916.79485	0.11264
1912.93812	0.11230
1909.08139	0.11122
1905.22466	0.11049
1901.36793	0.11108
1897.51120	0.11260
1893.65447	0.11361
1889.79774	0.11390
1885.94101	0.11370
1882.08428	0.11282
1878.22755	0.11178
1874.37082	0.11154
1870.51409	0.11192
1866.65736	0.11071
1862.80063	0.10805
1858.94390	0.10681
1855.08717	0.10728
1851.23044	0.10768
1847.37371	0.10689
1843.51698	0.10481
1839.66025	0.10271
1835.80352	0.10162
1831.94679	0.10166
1828.09006	0.10231
1824.23333	0.10228
1820.37660	0.10111
1816.51986	0.09856
1812.66313	0.09589
1808.80640	0.09550
1804.94967	0.09594
1801.09294	0.09441
1797.23621	0.09206
1793.37948	0.09085
1789.52275	0.09035
1785.66602	0.08957
1781.80929	0.08829
1777.95256	0.08733
1774.09583	0.08668
1770.23910	0.08406
1766.38237	0.08029
1762.52564	0.07834
1758.66891	0.07837
1754.81218	0.07847
1750.95545	0.07693
1747.09872	0.07481
1743.24199	0.07456
1739.38526	0.07633
1735.52853	0.07774
1731.67180	0.07467
1727.81507	0.06852
1723.95834	0.06366
1720.10161	0.06199
1716.24488	0.06567
1712.38815	0.07082
1708.53142	0.07171
1704.67469	0.06991
1700.81796	0.06759
1696.96123	0.06459
1693.10450	0.06284
1689.24777	0.06318
1685.39104	0.06487
1681.53431	0.06649
1677.67758	0.06566
1673.82085	0.06423
1669.96412	0.06437
1666.10739	0.06663
1662.25066	0.07100
1658.39393	0.07441
1654.53720	0.07565
1650.68047	0.07732
1646.82374	0.07852
1642.96701	0.07816
1639.11028	0.07821
1635.25355	0.07988
1631.39682	0.08360
1627.54009	0.08720
1623.68336	0.08813
1619.82663	0.08665
1615.96990	0.08431
1612.11317	0.08239
1608.25644	0.08171
1604.39971	0.08138
1600.54298	0.08140
1596.68625	0.08294
1592.82952	0.08492
1588.97279	0.08464
1585.11606	0.08154
1581.25933	0.07750
1577.40260	0.07554
1573.54587	0.07720
1569.68914	0.07935
1565.83241	0.07981
1561.97568	0.07848
1558.11895	0.07585
1554.26222	0.07627
1550.40549	0.07955
1546.54876	0.08376
1542.69203	0.08653
1538.83530	0.08560
1534.97857	0.08722
1531.12184	0.09232
1527.26511	0.09502
1523.40838	0.09320
1519.55165	0.09077
1515.69492	0.09099
1511.83819	0.09385
1507.98146	0.09616
1504.12473	0.09327
1500.26800	0.08959
1496.41127	0.08782
1492.55454	0.08700
1488.69781	0.08643
1484.84108	0.08511
1480.98435	0.08238
1477.12762	0.07844
1473.27089	0.07658
1469.41416	0.07923
1465.55743	0.07994
1461.70070	0.07640
1457.84397	0.07462
1453.98724	0.07915
1450.13051	0.08439
1446.27378	0.08664
1442.41705	0.08666
1438.56032	0.08724
1434.70359	0.08982
1430.84686	0.09091
1426.99013	0.08855
1423.13340	0.08557
1419.27667	0.08369
1415.41994	0.08285
1411.56321	0.08280
1407.70648	0.08252
1403.84975	0.08236
1399.99302	0.08283
1396.13629	0.08375
1392.27956	0.08455
1388.42283	0.08450
1384.56610	0.08534
1380.70937	0.08679
1376.85264	0.08470
1372.99591	0.08064
1369.13918	0.08096
1365.28245	0.08426
1361.42572	0.08597
1357.56899	0.08582
1353.71226	0.08309
1349.85553	0.07825
1345.99880	0.07479
1342.14207	0.07423
1338.28534	0.07615
1334.42861	0.07806
1330.57188	0.07752
1326.71515	0.07603
1322.85842	0.07503
1319.00169	0.07426
1315.14496	0.07579
1311.28823	0.07966
1307.43150	0.08180
1303.57477	0.07988
1299.71804	0.07554
1295.86130	0.07340
1292.00457	0.07458
1288.14784	0.07544
1284.29111	0.07501
1280.43438	0.07528
1276.57765	0.07660
1272.72092	0.07742
1268.86419	0.07624
1265.00746	0.07380
1261.15073	0.07244
1257.29400	0.07359
1253.43727	0.07661
1249.58054	0.07832
1245.72381	0.07446
1241.86708	0.06906
1238.01035	0.07063
1234.15362	0.07290
1230.29689	0.07028
1226.44016	0.07051
1222.58343	0.07690
1218.72670	0.08197
1214.86997	0.08008
1211.01324	0.07504
1207.15651	0.07484
1203.29978	0.07801
1199.44305	0.07986
1195.58632	0.08193
1191.72959	0.08574
1187.87286	0.08567
1184.01613	0.08348
1180.15940	0.08475
1176.30267	0.08605
1172.44594	0.08381
1168.58921	0.08146
1164.73248	0.08330
1160.87575	0.08790
1157.01902	0.08853
1153.16229	0.08319
1149.30556	0.07899
1145.44883	0.07490
1141.59210	0.06741
1137.73537	0.06023
1133.87864	0.06266
1130.02191	0.07435
1126.16518	0.08235
1122.30845	0.07991
1118.45172	0.07689
1114.59499	0.07784
1110.73826	0.07774
1106.88153	0.07813
1103.02480	0.08224
1099.16807	0.08814
1095.31134	0.09317
1091.45461	0.09221
1087.59788	0.08526
1083.74115	0.08090
1079.88442	0.08258
1076.02769	0.08579
1072.17096	0.08365
1068.31423	0.07683
1064.45750	0.07571
1060.60077	0.08129
1056.74404	0.08250
1052.88731	0.07760
1049.03058	0.07633
1045.17385	0.08133
1041.31712	0.08802
1037.46039	0.09065
1033.60366	0.08657
1029.74693	0.07762
1025.89020	0.07358
1022.03347	0.07712
1018.17674	0.08247
1014.32001	0.08625
1010.46328	0.08621
1006.60655	0.08227
1002.74982	0.07907
998.89309	0.08022
995.03636	0.08294
991.17963	0.08280
987.32290	0.08103
983.46617	0.08016
979.60944	0.08046
975.75271	0.08093
971.89598	0.08000
968.03925	0.07879
964.18252	0.07873
960.32579	0.07867
956.46906	0.07825
952.61233	0.07859
948.75560	0.08013
944.89887	0.08093
941.04214	0.08018
937.18541	0.08172
933.32868	0.08602
929.47195	0.08721
925.61522	0.08242
921.75849	0.07846
917.90176	0.08069
914.04503	0.08175
910.18830	0.07650
906.33157	0.07437
902.47484	0.07863
898.61811	0.07938
894.76138	0.07644
890.90465	0.07805
887.04792	0.07961
883.19119	0.07489
879.33446	0.07126
875.47773	0.07344
871.62100	0.07793
867.76427	0.07907
863.90754	0.07708
860.05081	0.07920
856.19408	0.08336
852.33735	0.08318
848.48062	0.08122
844.62389	0.08201
840.76716	0.08278
836.91043	0.07644
833.05370	0.06488
829.19697	0.06172
825.34024	0.07208
821.48351	0.07656
817.62678	0.07116
813.77005	0.07091
809.91332	0.07493
806.05659	0.07766
802.19986	0.08211
798.34313	0.08527
794.48640	0.08368
790.62967	0.07947
786.77294	0.07249
782.91621	0.06487
779.05947	0.06351
775.20274	0.06745
771.34601	0.06941
767.48928	0.06830
763.63255	0.07052
759.77582	0.07675
755.91909	0.08340
752.06236	0.09037
748.20563	0.09279
744.34890	0.08451
740.49217	0.07504
736.63544	0.07100
732.77871	0.07201
728.92198	0.07848
725.06525	0.08393
721.20852	0.08569
717.35179	0.08338
713.49506	0.08075
709.63833	0.08084
705.78160	0.08072
701.92487	0.07683
698.06814	0.07282
694.21141	0.07113
690.35468	0.07015
686.49795	0.07303
682.64122	0.07971
678.78449	0.08643
674.92776	0.09016
671.07103	0.08664
667.21430	0.08074
663.35757	0.08151
659.50084	0.08372
655.64411	0.08173
651.78738	0.08121
647.93065	0.08498
644.07392	0.08359
640.21719	0.07807
636.36046	0.07625
632.50373	0.07820
628.64700	0.08032
624.79027	0.08586
620.93354	0.09514
617.07681	0.09778
613.22008	0.09488
609.36335	0.09437
605.50662	0.09870
601.64989	0.10615
597.79316	0.11031
