3995.57236	0.15198
3991.71563	0.14817
3987.85890	0.14643
3984.00217	0.14725
3980.14544	0.14758
3976.28871	0.14966
3972.43198	0.15529
3968.57525	0.16030
3964.71852	0.16306
3960.86179	0.16490
3957.00506	0.16474
3953.14833	0.16205
3949.29160	0.16019
3945.43487	0.15961
3941.57814	0.15865
3937.72141	0.15906
3933.86468	0.16014
3930.00795	0.16013
3926.15122	0.16225
3922.29449	0.16709
3918.43776	0.16992
3914.58103	0.17055
3910.72430	0.17049
3906.86757	0.16905
3903.01084	0.17046
3899.15411	0.17741
3895.29737	0.18211
3891.44064	0.18143
3887.58391	0.17727
3883.72718	0.17348
3879.87045	0.17444
3876.01372	0.17763
3872.15699	0.17782
3868.30026	0.17619
3864.44353	0.17624
3860.58680	0.17917
3856.73007	0.18635
3852.87334	0.19459
3849.01661	0.19647
3845.15988	0.19494
3841.30315	0.19283
3837.44642	0.19004
3833.58969	0.18855
3829.73296	0.18985
3825.87623	0.19053
3822.01950	0.18875
3818.16277	0.18763
3814.30604	0.18713
3810.44931	0.18617
3806.59258	0.18701
3802.73585	0.18706
3798.87912	0.18299
3795.02239	0.17981
3791.16566	0.17936
3787.30893	0.18098
3783.45220	0.18327
3779.59547	0.18201
3775.73874	0.17894
3771.88201	0.17701
3768.02528	0.17492
3764.16855	0.17368
3760.31182	0.17284
3756.45509	0.17033
3752.59836	0.16765
3748.74163	0.16491
3744.88490	0.16168
3741.02817	0.16268
3737.17144	0.16715
3733.31471	0.16771
3729.45798	0.16340
3725.60125	0.15906
3721.74452	0.15439
3717.88779	0.14997
3714.03106	0.14735
3710.17433	0.14664
3706.31760	0.14753
3702.46087	0.14579
3698.60414	0.13959
3694.74741	0.13355
3690.89068	0.12798
3687.03395	0.11944
3683.17722	0.11206
3679.32049	0.10723
3675.46376	0.10216
3671.60703	0.09874
3667.75030	0.09853
3663.89357	0.09968
3660.03684	0.10193
3656.18011	0.10427
3652.32338	0.10351
3648.46665	0.09718
3644.60992	0.09115
3640.75319	0.08934
3636.89646	0.08687
3633.03973	0.08314
3629.18300	0.08355
3625.32627	0.08900
3621.46954	0.09241
3617.61281	0.09160
3613.75608	0.08838
3609.89935	0.08544
3606.04262	0.08580
3602.18589	0.08820
3598.32916	0.08979
3594.47243	0.09121
3590.61570	0.09289
3586.75897	0.09318
3582.90224	0.09277
3579.04551	0.09510
3575.18878	0.09893
3571.33205	0.09834
3567.47532	0.09029
3563.61859	0.08075
3559.76186	0.07799
3555.90513	0.08155
3552.04840	0.08648
3548.19167	0.08801
3544.33494	0.08737
3540.47821	0.08614
3536.62148	0.08315
3532.76475	0.08407
3528.90802	0.09027
3525.05129	0.09000
3521.19456	0.08424
3517.33783	0.08438
3513.48110	0.08738
3509.62437	0.09002
3505.76764	0.09316
3501.91091	0.09296
3498.05418	0.08969
3494.19745	0.08686
3490.34072	0.08566
3486.48399	0.08636
3482.62726	0.08758
3478.77053	0.08939
3474.91380	0.09305
3471.05707	0.09598
3467.20034	0.09672
3463.34361	0.09825
3459.48688	0.09920
3455.63015	0.09629
3451.77342	0.09083
3447.91669	0.08804
3444.05996	0.09053
3440.20323	0.09416
3436.34650	0.09354
3432.48977	0.08815
3428.63304	0.08388
3424.77631	0.08233
3420.91958	0.08089
3417.06285	0.08029
3413.20612	0.08089
3409.34939	0.08075
3405.49266	0.08004
3401.63593	0.08101
3397.77920	0.08507
3393.92247	0.08734
3390.06574	0.08534
3386.20901	0.08549
3382.35228	0.08972
3378.49555	0.09289
3374.63881	0.09362
3370.78208	0.09372
3366.92535	0.09248
3363.06862	0.09003
3359.21189	0.08962
3355.35516	0.09119
3351.49843	0.09131
3347.64170	0.09027
3343.78497	0.09034
3339.92824	0.08985
3336.07151	0.08657
3332.21478	0.08401
3328.35805	0.08511
3324.50132	0.08818
3320.64459	0.09093
3316.78786	0.09295
3312.93113	0.09468
3309.07440	0.09794
3305.21767	0.10017
3301.36094	0.09901
3297.50421	0.09680
3293.64748	0.09482
3289.79075	0.09416
3285.93402	0.09638
3282.07729	0.09782
3278.22056	0.09449
3274.36383	0.09164
3270.50710	0.09376
3266.65037	0.09607
3262.79364	0.09748
3258.93691	0.09826
3255.08018	0.09493
3251.22345	0.08966
3247.36672	0.08972
3243.50999	0.09630
3239.65326	0.10240
3235.79653	0.10282
3231.93980	0.09946
3228.08307	0.09487
3224.22634	0.09131
3220.36961	0.09208
3216.51288	0.09592
3212.65615	0.09932
3208.79942	0.10066
3204.94269	0.09931
3201.08596	0.09801
3197.22923	0.10025
3193.37250	0.10213
3189.51577	0.09930
3185.65904	0.09595
3181.80231	0.09584
3177.94558	0.09608
3174.08885	0.09656
3170.23212	0.09798
3166.37539	0.09838
3162.51866	0.09893
3158.66193	0.10044
3154.80520	0.10376
3150.94847	0.10640
3147.09174	0.10420
3143.23501	0.10096
3139.37828	0.10069
3135.52155	0.10118
3131.66482	0.10251
3127.80809	0.10522
3123.95136	0.10493
3120.09463	0.10121
3116.23790	0.09990
3112.38117	0.10153
3108.52444	0.10171
3104.66771	0.10003
3100.81098	0.09876
3096.95425	0.09922
3093.09752	0.10109
3089.24079	0.10204
3085.38406	0.10162
3081.52733	0.10181
3077.67060	0.10174
3073.81387	0.10053
3069.95714	0.09966
3066.10041	0.09919
3062.24368	0.09850
3058.38695	0.09766
3054.53022	0.09784
3050.67349	0.09942
3046.81676	0.09950
3042.96003	0.09629
3039.10330	0.09337
3035.24657	0.09495
3031.38984	0.09832
3027.53311	0.09797
3023.67638	0.09478
3019.81965	0.09253
3015.96292	0.09264
3012.10619	0.09415
3008.24946	0.09602
3004.39273	0.09794
3000.53600	0.09832
2996.67927	0.09744
2992.82254	0.09863
2988.96581	0.10117
2985.10908	0.10082
2981.25235	0.09769
2977.39562	0.09604
2973.53889	0.09830
2969.68216	0.10236
2965.82543	0.10571
2961.96870	0.10925
2958.11197	0.11170
2954.25524	0.10755
2950.39851	0.09972
2946.54178	0.09860
2942.68505	0.10520
2938.82832	0.11160
2934.97159	0.11319
2931.11486	0.11133
2927.25813	0.10812
2923.40140	0.10718
2919.54467	0.10780
2915.68794	0.10599
2911.83121	0.10502
2907.97448	0.10567
2904.11775	0.10373
2900.26102	0.10031
2896.40429	0.09781
2892.54756	0.09580
2888.69083	0.09474
2884.83410	0.09582
2880.97737	0.09912
2877.12064	0.10168
2873.26391	0.10172
2869.40718	0.10259
2865.55045	0.10668
2861.69372	0.11009
2857.83698	0.10917
2853.98025	0.10619
2850.12352	0.10449
2846.26679	0.10438
2842.41006	0.10514
2838.55333	0.10732
2834.69660	0.11006
2830.83987	0.10970
2826.98314	0.10647
2823.12641	0.10400
2819.26968	0.10192
2815.41295	0.10017
2811.55622	0.10049
2807.69949	0.10149
2803.84276	0.10281
2799.98603	0.10524
2796.12930	0.10704
2792.27257	0.10780
2788.41584	0.10813
2784.55911	0.10753
2780.70238	0.10746
2776.84565	0.10876
2772.98892	0.10891
2769.13219	0.10766
2765.27546	0.10623
2761.41873	0.10368
2757.56200	0.10181
2753.70527	0.10290
2749.84854	0.10432
2745.99181	0.10514
2742.13508	0.10723
2738.27835	0.10881
2734.42162	0.10874
2730.56489	0.10935
2726.70816	0.11009
2722.85143	0.10911
2718.99470	0.10707
2715.13797	0.10530
2711.28124	0.10510
2707.42451	0.10654
2703.56778	0.10871
2699.71105	0.11017
2695.85432	0.10859
2691.99759	0.10579
2688.14086	0.10554
2684.28413	0.10725
2680.42740	0.10804
2676.57067	0.10697
2672.71394	0.10598
2668.85721	0.10715
2665.00048	0.10948
2661.14375	0.11032
2657.28702	0.10945
2653.43029	0.10905
2649.57356	0.10982
2645.71683	0.11049
2641.86010	0.11053
2638.00337	0.11006
2634.14664	0.10884
2630.28991	0.10837
2626.43318	0.10953
2622.57645	0.11016
2618.71972	0.10944
2614.86299	0.10820
2611.00626	0.10679
2607.14953	0.10623
2603.29280	0.10703
2599.43607	0.10850
2595.57934	0.10921
2591.72261	0.10853
2587.86588	0.10750
2584.00915	0.10698
2580.15242	0.10714
2576.29569	0.10789
2572.43896	0.10865
2568.58223	0.10905
2564.72550	0.10925
2560.86877	0.10964
2557.01204	0.11026
2553.15531	0.11071
2549.29858	0.11076
2545.44185	0.11024
2541.58512	0.10974
2537.72839	0.11068
2533.87166	0.11212
2530.01493	0.11209
2526.15820	0.11155
2522.30147	0.11185
2518.44474	0.11252
2514.58801	0.11255
2510.73128	0.11171
2506.87455	0.11151
2503.01782	0.11285
2499.16109	0.11492
2495.30436	0.11625
2491.44763	0.11536
2487.59090	0.11312
2483.73417	0.11174
2479.87744	0.11135
2476.02071	0.11116
2472.16398	0.11194
2468.30725	0.11358
2464.45052	0.11455
2460.59379	0.11459
2456.73706	0.11385
2452.88033	0.11235
2449.02360	0.11078
2445.16687	0.10993
2441.31014	0.11042
2437.45341	0.11234
2433.59668	0.11446
2429.73995	0.11447
2425.88322	0.11250
2422.02649	0.11148
2418.16976	0.11185
2414.31303	0.11229
2410.45630	0.11290
2406.59957	0.11359
2402.74284	0.11377
2398.88611	0.11344
2395.02938	0.11260
2391.17265	0.11181
2387.31592	0.11165
2383.45919	0.11128
2379.60246	0.11018
2375.74573	0.10894
2371.88900	0.10786
2368.03227	0.10637
2364.17554	0.10494
2360.31881	0.10620
2356.46208	0.10705
2352.60535	0.10746
2348.74862	0.10803
2344.89189	0.10764
2341.03516	0.10856
2337.17842	0.11163
2333.32169	0.11267
2329.46496	0.10989
2325.60823	0.10658
2321.75150	0.10734
2317.89477	0.11020
2314.03804	0.11046
2310.18131	0.10983
2306.32458	0.11191
2302.46785	0.11506
2298.61112	0.11651
2294.75439	0.11685
2290.89766	0.11786
2287.04093	0.11920
2283.18420	0.11885
2279.32747	0.11699
2275.47074	0.11570
2271.61401	0.11516
2267.75728	0.11506
2263.90055	0.11599
2260.04382	0.11675
2256.18709	0.11560
2252.33036	0.11455
2248.47363	0.11565
2244.61690	0.11729
2240.76017	0.11790
2236.90344	0.11783
2233.04671	0.11776
2229.18998	0.11736
2225.33325	0.11650
2221.47652	0.11627
2217.61979	0.11625
2213.76306	0.11505
2209.90633	0.11358
2206.04960	0.11293
2202.19287	0.11261
2198.33614	0.11285
2194.47941	0.11428
2190.62268	0.11599
2186.76595	0.11625
2182.90922	0.11462
2179.05249	0.11256
2175.19576	0.11146
2171.33903	0.11150
2167.48230	0.11172
2163.62557	0.11120
2159.76884	0.11090
2155.91211	0.11164
2152.05538	0.11208
2148.19865	0.11146
2144.34192	0.11091
2140.48519	0.11102
2136.62846	0.11180
2132.77173	0.11367
2128.91500	0.11522
2125.05827	0.11407
2121.20154	0.11155
2117.34481	0.11115
2113.48808	0.11303
2109.63135	0.11388
2105.77462	0.11245
2101.91789	0.11131
2098.06116	0.11213
2094.20443	0.11341
2090.34770	0.11358
2086.49097	0.11298
2082.63424	0.11278
2078.77751	0.11304
2074.92078	0.11251
2071.06405	0.11153
2067.20732	0.11176
2063.35059	0.11294
2059.49386	0.11401
2055.63713	0.11463
2051.78040	0.11399
2047.92367	0.11288
2044.06694	0.11340
2040.21021	0.11498
2036.35348	0.11573
2032.49675	0.11568
2028.64002	0.11504
2024.78329	0.11357
2020.92656	0.11197
2017.06983	0.11088
2013.21310	0.11114
2009.35637	0.11292
2005.49964	0.11403
2001.64291	0.11304
1997.78618	0.11131
1993.92945	0.11061
1990.07272	0.11113
1986.21599	0.11182
1982.35926	0.11243
1978.50253	0.11258
1974.64580	0.11133
1970.78907	0.11002
1966.93234	0.11001
1963.07561	0.11045
1959.21888	0.11108
1955.36215	0.11153
1951.50542	0.11105
1947.64869	0.11074
1943.79196	0.11128
1939.93523	0.11138
1936.07850	0.11109
1932.22177	0.11215
1928.36504	0.11458
1924.50831	0.11629
1920.65158	0.11581
1916.79485	0.11397
1912.93812	0.11314
1909.08139	0.11447
1905.22466	0.11582
1901.36793	0.11489
1897.51120	0.11314
1893.65447	0.11274
1889.79774	0.11298
1885.94101	0.11296
1882.08428	0.11365
1878.22755	0.11448
1874.37082	0.11348
1870.51409	0.11079
1866.65736	0.10861
1862.80063	0.10819
1858.94390	0.10888
1855.08717	0.10987
1851.23044	0.11087
1847.37371	0.11111
1843.51698	0.10900
1839.66025	0.10609
1835.80352	0.10486
1831.94679	0.10436
1828.09006	0.10340
1824.23333	0.10250
1820.37660	0.10261
1816.51986	0.10279
1812.66313	0.10128
1808.80640	0.09942
1804.94967	0.09939
1801.09294	0.09991
1797.23621	0.09866
1793.37948	0.09589
1789.52275	0.09368
1785.66602	0.09250
1781.80929	0.09134
1777.95256	0.09032
1774.09583	0.09017
1770.23910	0.09048
1766.38237	0.09079
1762.52564	0.09058
1758.66891	0.08908
1754.81218	0.08687
1750.95545	0.08559
1747.09872	0.08645
1743.24199	0.08854
1739.38526	0.08987
1735.52853	0.08855
1731.67180	0.08522
1727.81507	0.08333
1723.95834	0.08275
1720.10161	0.08249
1716.24488	0.08360
1712.38815	0.08475
1708.53142	0.08510
1704.67469	0.08575
1700.81796	0.08473
1696.96123	0.08049
1693.10450	0.07916
1689.24777	0.08137
1685.39104	0.08344
1681.53431	0.08315
1677.67758	0.08336
1673.82085	0.08606
1669.96412	0.08905
1666.10739	0.09087
1662.25066	0.09295
1658.39393	0.09448
1654.53720	0.09482
1650.68047	0.09554
1646.82374	0.09829
1642.96701	0.10228
1639.11028	0.10527
1635.25355	0.10494
1631.39682	0.10355
1627.54009	0.10444
1623.68336	0.10486
1619.82663	0.10243
1615.96990	0.10058
1612.11317	0.10039
1608.25644	0.09923
1604.39971	0.09837
1600.54298	0.09905
1596.68625	0.09915
1592.82952	0.09743
1588.97279	0.09514
1585.11606	0.09469
1581.25933	0.09547
1577.40260	0.09420
1573.54587	0.09230
1569.68914	0.09310
1565.83241	0.09422
1561.97568	0.09421
1558.11895	0.09645
1554.26222	0.10161
1550.40549	0.10440
1546.54876	0.10364
1542.69203	0.10145
1538.83530	0.10314
1534.97857	0.10740
1531.12184	0.11008
1527.26511	0.11212
1523.40838	0.11509
1519.55165	0.11765
1515.69492	0.11751
1511.83819	0.11564
1507.98146	0.11251
1504.12473	0.10983
1500.26800	0.10891
1496.41127	0.10879
1492.55454	0.10845
1488.69781	0.10731
1484.84108	0.10632
1480.98435	0.10667
1477.12762	0.10720
1473.27089	0.10643
1469.41416	0.10514
1465.55743	0.10375
1461.70070	0.10273
1457.84397	0.10354
1453.98724	0.10534
1450.13051	0.10639
1446.27378	0.10715
1442.41705	0.10731
1438.56032	0.10718
1434.70359	0.10866
1430.84686	0.11050
1426.99013	0.11098
1423.13340	0.11030
1419.27667	0.10686
1415.41994	0.10442
1411.56321	0.10573
1407.70648	0.10597
1403.84975	0.10307
1399.99302	0.10190
1396.13629	0.10457
1392.27956	0.10638
1388.42283	0.10581
1384.56610	0.10527
1380.70937	0.10536
1376.85264	0.10530
1372.99591	0.10523
1369.13918	0.10595
1365.28245	0.10641
1361.42572	0.10541
1357.56899	0.10416
1353.71226	0.10288
1349.85553	0.10057
1345.99880	0.09863
1342.14207	0.09954
1338.28534	0.10227
1334.42861	0.10335
1330.57188	0.10196
1326.71515	0.09982
1322.85842	0.09931
1319.00169	0.10174
1315.14496	0.10457
1311.28823	0.10398
1307.43150	0.10127
1303.57477	0.10004
1299.71804	0.09902
1295.86130	0.09733
1292.00457	0.09762
1288.14784	0.09965
1284.29111	0.09950
1280.43438	0.09603
1276.57765	0.09385
1272.72092	0.09623
1268.86419	0.09888
1265.00746	0.09971
1261.15073	0.10103
1257.29400	0.10162
1253.43727	0.10072
1249.58054	0.09771
1245.72381	0.09269
1241.86708	0.08840
1238.01035	0.08630
1234.15362	0.08837
1230.29689	0.09383
1226.44016	0.09817
1222.58343	0.10076
1218.72670	0.10115
1214.86997	0.09822
1211.01324	0.09584
1207.15651	0.09822
1203.29978	0.10166
1199.44305	0.10125
1195.58632	0.09936
1191.72959	0.09719
1187.87286	0.09498
1184.01613	0.09598
1180.15940	0.09974
1176.30267	0.10214
1172.44594	0.10315
1168.58921	0.10573
1164.73248	0.10960
1160.87575	0.10842
1157.01902	0.09923
1153.16229	0.09362
1149.30556	0.09896
1145.44883	0.10599
1141.59210	0.10723
1137.73537	0.10638
1133.87864	0.10580
1130.02191	0.10564
1126.16518	0.10786
1122.30845	0.10931
1118.45172	0.10593
1114.59499	0.10045
1110.73826	0.09758
1106.88153	0.09925
1103.02480	0.10342
1099.16807	0.10376
1095.31134	0.09970
1091.45461	0.09712
1087.59788	0.09701
1083.74115	0.09608
1079.88442	0.09270
1076.02769	0.08902
1072.17096	0.09063
1068.31423	0.10002
1064.45750	0.10865
1060.60077	0.10686
1056.74404	0.09888
1052.88731	0.09194
1049.03058	0.08919
1045.17385	0.09305
1041.31712	0.09826
1037.46039	0.09786
1033.60366	0.09660
1029.74693	0.09739
1025.89020	0.09368
1022.03347	0.08597
1018.17674	0.08466
1014.32001	0.09097
1010.46328	0.09552
1006.60655	0.09558
1002.74982	0.09625
998.89309	0.09956
995.03636	0.10231
991.17963	0.10218
987.32290	0.10102
983.46617	0.09827
979.60944	0.09369
975.75271	0.09223
971.89598	0.09323
968.03925	0.09185
964.18252	0.09105
960.32579	0.09355
956.46906	0.09596
952.61233	0.09567
948.75560	0.09207
944.89887	0.08785
941.04214	0.08501
937.18541	0.08345
933.32868	0.08471
929.47195	0.09158
925.61522	0.09992
921.75849	0.10097
917.90176	0.09512
914.04503	0.09050
910.18830	0.09157
906.33157	0.09654
902.47484	0.09896
898.61811	0.09500
894.76138	0.08936
890.90465	0.08975
887.04792	0.09498
883.19119	0.09697
879.33446	0.09345
875.47773	0.09098
871.62100	0.09361
867.76427	0.09863
863.90754	0.10225
860.05081	0.10173
856.19408	0.09793
852.33735	0.09356
848.48062	0.08851
844.62389	0.08440
840.76716	0.08451
836.91043	0.08764
833.05370	0.08744
829.19697	0.08431
825.34024	0.08658
821.48351	0.09472
817.62678	0.10001
813.77005	0.09785
809.91332	0.09180
806.05659	0.08617
802.19986	0.08451
798.34313	0.09033
794.48640	0.09800
790.62967	0.09978
786.77294	0.09478
782.91621	0.08677
779.05947	0.08115
775.20274	0.08087
771.34601	0.08386
767.48928	0.08953
763.63255	0.09609
759.77582	0.09837
755.91909	0.09876
752.06236	0.10124
748.20563	0.10360
744.34890	0.10116
740.49217	0.09623
736.63544	0.09144
732.77871	0.08521
728.92198	0.08235
725.06525	0.08662
721.20852	0.09232
717.35179	0.09869
713.49506	0.10337
709.63833	0.10326
705.78160	0.10252
701.92487	0.10658
698.06814	0.10944
694.21141	0.10640
690.35468	0.10306
686.49795	0.10178
682.64122	0.09608
678.78449	0.09057
674.92776	0.09616
671.07103	0.10986
667.21430	0.11634
663.35757	0.10686
659.50084	0.09679
655.64411	0.09903
651.78738	0.10814
647.93065	0.10994
644.07392	0.10321
640.21719	0.09032
636.36046	0.07703
632.50373	0.07597
628.64700	0.08799
624.79027	0.09137
620.93354	0.08824
617.07681	0.08866
613.22008	0.09430
609.36335	0.10155
605.50662	0.10826
601.64989	0.11672
597.79316	0.12539
