3995.57236	0.21369
3991.71563	0.21939
3987.85890	0.22412
3984.00217	0.22515
3980.14544	0.22482
3976.28871	0.22526
3972.43198	0.22594
3968.57525	0.22684
3964.71852	0.22898
3960.86179	0.23072
3957.00506	0.22943
3953.14833	0.22803
3949.29160	0.22995
3945.43487	0.23099
3941.57814	0.22910
3937.72141	0.22969
3933.86468	0.23299
3930.00795	0.23367
3926.15122	0.23139
3922.29449	0.22957
3918.43776	0.23041
3914.58103	0.23534
3910.72430	0.24121
3906.86757	0.24308
3903.01084	0.24308
3899.15411	0.24605
3895.29737	0.24913
3891.44064	0.24923
3887.58391	0.24892
3883.72718	0.24957
3879.87045	0.24921
3876.01372	0.24947
3872.15699	0.25205
3868.30026	0.25486
3864.44353	0.25730
3860.58680	0.26037
3856.73007	0.26307
3852.87334	0.26231
3849.01661	0.25971
3845.15988	0.26099
3841.30315	0.26606
3837.44642	0.27068
3833.58969	0.27073
3829.73296	0.26787
3825.87623	0.26560
3822.01950	0.26280
3818.16277	0.25819
3814.30604	0.25565
3810.44931	0.25444
3806.59258	0.25192
3802.73585	0.25103
3798.87912	0.25377
3795.02239	0.25574
3791.16566	0.25738
3787.30893	0.26224
3783.45220	0.26646
3779.59547	0.26405
3775.73874	0.25728
3771.88201	0.25154
3768.02528	0.24970
3764.16855	0.25152
3760.31182	0.25328
3756.45509	0.25291
3752.59836	0.25132
3748.74163	0.24952
3744.88490	0.24764
3741.02817	0.24608
3737.17144	0.24469
3733.31471	0.24447
3729.45798	0.24371
3725.60125	0.23813
3721.74452	0.23130
3717.88779	0.22854
3714.03106	0.22645
3710.17433	0.22250
3706.31760	0.21822
3702.46087	0.21033
3698.60414	0.20047
3694.74741	0.19546
3690.89068	0.19342
3687.03395	0.18758
3683.17722	0.17791
3679.32049	0.16816
3675.46376	0.16024
3671.60703	0.15236
3667.75030	0.14378
3663.89357	0.13833
3660.03684	0.13497
3656.18011	0.12896
3652.32338	0.12238
3648.46665	0.12189
3644.60992	0.12401
3640.75319	0.12311
3636.89646	0.12009
3633.03973	0.11549
3629.18300	0.10956
3625.32627	0.10421
3621.46954	0.10136
3617.61281	0.10255
3613.75608	0.10613
3609.89935	0.10794
3606.04262	0.10779
3602.18589	0.10720
3598.32916	0.10554
3594.47243	0.10603
3590.61570	0.11131
3586.75897	0.11539
3582.90224	0.11332
3579.04551	0.10832
3575.18878	0.10458
3571.33205	0.10417
3567.47532	0.10574
3563.61859	0.10564
3559.76186	0.10360
3555.90513	0.10211
3552.04840	0.10214
3548.19167	0.10457
3544.33494	0.10800
3540.47821	0.10816
3536.62148	0.10418
3532.76475	0.09961
3528.90802	0.09830
3525.05129	0.10093
3521.19456	0.10337
3517.33783	0.10354
3513.48110	0.10354
3509.62437	0.10384
3505.76764	0.10279
3501.91091	0.10047
3498.05418	0.09890
3494.19745	0.09895
3490.34072	0.09977
3486.48399	0.10067
3482.62726	0.10082
3478.77053	0.10026
3474.91380	0.10048
3471.05707	0.10065
3467.20034	0.09926
3463.34361	0.09793
3459.48688	0.09662
3455.63015	0.09353
3451.77342	0.09109
3447.91669	0.09483
3444.05996	0.10050
3440.20323	0.09840
3436.34650	0.09283
3432.48977	0.09340
3428.63304	0.09743
3424.77631	0.09785
3420.91958	0.09516
3417.06285	0.09529
3413.20612	0.09827
3409.34939	0.09938
3405.49266	0.09943
3401.63593	0.10185
3397.77920	0.10487
3393.92247	0.10470
3390.06574	0.10234
3386.20901	0.09832
3382.35228	0.09344
3378.49555	0.08988
3374.63881	0.08683
3370.78208	0.08582
3366.92535	0.08768
3363.06862	0.09164
3359.21189	0.09455
3355.35516	0.09277
3351.49843	0.08856
3347.64170	0.08642
3343.78497	0.08728
3339.92824	0.08740
3336.07151	0.08292
3332.21478	0.07765
3328.35805	0.07707
3324.50132	0.08046
3320.64459	0.08353
3316.78786	0.08359
3312.93113	0.08518
3309.07440	0.09224
3305.21767	0.09889
3301.36094	0.10036
3297.50421	0.09861
3293.64748	0.09485
3289.79075	0.09152
3285.93402	0.09274
3282.07729	0.09763
3278.22056	0.10159
3274.36383	0.10287
3270.50710	0.10065
3266.65037	0.09468
3262.79364	0.08875
3258.93691	0.08561
3255.08018	0.08598
3251.22345	0.08995
3247.36672	0.09467
3243.50999	0.09854
3239.65326	0.10209
3235.79653	0.10289
3231.93980	0.10084
3228.08307	0.10106
3224.22634	0.10461
3220.36961	0.10658
3216.51288	0.10476
3212.65615	0.10109
3208.79942	0.09689
3204.94269	0.09266
3201.08596	0.08949
3197.22923	0.09024
3193.37250	0.09613
3189.51577	0.10190
3185.65904	0.10271
3181.80231	0.10129
3177.94558	0.09957
3174.08885	0.09738
3170.23212	0.09651
3166.37539	0.09672
3162.51866	0.09540
3158.66193	0.09447
3154.80520	0.09662
3150.94847	0.09836
3147.09174	0.09883
3143.23501	0.10168
3139.37828	0.10675
3135.52155	0.10938
3131.66482	0.10817
3127.80809	0.10755
3123.95136	0.10814
3120.09463	0.10599
3116.23790	0.10394
3112.38117	0.10480
3108.52444	0.10481
3104.66771	0.10346
3100.81098	0.10274
3096.95425	0.10208
3093.09752	0.10263
3089.24079	0.10476
3085.38406	0.10672
3081.52733	0.10844
3077.67060	0.10977
3073.81387	0.11104
3069.95714	0.11164
3066.10041	0.10982
3062.24368	0.10774
3058.38695	0.10838
3054.53022	0.11025
3050.67349	0.10995
3046.81676	0.10705
3042.96003	0.10400
3039.10330	0.10376
3035.24657	0.10716
3031.38984	0.11010
3027.53311	0.11012
3023.67638	0.11035
3019.81965	0.11118
3015.96292	0.11071
3012.10619	0.10950
3008.24946	0.10872
3004.39273	0.10965
3000.53600	0.11270
2996.67927	0.11463
2992.82254	0.11192
2988.96581	0.10707
2985.10908	0.10465
2981.25235	0.10444
2977.39562	0.10399
2973.53889	0.10424
2969.68216	0.10758
2965.82543	0.11225
2961.96870	0.11278
2958.11197	0.10949
2954.25524	0.10658
2950.39851	0.10443
2946.54178	0.10339
2942.68505	0.10677
2938.82832	0.11285
2934.97159	0.11454
2931.11486	0.11273
2927.25813	0.11281
2923.40140	0.11131
2919.54467	0.10572
2915.68794	0.10116
2911.83121	0.10133
2907.97448	0.10503
2904.11775	0.10856
2900.26102	0.10889
2896.40429	0.10663
2892.54756	0.10586
2888.69083	0.10890
2884.83410	0.11213
2880.97737	0.11212
2877.12064	0.11055
2873.26391	0.11059
2869.40718	0.11177
2865.55045	0.10973
2861.69372	0.10409
2857.83698	0.10234
2853.98025	0.10670
2850.12352	0.10977
2846.26679	0.10971
2842.41006	0.11078
2838.55333	0.11376
2834.69660	0.11729
2830.83987	0.11895
2826.98314	0.11765
2823.12641	0.11646
2819.26968	0.11664
2815.41295	0.11532
2811.55622	0.11281
2807.69949	0.11417
2803.84276	0.12003
2799.98603	0.12382
2796.12930	0.12192
2792.27257	0.11805
2788.41584	0.11643
2784.55911	0.11746
2780.70238	0.11851
2776.84565	0.11769
2772.98892	0.11724
2769.13219	0.11871
2765.27546	0.11926
2761.41873	0.11838
2757.56200	0.11901
2753.70527	0.12036
2749.84854	0.11959
2745.99181	0.11826
2742.13508	0.11876
2738.27835	0.11978
2734.42162	0.12033
2730.56489	0.12049
2726.70816	0.11964
2722.85143	0.11821
2718.99470	0.11760
2715.13797	0.11814
2711.28124	0.11870
2707.42451	0.11866
2703.56778	0.11872
2699.71105	0.11976
2695.85432	0.12203
2691.99759	0.12369
2688.14086	0.12260
2684.28413	0.12059
2680.42740	0.12014
2676.57067	0.12079
2672.71394	0.12229
2668.85721	0.12319
2665.00048	0.12166
2661.14375	0.12021
2657.28702	0.12076
2653.43029	0.12137
2649.57356	0.12149
2645.71683	0.12237
2641.86010	0.12353
2638.00337	0.12395
2634.14664	0.12390
2630.28991	0.12373
2626.43318	0.12314
2622.57645	0.12259
2618.71972	0.12349
2614.86299	0.12469
2611.00626	0.12367
2607.14953	0.12221
2603.29280	0.12274
2599.43607	0.12339
2595.57934	0.12247
2591.72261	0.12179
2587.86588	0.12301
2584.00915	0.12440
2580.15242	0.12409
2576.29569	0.12275
2572.43896	0.12126
2568.58223	0.12059
2564.72550	0.12161
2560.86877	0.12302
2557.01204	0.12440
2553.15531	0.12635
2549.29858	0.12724
2545.44185	0.12669
2541.58512	0.12668
2537.72839	0.12756
2533.87166	0.12825
2530.01493	0.12768
2526.15820	0.12617
2522.30147	0.12566
2518.44474	0.12669
2514.58801	0.12747
2510.73128	0.12762
2506.87455	0.12819
2503.01782	0.12859
2499.16109	0.12808
2495.30436	0.12695
2491.44763	0.12608
2487.59090	0.12728
2483.73417	0.13023
2479.87744	0.13157
2476.02071	0.13047
2472.16398	0.13005
2468.30725	0.13141
2464.45052	0.13138
2460.59379	0.12839
2456.73706	0.12559
2452.88033	0.12563
2449.02360	0.12725
2445.16687	0.12895
2441.31014	0.13065
2437.45341	0.13221
2433.59668	0.13401
2429.73995	0.13533
2425.88322	0.13481
2422.02649	0.13378
2418.16976	0.13335
2414.31303	0.13296
2410.45630	0.13375
2406.59957	0.13519
2402.74284	0.13480
2398.88611	0.13417
2395.02938	0.13528
2391.17265	0.13620
2387.31592	0.13532
2383.45919	0.13383
2379.60246	0.13333
2375.74573	0.13443
2371.88900	0.13673
2368.03227	0.13931
2364.17554	0.14100
2360.31881	0.13985
2356.46208	0.13935
2352.60535	0.13993
2348.74862	0.13717
2344.89189	0.13196
2341.03516	0.12950
2337.17842	0.13163
2333.32169	0.13472
2329.46496	0.13582
2325.60823	0.13555
2321.75150	0.13550
2317.89477	0.13408
2314.03804	0.13433
2310.18131	0.13816
2306.32458	0.14056
2302.46785	0.14006
2298.61112	0.13992
2294.75439	0.14060
2290.89766	0.14065
2287.04093	0.14058
2283.18420	0.14096
2279.32747	0.14124
2275.47074	0.14145
2271.61401	0.14170
2267.75728	0.14195
2263.90055	0.14234
2260.04382	0.14227
2256.18709	0.14181
2252.33036	0.14195
2248.47363	0.14262
2244.61690	0.14262
2240.76017	0.14160
2236.90344	0.14133
2233.04671	0.14243
2229.18998	0.14273
2225.33325	0.14186
2221.47652	0.14124
2217.61979	0.14121
2213.76306	0.14144
2209.90633	0.14115
2206.04960	0.14017
2202.19287	0.13989
2198.33614	0.14044
2194.47941	0.13988
2190.62268	0.13774
2186.76595	0.13636
2182.90922	0.13728
2179.05249	0.13853
2175.19576	0.13797
2171.33903	0.13681
2167.48230	0.13635
2163.62557	0.13628
2159.76884	0.13725
2155.91211	0.13871
2152.05538	0.13863
2148.19865	0.13718
2144.34192	0.13617
2140.48519	0.13626
2136.62846	0.13670
2132.77173	0.13717
2128.91500	0.13722
2125.05827	0.13664
2121.20154	0.13708
2117.34481	0.13939
2113.48808	0.14100
2109.63135	0.13974
2105.77462	0.13751
2101.91789	0.13699
2098.06116	0.13793
2094.20443	0.13878
2090.34770	0.13960
2086.49097	0.14112
2082.63424	0.14178
2078.77751	0.13989
2074.92078	0.13730
2071.06405	0.13627
2067.20732	0.13644
2063.35059	0.13736
2059.49386	0.13923
2055.63713	0.14117
2051.78040	0.14219
2047.92367	0.14258
2044.06694	0.14325
2040.21021	0.14367
2036.35348	0.14330
2032.49675	0.14332
2028.64002	0.14400
2024.78329	0.14404
2020.92656	0.14312
2017.06983	0.14229
2013.21310	0.14182
2009.35637	0.14153
2005.49964	0.14227
2001.64291	0.14354
1997.78618	0.14417
1993.92945	0.14454
1990.07272	0.14439
1986.21599	0.14341
1982.35926	0.14253
1978.50253	0.14198
1974.64580	0.14140
1970.78907	0.14101
1966.93234	0.14121
1963.07561	0.14153
1959.21888	0.14190
1955.36215	0.14296
1951.50542	0.14346
1947.64869	0.14187
1943.79196	0.13981
1939.93523	0.13897
1936.07850	0.13904
1932.22177	0.14005
1928.36504	0.14124
1924.50831	0.14113
1920.65158	0.14002
1916.79485	0.13946
1912.93812	0.14040
1909.08139	0.14202
1905.22466	0.14303
1901.36793	0.14290
1897.51120	0.14166
1893.65447	0.14030
1889.79774	0.14036
1885.94101	0.14113
1882.08428	0.14065
1878.22755	0.13954
1874.37082	0.13885
1870.51409	0.13764
1866.65736	0.13559
1862.80063	0.13352
1858.94390	0.13160
1855.08717	0.13066
1851.23044	0.13199
1847.37371	0.13409
1843.51698	0.13389
1839.66025	0.13249
1835.80352	0.13303
1831.94679	0.13439
1828.09006	0.13326
1824.23333	0.13019
1820.37660	0.12754
1816.51986	0.12517
1812.66313	0.12329
1808.80640	0.12285
1804.94967	0.12296
1801.09294	0.12236
1797.23621	0.12112
1793.37948	0.11936
1789.52275	0.11711
1785.66602	0.11447
1781.80929	0.11094
1777.95256	0.10742
1774.09583	0.10661
1770.23910	0.10832
1766.38237	0.10868
1762.52564	0.10728
1758.66891	0.10574
1754.81218	0.10378
1750.95545	0.10171
1747.09872	0.10087
1743.24199	0.10158
1739.38526	0.10279
1735.52853	0.10382
1731.67180	0.10513
1727.81507	0.10447
1723.95834	0.10152
1720.10161	0.09905
1716.24488	0.09709
1712.38815	0.09453
1708.53142	0.09341
1704.67469	0.09487
1700.81796	0.09659
1696.96123	0.09395
1693.10450	0.08806
1689.24777	0.08292
1685.39104	0.08160
1681.53431	0.08640
1677.67758	0.09151
1673.82085	0.09108
1669.96412	0.08707
1666.10739	0.08478
1662.25066	0.08417
1658.39393	0.08477
1654.53720	0.08949
1650.68047	0.09701
1646.82374	0.10005
1642.96701	0.09902
1639.11028	0.09746
1635.25355	0.09631
1631.39682	0.09632
1627.54009	0.09845
1623.68336	0.10222
1619.82663	0.10508
1615.96990	0.10534
1612.11317	0.10388
1608.25644	0.10221
1604.39971	0.10128
1600.54298	0.10156
1596.68625	0.10212
1592.82952	0.10128
1588.97279	0.09956
1585.11606	0.09845
1581.25933	0.09780
1577.40260	0.09693
1573.54587	0.09665
1569.68914	0.09681
1565.83241	0.09533
1561.97568	0.09240
1558.11895	0.09057
1554.26222	0.09111
1550.40549	0.09240
1546.54876	0.09395
1542.69203	0.09646
1538.83530	0.10023
1534.97857	0.10359
1531.12184	0.10548
1527.26511	0.10672
1523.40838	0.10826
1519.55165	0.10945
1515.69492	0.10982
1511.83819	0.10985
1507.98146	0.10975
1504.12473	0.11106
1500.26800	0.11298
1496.41127	0.11282
1492.55454	0.11121
1488.69781	0.11037
1484.84108	0.11042
1480.98435	0.11011
1477.12762	0.10724
1473.27089	0.10086
1469.41416	0.09595
1465.55743	0.09727
1461.70070	0.10296
1457.84397	0.10822
1453.98724	0.10954
1450.13051	0.10846
1446.27378	0.10605
1442.41705	0.10259
1438.56032	0.10132
1434.70359	0.10391
1430.84686	0.10606
1426.99013	0.10689
1423.13340	0.10874
1419.27667	0.10903
1415.41994	0.10563
1411.56321	0.10320
1407.70648	0.10436
1403.84975	0.10638
1399.99302	0.10933
1396.13629	0.11323
1392.27956	0.11414
1388.42283	0.11239
1384.56610	0.11054
1380.70937	0.10997
1376.85264	0.11086
1372.99591	0.11095
1369.13918	0.10926
1365.28245	0.10742
1361.42572	0.10669
1357.56899	0.10587
1353.71226	0.10461
1349.85553	0.10375
1345.99880	0.10214
1342.14207	0.09929
1338.28534	0.09749
1334.42861	0.09749
1330.57188	0.09803
1326.71515	0.10009
1322.85842	0.10479
1319.00169	0.10834
1315.14496	0.10725
1311.28823	0.10464
1307.43150	0.10353
1303.57477	0.10271
1299.71804	0.10192
1295.86130	0.10233
1292.00457	0.10173
1288.14784	0.09839
1284.29111	0.09670
1280.43438	0.09956
1276.57765	0.10219
1272.72092	0.09992
1268.86419	0.09665
1265.00746	0.09795
1261.15073	0.10375
1257.29400	0.11004
1253.43727	0.11351
1249.58054	0.11236
1245.72381	0.10878
1241.86708	0.10539
1238.01035	0.10574
1234.15362	0.11002
1230.29689	0.11393
1226.44016	0.11159
1222.58343	0.10649
1218.72670	0.10640
1214.86997	0.10728
1211.01324	0.10302
1207.15651	0.10098
1203.29978	0.10595
1199.44305	0.11205
1195.58632	0.11193
1191.72959	0.10673
1187.87286	0.10184
1184.01613	0.09990
1180.15940	0.10451
1176.30267	0.11274
1172.44594	0.11731
1168.58921	0.11697
1164.73248	0.11191
1160.87575	0.10206
1157.01902	0.09493
1153.16229	0.09808
1149.30556	0.10698
1145.44883	0.11019
1141.59210	0.10760
1137.73537	0.10921
1133.87864	0.11592
1130.02191	0.11877
1126.16518	0.11561
1122.30845	0.10904
1118.45172	0.10461
1114.59499	0.10498
1110.73826	0.10772
1106.88153	0.11119
1103.02480	0.10863
1099.16807	0.09550
1095.31134	0.08492
1091.45461	0.09001
1087.59788	0.09936
1083.74115	0.10097
1079.88442	0.10324
1076.02769	0.11044
1072.17096	0.11032
1068.31423	0.10086
1064.45750	0.09770
1060.60077	0.10597
1056.74404	0.11496
1052.88731	0.12049
1049.03058	0.12371
1045.17385	0.12019
1041.31712	0.11110
1037.46039	0.10432
1033.60366	0.10231
1029.74693	0.10276
1025.89020	0.10577
1022.03347	0.10961
1018.17674	0.11182
1014.32001	0.11157
1010.46328	0.11001
1006.60655	0.10732
1002.74982	0.10382
998.89309	0.10351
995.03636	0.10755
991.17963	0.10996
987.32290	0.10882
983.46617	0.10888
979.60944	0.11112
975.75271	0.11179
971.89598	0.10911
968.03925	0.10559
964.18252	0.10439
960.32579	0.10582
956.46906	0.10632
952.61233	0.10532
948.75560	0.10545
944.89887	0.10694
941.04214	0.10761
937.18541	0.10570
933.32868	0.10438
929.47195	0.10699
925.61522	0.11052
921.75849	0.11188
917.90176	0.11125
914.04503	0.11024
910.18830	0.10983
906.33157	0.10802
902.47484	0.10441
898.61811	0.10356
894.76138	0.10552
890.90465	0.10539
887.04792	0.10488
883.19119	0.10538
879.33446	0.10284
875.47773	0.10021
871.62100	0.10112
867.76427	0.10247
863.90754	0.10294
860.05081	0.10349
856.19408	0.10564
852.33735	0.10643
848.48062	0.10165
844.62389	0.09710
840.76716	0.09888
836.91043	0.10409
833.05370	0.10583
829.19697	0.10253
825.34024	0.09887
821.48351	0.09780
817.62678	0.09909
813.77005	0.09991
809.91332	0.09940
806.05659	0.10265
802.19986	0.10964
798.34313	0.11126
794.48640	0.10846
790.62967	0.10576
786.77294	0.10167
782.91621	0.09938
779.05947	0.09919
775.20274	0.09773
771.34601	0.09815
767.48928	0.10029
763.63255	0.09974
759.77582	0.10062
755.91909	0.10754
752.06236	0.11349
748.20563	0.11076
744.34890	0.10582
740.49217	0.10411
736.63544	0.10231
732.77871	0.10162
728.92198	0.10599
725.06525	0.11169
721.20852	0.11431
717.35179	0.11201
713.49506	0.10570
709.63833	0.10081
705.78160	0.09939
701.92487	0.10022
698.06814	0.10324
694.21141	0.10763
690.35468	0.11166
686.49795	0.10991
682.64122	0.10588
678.78449	0.11067
674.92776	0.12035
671.07103	0.12049
667.21430	0.11022
663.35757	0.10360
659.50084	0.10291
655.64411	0.10264
651.78738	0.09804
647.93065	0.09155
644.07392	0.08812
640.21719	0.08770
636.36046	0.08551
632.50373	0.08088
628.64700	0.09073
624.79027	0.10954
620.93354	0.11038
617.07681	0.09829
613.22008	0.09466
609.36335	0.09688
605.50662	0.09840
601.64989	0.10465
597.79316	0.11362
