3995.57236	0.14272
3991.71563	0.14116
3987.85890	0.14449
3984.00217	0.14880
3980.14544	0.15087
3976.28871	0.15030
3972.43198	0.14884
3968.57525	0.14863
3964.71852	0.14974
3960.86179	0.15026
3957.00506	0.15049
3953.14833	0.15199
3949.29160	0.15336
3945.43487	0.15471
3941.57814	0.15685
3937.72141	0.15765
3933.86468	0.15624
3930.00795	0.15294
3926.15122	0.14752
3922.29449	0.14364
3918.43776	0.14770
3914.58103	0.15680
3910.72430	0.16189
3906.86757	0.16235
3903.01084	0.16028
3899.15411	0.15660
3895.29737	0.15437
3891.44064	0.15456
3887.58391	0.15541
3883.72718	0.15617
3879.87045	0.16032
3876.01372	0.16550
3872.15699	0.16544
3868.30026	0.16107
3864.44353	0.15814
3860.58680	0.15992
3856.73007	0.16597
3852.87334	0.17235
3849.01661	0.17399
3845.15988	0.17302
3841.30315	0.17315
3837.44642	0.17311
3833.58969	0.16940
3829.73296	0.16577
3825.87623	0.16411
3822.01950	0.16310
3818.16277	0.16496
3814.30604	0.16951
3810.44931	0.17201
3806.59258	0.17165
3802.73585	0.17023
3798.87912	0.16926
3795.02239	0.16733
3791.16566	0.16495
3787.30893	0.16352
3783.45220	0.16171
3779.59547	0.15892
3775.73874	0.15802
3771.88201	0.15886
3768.02528	0.15848
3764.16855	0.15723
3760.31182	0.15815
3756.45509	0.16101
3752.59836	0.16257
3748.74163	0.16287
3744.88490	0.16438
3741.02817	0.16273
3737.17144	0.15690
3733.31471	0.15317
3729.45798	0.15332
3725.60125	0.15180
3721.74452	0.14684
3717.88779	0.14187
3714.03106	0.14021
3710.17433	0.14227
3706.31760	0.14387
3702.46087	0.14140
3698.60414	0.13670
3694.74741	0.13353
3690.89068	0.12985
3687.03395	0.11999
3683.17722	0.11122
3679.32049	0.10983
3675.46376	0.10907
3671.60703	0.10010
3667.75030	0.09142
3663.89357	0.08827
3660.03684	0.08735
3656.18011	0.08588
3652.32338	0.08386
3648.46665	0.08296
3644.60992	0.08212
3640.75319	0.08033
3636.89646	0.07867
3633.03973	0.07537
3629.18300	0.06830
3625.32627	0.06444
3621.46954	0.06817
3617.61281	0.07415
3613.75608	0.07797
3609.89935	0.07651
3606.04262	0.07134
3602.18589	0.06887
3598.32916	0.07025
3594.47243	0.07015
3590.61570	0.06649
3586.75897	0.06406
3582.90224	0.06388
3579.04551	0.06493
3575.18878	0.06877
3571.33205	0.07277
3567.47532	0.07134
3563.61859	0.06719
3559.76186	0.06751
3555.90513	0.07109
3552.04840	0.07220
3548.19167	0.06915
3544.33494	0.06624
3540.47821	0.06587
3536.62148	0.06524
3532.76475	0.06410
3528.90802	0.06404
3525.05129	0.06341
3521.19456	0.06126
3517.33783	0.05986
3513.48110	0.06009
3509.62437	0.06134
3505.76764	0.06326
3501.91091	0.06648
3498.05418	0.06659
3494.19745	0.06137
3490.34072	0.05712
3486.48399	0.05870
3482.62726	0.06311
3478.77053	0.06635
3474.91380	0.06828
3471.05707	0.06876
3467.20034	0.06533
3463.34361	0.06049
3459.48688	0.05959
3455.63015	0.06237
3451.77342	0.06449
3447.91669	0.06536
3444.05996	0.06425
3440.20323	0.06125
3436.34650	0.06129
3432.48977	0.06344
3428.63304	0.06393
3424.77631	0.06387
3420.91958	0.06404
3417.06285	0.06201
3413.20612	0.05786
3409.34939	0.05470
3405.49266	0.05509
3401.63593	0.05895
3397.77920	0.06198
3393.92247	0.06158
3390.06574	0.06306
3386.20901	0.06821
3382.35228	0.07026
3378.49555	0.06687
3374.63881	0.06356
3370.78208	0.06404
3366.92535	0.06598
3363.06862	0.06602
3359.21189	0.06220
3355.35516	0.05692
3351.49843	0.05511
3347.64170	0.05603
3343.78497	0.05605
3339.92824	0.05392
3336.07151	0.05165
3332.21478	0.05107
3328.35805	0.05325
3324.50132	0.05681
3320.64459	0.05689
3316.78786	0.05250
3312.93113	0.04886
3309.07440	0.05022
3305.21767	0.05642
3301.36094	0.06416
3297.50421	0.06925
3293.64748	0.06941
3289.79075	0.06503
3285.93402	0.05847
3282.07729	0.05324
3278.22056	0.05305
3274.36383	0.05671
3270.50710	0.06057
3266.65037	0.06508
3262.79364	0.06712
3258.93691	0.06478
3255.08018	0.06272
3251.22345	0.06466
3247.36672	0.06650
3243.50999	0.06589
3239.65326	0.06783
3235.79653	0.07005
3231.93980	0.06894
3228.08307	0.06709
3224.22634	0.06602
3220.36961	0.06579
3216.51288	0.06596
3212.65615	0.06493
3208.79942	0.06336
3204.94269	0.06411
3201.08596	0.06538
3197.22923	0.06407
3193.37250	0.06090
3189.51577	0.05815
3185.65904	0.05606
3181.80231	0.05658
3177.94558	0.05951
3174.08885	0.05989
3170.23212	0.05939
3166.37539	0.06285
3162.51866	0.06776
3158.66193	0.06982
3154.80520	0.06808
3150.94847	0.06505
3147.09174	0.06417
3143.23501	0.06650
3139.37828	0.06858
3135.52155	0.06628
3131.66482	0.06347
3127.80809	0.06536
3123.95136	0.06873
3120.09463	0.06927
3116.23790	0.06708
3112.38117	0.06365
3108.52444	0.06226
3104.66771	0.06394
3100.81098	0.06577
3096.95425	0.06655
3093.09752	0.06791
3089.24079	0.06863
3085.38406	0.06759
3081.52733	0.06707
3077.67060	0.06773
3073.81387	0.06806
3069.95714	0.06845
3066.10041	0.06971
3062.24368	0.06878
3058.38695	0.06359
3054.53022	0.06064
3050.67349	0.06455
3046.81676	0.06963
3042.96003	0.07079
3039.10330	0.06965
3035.24657	0.06892
3031.38984	0.06984
3027.53311	0.07183
3023.67638	0.07214
3019.81965	0.06906
3015.96292	0.06491
3012.10619	0.06425
3008.24946	0.06583
3004.39273	0.06540
3000.53600	0.06424
2996.67927	0.06337
2992.82254	0.06071
2988.96581	0.05717
2985.10908	0.05543
2981.25235	0.05710
2977.39562	0.06250
2973.53889	0.06792
2969.68216	0.06842
2965.82543	0.06887
2961.96870	0.07300
2958.11197	0.07429
2954.25524	0.07261
2950.39851	0.07106
2946.54178	0.06894
2942.68505	0.06883
2938.82832	0.07051
2934.97159	0.07285
2931.11486	0.07766
2927.25813	0.08082
2923.40140	0.08037
2919.54467	0.07919
2915.68794	0.07650
2911.83121	0.07261
2907.97448	0.07073
2904.11775	0.07225
2900.26102	0.07534
2896.40429	0.07707
2892.54756	0.07564
2888.69083	0.07240
2884.83410	0.07054
2880.97737	0.07148
2877.12064	0.07296
2873.26391	0.07239
2869.40718	0.07065
2865.55045	0.07125
2861.69372	0.07467
2857.83698	0.07672
2853.98025	0.07773
2850.12352	0.07985
2846.26679	0.08104
2842.41006	0.07972
2838.55333	0.07584
2834.69660	0.07155
2830.83987	0.07052
2826.98314	0.07308
2823.12641	0.07633
2819.26968	0.07808
2815.41295	0.07847
2811.55622	0.07875
2807.69949	0.07974
2803.84276	0.08149
2799.98603	0.08238
2796.12930	0.08050
2792.27257	0.07681
2788.41584	0.07416
2784.55911	0.07418
2780.70238	0.07565
2776.84565	0.07605
2772.98892	0.07484
2769.13219	0.07375
2765.27546	0.07326
2761.41873	0.07281
2757.56200	0.07305
2753.70527	0.07369
2749.84854	0.07446
2745.99181	0.07683
2742.13508	0.07884
2738.27835	0.07705
2734.42162	0.07360
2730.56489	0.07303
2726.70816	0.07608
2722.85143	0.07896
2718.99470	0.07851
2715.13797	0.07620
2711.28124	0.07401
2707.42451	0.07203
2703.56778	0.07194
2699.71105	0.07475
2695.85432	0.07766
2691.99759	0.07840
2688.14086	0.07821
2684.28413	0.07835
2680.42740	0.07902
2676.57067	0.08056
2672.71394	0.08167
2668.85721	0.08052
2665.00048	0.07789
2661.14375	0.07680
2657.28702	0.07765
2653.43029	0.07844
2649.57356	0.07951
2645.71683	0.08102
2641.86010	0.08140
2638.00337	0.08062
2634.14664	0.07990
2630.28991	0.07978
2626.43318	0.07914
2622.57645	0.07753
2618.71972	0.07767
2614.86299	0.08014
2611.00626	0.08211
2607.14953	0.08233
2603.29280	0.08210
2599.43607	0.08253
2595.57934	0.08293
2591.72261	0.08195
2587.86588	0.07951
2584.00915	0.07716
2580.15242	0.07684
2576.29569	0.07840
2572.43896	0.07980
2568.58223	0.08037
2564.72550	0.08020
2560.86877	0.07951
2557.01204	0.07996
2553.15531	0.08179
2549.29858	0.08315
2545.44185	0.08308
2541.58512	0.08232
2537.72839	0.08150
2533.87166	0.08000
2530.01493	0.07864
2526.15820	0.07978
2522.30147	0.08271
2518.44474	0.08463
2514.58801	0.08445
2510.73128	0.08281
2506.87455	0.08165
2503.01782	0.08258
2499.16109	0.08411
2495.30436	0.08416
2491.44763	0.08368
2487.59090	0.08375
2483.73417	0.08348
2479.87744	0.08326
2476.02071	0.08407
2472.16398	0.08545
2468.30725	0.08711
2464.45052	0.08841
2460.59379	0.08788
2456.73706	0.08585
2452.88033	0.08497
2449.02360	0.08610
2445.16687	0.08683
2441.31014	0.08669
2437.45341	0.08717
2433.59668	0.08774
2429.73995	0.08744
2425.88322	0.08670
2422.02649	0.08606
2418.16976	0.08589
2414.31303	0.08571
2410.45630	0.08447
2406.59957	0.08329
2402.74284	0.08433
2398.88611	0.08675
2395.02938	0.08843
2391.17265	0.08923
2387.31592	0.08992
2383.45919	0.09098
2379.60246	0.09271
2375.74573	0.09488
2371.88900	0.09913
2368.03227	0.10470
2364.17554	0.10381
2360.31881	0.09911
2356.46208	0.09727
2352.60535	0.09688
2348.74862	0.09970
2344.89189	0.10540
2341.03516	0.10847
2337.17842	0.10391
2333.32169	0.09725
2329.46496	0.09429
2325.60823	0.09399
2321.75150	0.09464
2317.89477	0.09519
2314.03804	0.09429
2310.18131	0.09347
2306.32458	0.09429
2302.46785	0.09506
2298.61112	0.09425
2294.75439	0.09310
2290.89766	0.09329
2287.04093	0.09384
2283.18420	0.09370
2279.32747	0.09366
2275.47074	0.09419
2271.61401	0.09485
2267.75728	0.09448
2263.90055	0.09308
2260.04382	0.09250
2256.18709	0.09334
2252.33036	0.09496
2248.47363	0.09637
2244.61690	0.09584
2240.76017	0.09326
2236.90344	0.09104
2233.04671	0.09071
2229.18998	0.09137
2225.33325	0.09211
2221.47652	0.09278
2217.61979	0.09266
2213.76306	0.09149
2209.90633	0.09136
2206.04960	0.09304
2202.19287	0.09368
2198.33614	0.09249
2194.47941	0.09153
2190.62268	0.09093
2186.76595	0.09011
2182.90922	0.08963
2179.05249	0.08971
2175.19576	0.08988
2171.33903	0.08965
2167.48230	0.08938
2163.62557	0.08942
2159.76884	0.08896
2155.91211	0.08784
2152.05538	0.08683
2148.19865	0.08669
2144.34192	0.08766
2140.48519	0.08843
2136.62846	0.08804
2132.77173	0.08704
2128.91500	0.08673
2125.05827	0.08844
2121.20154	0.09099
2117.34481	0.09222
2113.48808	0.09287
2109.63135	0.09334
2105.77462	0.09267
2101.91789	0.09239
2098.06116	0.09337
2094.20443	0.09328
2090.34770	0.09119
2086.49097	0.08976
2082.63424	0.09037
2078.77751	0.09126
2074.92078	0.09190
2071.06405	0.09325
2067.20732	0.09455
2063.35059	0.09431
2059.49386	0.09299
2055.63713	0.09319
2051.78040	0.09563
2047.92367	0.09732
2044.06694	0.09590
2040.21021	0.09288
2036.35348	0.09145
2032.49675	0.09243
2028.64002	0.09361
2024.78329	0.09322
2020.92656	0.09192
2017.06983	0.09108
2013.21310	0.09107
2009.35637	0.09183
2005.49964	0.09311
2001.64291	0.09389
1997.78618	0.09338
1993.92945	0.09229
1990.07272	0.09172
1986.21599	0.09184
1982.35926	0.09254
1978.50253	0.09347
1974.64580	0.09361
1970.78907	0.09304
1966.93234	0.09237
1963.07561	0.09103
1959.21888	0.08921
1955.36215	0.08839
1951.50542	0.08919
1947.64869	0.09076
1943.79196	0.09189
1939.93523	0.09233
1936.07850	0.09280
1932.22177	0.09333
1928.36504	0.09378
1924.50831	0.09441
1920.65158	0.09431
1916.79485	0.09304
1912.93812	0.09239
1909.08139	0.09295
1905.22466	0.09375
1901.36793	0.09465
1897.51120	0.09522
1893.65447	0.09451
1889.79774	0.09304
1885.94101	0.09206
1882.08428	0.09157
1878.22755	0.09077
1874.37082	0.08968
1870.51409	0.08926
1866.65736	0.08941
1862.80063	0.08910
1858.94390	0.08916
1855.08717	0.09005
1851.23044	0.09026
1847.37371	0.08915
1843.51698	0.08771
1839.66025	0.08707
1835.80352	0.08691
1831.94679	0.08633
1828.09006	0.08557
1824.23333	0.08520
1820.37660	0.08434
1816.51986	0.08234
1812.66313	0.08014
1808.80640	0.07885
1804.94967	0.07808
1801.09294	0.07729
1797.23621	0.07685
1793.37948	0.07709
1789.52275	0.07743
1785.66602	0.07685
1781.80929	0.07533
1777.95256	0.07371
1774.09583	0.07286
1770.23910	0.07246
1766.38237	0.07194
1762.52564	0.07156
1758.66891	0.06985
1754.81218	0.06614
1750.95545	0.06373
1747.09872	0.06730
1743.24199	0.07508
1739.38526	0.08192
1735.52853	0.08811
1731.67180	0.09306
1727.81507	0.09247
1723.95834	0.08815
1720.10161	0.08520
1716.24488	0.08484
1712.38815	0.08251
1708.53142	0.07814
1704.67469	0.07447
1700.81796	0.07301
1696.96123	0.07232
1693.10450	0.07069
1689.24777	0.07069
1685.39104	0.07272
1681.53431	0.07374
1677.67758	0.07081
1673.82085	0.06479
1669.96412	0.06111
1666.10739	0.06344
1662.25066	0.06651
1658.39393	0.06619
1654.53720	0.06384
1650.68047	0.06486
1646.82374	0.06968
1642.96701	0.07280
1639.11028	0.07391
1635.25355	0.07435
1631.39682	0.07387
1627.54009	0.07289
1623.68336	0.07375
1619.82663	0.07677
1615.96990	0.07765
1612.11317	0.07499
1608.25644	0.07264
1604.39971	0.07170
1600.54298	0.07005
1596.68625	0.06766
1592.82952	0.06519
1588.97279	0.06252
1585.11606	0.06136
1581.25933	0.06298
1577.40260	0.06672
1573.54587	0.07058
1569.68914	0.07185
1565.83241	0.07062
1561.97568	0.06957
1558.11895	0.06955
1554.26222	0.06948
1550.40549	0.07130
1546.54876	0.07479
1542.69203	0.07655
1538.83530	0.07460
1534.97857	0.07360
1531.12184	0.07502
1527.26511	0.07584
1523.40838	0.07366
1519.55165	0.07227
1515.69492	0.07555
1511.83819	0.08068
1507.98146	0.08452
1504.12473	0.08457
1500.26800	0.08165
1496.41127	0.07903
1492.55454	0.07938
1488.69781	0.08111
1484.84108	0.08074
1480.98435	0.07801
1477.12762	0.07406
1473.27089	0.07264
1469.41416	0.07584
1465.55743	0.07903
1461.70070	0.08011
1457.84397	0.08073
1453.98724	0.07909
1450.13051	0.07416
1446.27378	0.06898
1442.41705	0.06660
1438.56032	0.06803
1434.70359	0.07064
1430.84686	0.07057
1426.99013	0.06889
1423.13340	0.06921
1419.27667	0.07141
1415.41994	0.07143
1411.56321	0.07092
1407.70648	0.07115
1403.84975	0.06987
1399.99302	0.06769
1396.13629	0.06803
1392.27956	0.07087
1388.42283	0.07318
1384.56610	0.07359
1380.70937	0.07301
1376.85264	0.07258
1372.99591	0.07111
1369.13918	0.06983
1365.28245	0.07098
1361.42572	0.07182
1357.56899	0.06998
1353.71226	0.06836
1349.85553	0.06887
1345.99880	0.07119
1342.14207	0.07483
1338.28534	0.07762
1334.42861	0.07696
1330.57188	0.07393
1326.71515	0.07052
1322.85842	0.06913
1319.00169	0.07004
1315.14496	0.06906
1311.28823	0.06490
1307.43150	0.06172
1303.57477	0.06233
1299.71804	0.06408
1295.86130	0.06370
1292.00457	0.06395
1288.14784	0.06478
1284.29111	0.06307
1280.43438	0.06003
1276.57765	0.05853
1272.72092	0.05856
1268.86419	0.06037
1265.00746	0.06547
1261.15073	0.07154
1257.29400	0.07317
1253.43727	0.07137
1249.58054	0.07004
1245.72381	0.06885
1241.86708	0.06500
1238.01035	0.06091
1234.15362	0.06126
1230.29689	0.06498
1226.44016	0.07001
1222.58343	0.06913
1218.72670	0.06269
1214.86997	0.05935
1211.01324	0.06238
1207.15651	0.06483
1203.29978	0.06349
1199.44305	0.06624
1195.58632	0.07287
1191.72959	0.07521
1187.87286	0.07186
1184.01613	0.06799
1180.15940	0.06726
1176.30267	0.07286
1172.44594	0.08072
1168.58921	0.08399
1164.73248	0.08605
1160.87575	0.09146
1157.01902	0.09607
1153.16229	0.09579
1149.30556	0.09172
1145.44883	0.08433
1141.59210	0.07749
1137.73537	0.07507
1133.87864	0.07615
1130.02191	0.07600
1126.16518	0.06995
1122.30845	0.06675
1118.45172	0.07224
1114.59499	0.07747
1110.73826	0.07765
1106.88153	0.07285
1103.02480	0.06701
1099.16807	0.06569
1095.31134	0.06924
1091.45461	0.07066
1087.59788	0.07021
1083.74115	0.06899
1079.88442	0.06450
1076.02769	0.06299
1072.17096	0.06984
1068.31423	0.07801
1064.45750	0.07907
1060.60077	0.07584
1056.74404	0.07211
1052.88731	0.07290
1049.03058	0.08076
1045.17385	0.08869
1041.31712	0.08973
1037.46039	0.08592
1033.60366	0.07858
1029.74693	0.07155
1025.89020	0.07184
1022.03347	0.07487
1018.17674	0.07615
1014.32001	0.07668
1010.46328	0.07662
1006.60655	0.07639
1002.74982	0.07820
998.89309	0.08056
995.03636	0.08027
991.17963	0.07688
987.32290	0.07371
983.46617	0.07421
979.60944	0.07506
975.75271	0.07212
971.89598	0.06926
968.03925	0.07106
964.18252	0.07512
960.32579	0.07729
956.46906	0.07823
952.61233	0.08039
948.75560	0.08126
944.89887	0.07887
941.04214	0.07361
937.18541	0.06746
933.32868	0.06674
929.47195	0.07369
925.61522	0.08147
921.75849	0.08418
917.90176	0.08331
914.04503	0.08031
910.18830	0.07238
906.33157	0.06266
902.47484	0.05892
898.61811	0.06451
894.76138	0.07523
890.90465	0.08308
887.04792	0.08448
883.19119	0.08335
879.33446	0.08246
875.47773	0.08121
871.62100	0.07966
867.76427	0.07782
863.90754	0.07208
860.05081	0.06688
856.19408	0.07048
852.33735	0.07675
848.48062	0.07523
844.62389	0.07272
840.76716	0.07587
836.91043	0.07879
833.05370	0.07975
829.19697	0.07908
825.34024	0.07432
821.48351	0.07126
817.62678	0.07828
813.77005	0.08776
809.91332	0.08727
806.05659	0.08004
802.19986	0.07235
798.34313	0.06926
794.48640	0.07490
790.62967	0.07709
786.77294	0.07370
782.91621	0.07422
779.05947	0.07603
775.20274	0.07281
771.34601	0.06544
767.48928	0.06052
763.63255	0.06338
759.77582	0.06874
755.91909	0.07204
752.06236	0.07460
748.20563	0.07289
744.34890	0.06539
740.49217	0.06130
736.63544	0.06598
732.77871	0.07089
728.92198	0.07051
725.06525	0.06998
721.20852	0.07410
717.35179	0.08050
713.49506	0.08133
709.63833	0.07589
705.78160	0.07154
701.92487	0.07039
698.06814	0.07091
694.21141	0.07414
690.35468	0.07980
686.49795	0.08170
682.64122	0.07873
678.78449	0.07309
674.92776	0.06725
671.07103	0.06762
667.21430	0.08150
663.35757	0.09297
659.50084	0.09478
655.64411	0.09289
651.78738	0.09224
647.93065	0.08908
644.07392	0.08356
640.21719	0.08117
636.36046	0.08276
632.50373	0.08815
628.64700	0.09508
624.79027	0.09389
620.93354	0.08471
617.07681	0.07656
613.22008	0.07920
609.36335	0.09362
605.50662	0.10804
601.64989	0.11164
597.79316	0.10734
