3995.57236	0.16727
3991.71563	0.16569
3987.85890	0.16198
3984.00217	0.15854
3980.14544	0.15955
3976.28871	0.16484
3972.43198	0.16938
3968.57525	0.17060
3964.71852	0.17080
3960.86179	0.17157
3957.00506	0.17291
3953.14833	0.17472
3949.29160	0.17446
3945.43487	0.17213
3941.57814	0.17204
3937.72141	0.17431
3933.86468	0.17695
3930.00795	0.17852
3926.15122	0.17793
3922.29449	0.17879
3918.43776	0.18236
3914.58103	0.18325
3910.72430	0.17997
3906.86757	0.17587
3903.01084	0.17565
3899.15411	0.17984
3895.29737	0.18000
3891.44064	0.17573
3887.58391	0.17342
3883.72718	0.17533
3879.87045	0.17925
3876.01372	0.18310
3872.15699	0.18537
3868.30026	0.18583
3864.44353	0.18588
3860.58680	0.18676
3856.73007	0.18764
3852.87334	0.18830
3849.01661	0.19160
3845.15988	0.19566
3841.30315	0.19657
3837.44642	0.19579
3833.58969	0.19669
3829.73296	0.19761
3825.87623	0.19856
3822.01950	0.19826
3818.16277	0.19406
3814.30604	0.19120
3810.44931	0.19233
3806.59258	0.19297
3802.73585	0.19200
3798.87912	0.19312
3795.02239	0.19438
3791.16566	0.19398
3787.30893	0.19472
3783.45220	0.19659
3779.59547	0.19590
3775.73874	0.19247
3771.88201	0.19039
3768.02528	0.19123
3764.16855	0.19199
3760.31182	0.19111
3756.45509	0.19206
3752.59836	0.19551
3748.74163	0.19603
3744.88490	0.19236
3741.02817	0.18770
3737.17144	0.18214
3733.31471	0.17733
3729.45798	0.17596
3725.60125	0.17702
3721.74452	0.17791
3717.88779	0.17683
3714.03106	0.17286
3710.17433	0.16665
3706.31760	0.16173
3702.46087	0.15784
3698.60414	0.15418
3694.74741	0.15197
3690.89068	0.15005
3687.03395	0.14551
3683.17722	0.13816
3679.32049	0.12975
3675.46376	0.12124
3671.60703	0.11604
3667.75030	0.11364
3663.89357	0.10905
3660.03684	0.10296
3656.18011	0.09930
3652.32338	0.09858
3648.46665	0.09538
3644.60992	0.09045
3640.75319	0.08869
3636.89646	0.08765
3633.03973	0.08404
3629.18300	0.07939
3625.32627	0.07991
3621.46954	0.08215
3617.61281	0.08036
3613.75608	0.07683
3609.89935	0.07620
3606.04262	0.07853
3602.18589	0.07981
3598.32916	0.07789
3594.47243	0.07640
3590.61570	0.07589
3586.75897	0.07172
3582.90224	0.06515
3579.04551	0.06343
3575.18878	0.06625
3571.33205	0.06670
3567.47532	0.06514
3563.61859	0.06790
3559.76186	0.07095
3555.90513	0.06922
3552.04840	0.06762
3548.19167	0.06868
3544.33494	0.06795
3540.47821	0.06535
3536.62148	0.06375
3532.76475	0.06414
3528.90802	0.06567
3525.05129	0.06546
3521.19456	0.06211
3517.33783	0.05917
3513.48110	0.05950
3509.62437	0.06102
3505.76764	0.06103
3501.91091	0.05821
3498.05418	0.05523
3494.19745	0.05577
3490.34072	0.05898
3486.48399	0.06202
3482.62726	0.06338
3478.77053	0.06367
3474.91380	0.06523
3471.05707	0.06687
3467.20034	0.06555
3463.34361	0.06193
3459.48688	0.05944
3455.63015	0.05961
3451.77342	0.05974
3447.91669	0.05850
3444.05996	0.06040
3440.20323	0.06695
3436.34650	0.07161
3432.48977	0.07143
3428.63304	0.07021
3424.77631	0.06897
3420.91958	0.06713
3417.06285	0.06669
3413.20612	0.06828
3409.34939	0.06895
3405.49266	0.06419
3401.63593	0.05586
3397.77920	0.05147
3393.92247	0.05573
3390.06574	0.06473
3386.20901	0.07109
3382.35228	0.07181
3378.49555	0.06927
3374.63881	0.06589
3370.78208	0.06049
3366.92535	0.05479
3363.06862	0.05551
3359.21189	0.06151
3355.35516	0.06522
3351.49843	0.06606
3347.64170	0.06558
3343.78497	0.06301
3339.92824	0.06046
3336.07151	0.05973
3332.21478	0.05896
3328.35805	0.05642
3324.50132	0.05437
3320.64459	0.05390
3316.78786	0.05389
3312.93113	0.05551
3309.07440	0.05908
3305.21767	0.06253
3301.36094	0.06489
3297.50421	0.06486
3293.64748	0.06169
3289.79075	0.05785
3285.93402	0.05752
3282.07729	0.06096
3278.22056	0.06474
3274.36383	0.06837
3270.50710	0.07277
3266.65037	0.07576
3262.79364	0.07572
3258.93691	0.07187
3255.08018	0.06664
3251.22345	0.06372
3247.36672	0.06334
3243.50999	0.06443
3239.65326	0.06341
3235.79653	0.06225
3231.93980	0.06586
3228.08307	0.07057
3224.22634	0.07192
3220.36961	0.07207
3216.51288	0.07298
3212.65615	0.07548
3208.79942	0.07825
3204.94269	0.07740
3201.08596	0.07426
3197.22923	0.07228
3193.37250	0.07056
3189.51577	0.06803
3185.65904	0.06749
3181.80231	0.07108
3177.94558	0.07448
3174.08885	0.07343
3170.23212	0.06909
3166.37539	0.06471
3162.51866	0.06456
3158.66193	0.06877
3154.80520	0.07183
3150.94847	0.07256
3147.09174	0.07292
3143.23501	0.07051
3139.37828	0.06622
3135.52155	0.06442
3131.66482	0.06607
3127.80809	0.06877
3123.95136	0.07104
3120.09463	0.07107
3116.23790	0.06867
3112.38117	0.06588
3108.52444	0.06533
3104.66771	0.06736
3100.81098	0.06986
3096.95425	0.07136
3093.09752	0.07079
3089.24079	0.06873
3085.38406	0.06806
3081.52733	0.07039
3077.67060	0.07405
3073.81387	0.07399
3069.95714	0.07063
3066.10041	0.06965
3062.24368	0.07060
3058.38695	0.07069
3054.53022	0.07097
3050.67349	0.07154
3046.81676	0.07166
3042.96003	0.07105
3039.10330	0.07068
3035.24657	0.07134
3031.38984	0.07108
3027.53311	0.06933
3023.67638	0.06895
3019.81965	0.07044
3015.96292	0.07235
3012.10619	0.07342
3008.24946	0.07403
3004.39273	0.07449
3000.53600	0.07303
2996.67927	0.07125
2992.82254	0.07352
2988.96581	0.07804
2985.10908	0.07830
2981.25235	0.07246
2977.39562	0.06434
2973.53889	0.05953
2969.68216	0.06150
2965.82543	0.06787
2961.96870	0.07289
2958.11197	0.07522
2954.25524	0.07472
2950.39851	0.07280
2946.54178	0.07269
2942.68505	0.07301
2938.82832	0.07125
2934.97159	0.06943
2931.11486	0.06945
2927.25813	0.07057
2923.40140	0.07401
2919.54467	0.07815
2915.68794	0.07771
2911.83121	0.07500
2907.97448	0.07507
2904.11775	0.07661
2900.26102	0.07646
2896.40429	0.07465
2892.54756	0.07398
2888.69083	0.07615
2884.83410	0.07867
2880.97737	0.07906
2877.12064	0.07759
2873.26391	0.07638
2869.40718	0.07706
2865.55045	0.07682
2861.69372	0.07471
2857.83698	0.07455
2853.98025	0.07582
2850.12352	0.07592
2846.26679	0.07635
2842.41006	0.07820
2838.55333	0.08087
2834.69660	0.08289
2830.83987	0.08310
2826.98314	0.08180
2823.12641	0.08043
2819.26968	0.07952
2815.41295	0.07937
2811.55622	0.08069
2807.69949	0.08296
2803.84276	0.08473
2799.98603	0.08529
2796.12930	0.08504
2792.27257	0.08438
2788.41584	0.08356
2784.55911	0.08278
2780.70238	0.08156
2776.84565	0.08138
2772.98892	0.08286
2769.13219	0.08272
2765.27546	0.08034
2761.41873	0.07890
2757.56200	0.07920
2753.70527	0.08021
2749.84854	0.08210
2745.99181	0.08420
2742.13508	0.08455
2738.27835	0.08291
2734.42162	0.08110
2730.56489	0.08162
2726.70816	0.08471
2722.85143	0.08788
2718.99470	0.08913
2715.13797	0.08848
2711.28124	0.08765
2707.42451	0.08776
2703.56778	0.08827
2699.71105	0.08815
2695.85432	0.08710
2691.99759	0.08664
2688.14086	0.08845
2684.28413	0.09198
2680.42740	0.09440
2676.57067	0.09391
2672.71394	0.09246
2668.85721	0.09189
2665.00048	0.09126
2661.14375	0.08998
2657.28702	0.08956
2653.43029	0.09094
2649.57356	0.09292
2645.71683	0.09379
2641.86010	0.09353
2638.00337	0.09298
2634.14664	0.09236
2630.28991	0.09191
2626.43318	0.09144
2622.57645	0.09134
2618.71972	0.09275
2614.86299	0.09451
2611.00626	0.09468
2607.14953	0.09351
2603.29280	0.09240
2599.43607	0.09165
2595.57934	0.09136
2591.72261	0.09272
2587.86588	0.09489
2584.00915	0.09592
2580.15242	0.09564
2576.29569	0.09445
2572.43896	0.09354
2568.58223	0.09363
2564.72550	0.09443
2560.86877	0.09617
2557.01204	0.09809
2553.15531	0.09841
2549.29858	0.09722
2545.44185	0.09657
2541.58512	0.09717
2537.72839	0.09811
2533.87166	0.09840
2530.01493	0.09764
2526.15820	0.09692
2522.30147	0.09772
2518.44474	0.09925
2514.58801	0.09972
2510.73128	0.09925
2506.87455	0.09952
2503.01782	0.10083
2499.16109	0.10167
2495.30436	0.10185
2491.44763	0.10250
2487.59090	0.10316
2483.73417	0.10342
2479.87744	0.10354
2476.02071	0.10323
2472.16398	0.10224
2468.30725	0.10159
2464.45052	0.10197
2460.59379	0.10297
2456.73706	0.10450
2452.88033	0.10576
2449.02360	0.10605
2445.16687	0.10658
2441.31014	0.10806
2437.45341	0.10923
2433.59668	0.10791
2429.73995	0.10543
2425.88322	0.10567
2422.02649	0.10757
2418.16976	0.10798
2414.31303	0.10764
2410.45630	0.10772
2406.59957	0.10759
2402.74284	0.10738
2398.88611	0.10760
2395.02938	0.10793
2391.17265	0.10784
2387.31592	0.10847
2383.45919	0.11078
2379.60246	0.11264
2375.74573	0.11322
2371.88900	0.11641
2368.03227	0.12312
2364.17554	0.12727
2360.31881	0.12521
2356.46208	0.12092
2352.60535	0.11829
2348.74862	0.11646
2344.89189	0.11542
2341.03516	0.11691
2337.17842	0.11838
2333.32169	0.11729
2329.46496	0.11690
2325.60823	0.11695
2321.75150	0.11628
2317.89477	0.11614
2314.03804	0.11582
2310.18131	0.11554
2306.32458	0.11629
2302.46785	0.11734
2298.61112	0.11792
2294.75439	0.11852
2290.89766	0.11984
2287.04093	0.12105
2283.18420	0.12044
2279.32747	0.11855
2275.47074	0.11693
2271.61401	0.11555
2267.75728	0.11528
2263.90055	0.11653
2260.04382	0.11683
2256.18709	0.11605
2252.33036	0.11608
2248.47363	0.11592
2244.61690	0.11594
2240.76017	0.11806
2236.90344	0.12021
2233.04671	0.12030
2229.18998	0.11932
2225.33325	0.11791
2221.47652	0.11586
2217.61979	0.11380
2213.76306	0.11327
2209.90633	0.11445
2206.04960	0.11588
2202.19287	0.11682
2198.33614	0.11660
2194.47941	0.11513
2190.62268	0.11340
2186.76595	0.11210
2182.90922	0.11206
2179.05249	0.11255
2175.19576	0.11171
2171.33903	0.11058
2167.48230	0.11030
2163.62557	0.10994
2159.76884	0.10944
2155.91211	0.10858
2152.05538	0.10726
2148.19865	0.10675
2144.34192	0.10726
2140.48519	0.10874
2136.62846	0.11100
2132.77173	0.11213
2128.91500	0.11191
2125.05827	0.11244
2121.20154	0.11347
2117.34481	0.11301
2113.48808	0.11175
2109.63135	0.11150
2105.77462	0.11188
2101.91789	0.11185
2098.06116	0.11142
2094.20443	0.11120
2090.34770	0.11201
2086.49097	0.11425
2082.63424	0.11640
2078.77751	0.11642
2074.92078	0.11500
2071.06405	0.11427
2067.20732	0.11439
2063.35059	0.11449
2059.49386	0.11464
2055.63713	0.11487
2051.78040	0.11530
2047.92367	0.11612
2044.06694	0.11665
2040.21021	0.11660
2036.35348	0.11703
2032.49675	0.11843
2028.64002	0.11942
2024.78329	0.11848
2020.92656	0.11630
2017.06983	0.11489
2013.21310	0.11500
2009.35637	0.11595
2005.49964	0.11663
2001.64291	0.11567
1997.78618	0.11385
1993.92945	0.11360
1990.07272	0.11513
1986.21599	0.11668
1982.35926	0.11680
1978.50253	0.11588
1974.64580	0.11545
1970.78907	0.11558
1966.93234	0.11472
1963.07561	0.11304
1959.21888	0.11295
1955.36215	0.11487
1951.50542	0.11681
1947.64869	0.11790
1943.79196	0.11828
1939.93523	0.11803
1936.07850	0.11742
1932.22177	0.11650
1928.36504	0.11584
1924.50831	0.11636
1920.65158	0.11738
1916.79485	0.11792
1912.93812	0.11849
1909.08139	0.11882
1905.22466	0.11775
1901.36793	0.11618
1897.51120	0.11587
1893.65447	0.11648
1889.79774	0.11654
1885.94101	0.11586
1882.08428	0.11495
1878.22755	0.11412
1874.37082	0.11360
1870.51409	0.11391
1866.65736	0.11490
1862.80063	0.11519
1858.94390	0.11479
1855.08717	0.11428
1851.23044	0.11335
1847.37371	0.11252
1843.51698	0.11237
1839.66025	0.11230
1835.80352	0.11220
1831.94679	0.11195
1828.09006	0.11022
1824.23333	0.10693
1820.37660	0.10460
1816.51986	0.10424
1812.66313	0.10404
1808.80640	0.10238
1804.94967	0.10021
1801.09294	0.09870
1797.23621	0.09760
1793.37948	0.09595
1789.52275	0.09326
1785.66602	0.09085
1781.80929	0.08915
1777.95256	0.08710
1774.09583	0.08421
1770.23910	0.08115
1766.38237	0.07951
1762.52564	0.07961
1758.66891	0.08088
1754.81218	0.08274
1750.95545	0.08367
1747.09872	0.08186
1743.24199	0.07847
1739.38526	0.07679
1735.52853	0.07634
1731.67180	0.07252
1727.81507	0.06783
1723.95834	0.06675
1720.10161	0.06687
1716.24488	0.06517
1712.38815	0.06516
1708.53142	0.06718
1704.67469	0.06605
1700.81796	0.05998
1696.96123	0.05329
1693.10450	0.05160
1689.24777	0.05264
1685.39104	0.05339
1681.53431	0.05423
1677.67758	0.05642
1673.82085	0.05714
1669.96412	0.05497
1666.10739	0.05367
1662.25066	0.05526
1658.39393	0.05809
1654.53720	0.06105
1650.68047	0.06505
1646.82374	0.06939
1642.96701	0.07089
1639.11028	0.07045
1635.25355	0.07079
1631.39682	0.07244
1627.54009	0.07483
1623.68336	0.07726
1619.82663	0.07794
1615.96990	0.07641
1612.11317	0.07420
1608.25644	0.07217
1604.39971	0.07022
1600.54298	0.06901
1596.68625	0.06869
1592.82952	0.06809
1588.97279	0.06641
1585.11606	0.06467
1581.25933	0.06432
1577.40260	0.06566
1573.54587	0.06666
1569.68914	0.06578
1565.83241	0.06516
1561.97568	0.06545
1558.11895	0.06579
1554.26222	0.06650
1550.40549	0.06673
1546.54876	0.06693
1542.69203	0.06928
1538.83530	0.07310
1534.97857	0.07476
1531.12184	0.07542
1527.26511	0.07664
1523.40838	0.07888
1519.55165	0.08080
1515.69492	0.08077
1511.83819	0.08009
1507.98146	0.07950
1504.12473	0.07956
1500.26800	0.08044
1496.41127	0.08107
1492.55454	0.08170
1488.69781	0.08146
1484.84108	0.07910
1480.98435	0.07647
1477.12762	0.07450
1473.27089	0.07420
1469.41416	0.07651
1465.55743	0.08016
1461.70070	0.08364
1457.84397	0.08334
1453.98724	0.07891
1450.13051	0.07611
1446.27378	0.07461
1442.41705	0.07205
1438.56032	0.06971
1434.70359	0.07130
1430.84686	0.07556
1426.99013	0.07789
1423.13340	0.07713
1419.27667	0.07524
1415.41994	0.07295
1411.56321	0.07086
1407.70648	0.07096
1403.84975	0.07230
1399.99302	0.07197
1396.13629	0.07043
1392.27956	0.07117
1388.42283	0.07493
1384.56610	0.07839
1380.70937	0.07747
1376.85264	0.07083
1372.99591	0.06500
1369.13918	0.06666
1365.28245	0.07006
1361.42572	0.06920
1357.56899	0.06692
1353.71226	0.06668
1349.85553	0.06802
1345.99880	0.06900
1342.14207	0.06804
1338.28534	0.06579
1334.42861	0.06589
1330.57188	0.06770
1326.71515	0.06707
1322.85842	0.06582
1319.00169	0.06747
1315.14496	0.06777
1311.28823	0.06402
1307.43150	0.06150
1303.57477	0.06119
1299.71804	0.06100
1295.86130	0.06271
1292.00457	0.06642
1288.14784	0.06933
1284.29111	0.07027
1280.43438	0.07021
1276.57765	0.07039
1272.72092	0.07149
1268.86419	0.07288
1265.00746	0.07239
1261.15073	0.06822
1257.29400	0.06255
1253.43727	0.05965
1249.58054	0.06006
1245.72381	0.06365
1241.86708	0.07130
1238.01035	0.07757
1234.15362	0.07676
1230.29689	0.07254
1226.44016	0.07190
1222.58343	0.07364
1218.72670	0.07481
1214.86997	0.07462
1211.01324	0.07019
1207.15651	0.06381
1203.29978	0.06165
1199.44305	0.06013
1195.58632	0.05985
1191.72959	0.06695
1187.87286	0.07419
1184.01613	0.07141
1180.15940	0.06260
1176.30267	0.05622
1172.44594	0.05700
1168.58921	0.06389
1164.73248	0.07354
1160.87575	0.08026
1157.01902	0.08520
1153.16229	0.08986
1149.30556	0.08631
1145.44883	0.07561
1141.59210	0.06773
1137.73537	0.06781
1133.87864	0.06848
1130.02191	0.06219
1126.16518	0.05419
1122.30845	0.05251
1118.45172	0.05616
1114.59499	0.05837
1110.73826	0.05918
1106.88153	0.06549
1103.02480	0.07623
1099.16807	0.08028
1095.31134	0.07603
1091.45461	0.07142
1087.59788	0.06841
1083.74115	0.06749
1079.88442	0.07015
1076.02769	0.07276
1072.17096	0.07064
1068.31423	0.06669
1064.45750	0.06534
1060.60077	0.06630
1056.74404	0.06820
1052.88731	0.06992
1049.03058	0.06753
1045.17385	0.06164
1041.31712	0.05922
1037.46039	0.06194
1033.60366	0.06585
1029.74693	0.06790
1025.89020	0.06717
1022.03347	0.06428
1018.17674	0.06096
1014.32001	0.05867
1010.46328	0.05934
1006.60655	0.06421
1002.74982	0.06866
998.89309	0.06901
995.03636	0.06966
991.17963	0.07306
987.32290	0.07493
983.46617	0.07098
979.60944	0.06326
975.75271	0.05799
971.89598	0.05961
968.03925	0.06573
964.18252	0.06920
960.32579	0.06756
956.46906	0.06398
952.61233	0.06099
948.75560	0.06057
944.89887	0.06311
941.04214	0.06494
937.18541	0.06602
933.32868	0.06970
929.47195	0.07271
925.61522	0.07120
921.75849	0.07030
917.90176	0.07210
914.04503	0.07174
910.18830	0.07131
906.33157	0.07382
902.47484	0.07547
898.61811	0.07559
894.76138	0.07590
890.90465	0.07580
887.04792	0.07714
883.19119	0.08002
879.33446	0.08153
875.47773	0.07943
871.62100	0.07680
867.76427	0.07843
863.90754	0.08056
860.05081	0.07502
856.19408	0.06599
852.33735	0.06077
848.48062	0.06110
844.62389	0.06812
840.76716	0.07693
836.91043	0.07641
833.05370	0.06871
829.19697	0.06577
825.34024	0.06902
821.48351	0.07275
817.62678	0.07146
813.77005	0.06471
809.91332	0.05938
806.05659	0.05983
802.19986	0.06164
798.34313	0.06363
794.48640	0.06776
790.62967	0.06994
786.77294	0.06917
782.91621	0.07170
779.05947	0.07578
775.20274	0.07376
771.34601	0.06534
767.48928	0.05913
763.63255	0.05817
759.77582	0.05553
755.91909	0.04828
752.06236	0.04447
748.20563	0.04800
744.34890	0.05353
740.49217	0.05976
736.63544	0.06842
732.77871	0.07607
728.92198	0.07626
725.06525	0.06993
721.20852	0.06704
717.35179	0.07031
713.49506	0.06854
709.63833	0.06225
705.78160	0.05997
701.92487	0.06404
698.06814	0.07329
694.21141	0.07847
690.35468	0.07279
686.49795	0.06617
682.64122	0.06559
678.78449	0.07252
674.92776	0.08357
671.07103	0.08640
667.21430	0.07512
663.35757	0.06566
659.50084	0.06581
655.64411	0.06967
651.78738	0.06917
647.93065	0.06813
644.07392	0.06922
640.21719	0.06807
636.36046	0.06447
632.50373	0.06206
628.64700	0.06468
624.79027	0.07172
620.93354	0.07510
617.07681	0.07330
613.22008	0.07266
609.36335	0.07555
605.50662	0.07580
601.64989	0.07746
597.79316	0.08363
