3995.57236	0.22670
3991.71563	0.22531
3987.85890	0.22601
3984.00217	0.22833
3980.14544	0.22851
3976.28871	0.22588
3972.43198	0.22470
3968.57525	0.22742
3964.71852	0.22881
3960.86179	0.22670
3957.00506	0.22751
3953.14833	0.23338
3949.29160	0.23807
3945.43487	0.23719
3941.57814	0.23276
3937.72141	0.22925
3933.86468	0.23058
3930.00795	0.23567
3926.15122	0.23912
3922.29449	0.24074
3918.43776	0.24369
3914.58103	0.24851
3910.72430	0.25250
3906.86757	0.25363
3903.01084	0.25343
3899.15411	0.25271
3895.29737	0.25109
3891.44064	0.24978
3887.58391	0.24954
3883.72718	0.24919
3879.87045	0.24766
3876.01372	0.24687
3872.15699	0.24715
3868.30026	0.24714
3864.44353	0.24998
3860.58680	0.25706
3856.73007	0.26376
3852.87334	0.26378
3849.01661	0.25846
3845.15988	0.25629
3841.30315	0.25845
3837.44642	0.26087
3833.58969	0.26088
3829.73296	0.26086
3825.87623	0.26105
3822.01950	0.26052
3818.16277	0.25930
3814.30604	0.25936
3810.44931	0.26185
3806.59258	0.26403
3802.73585	0.26160
3798.87912	0.25669
3795.02239	0.25579
3791.16566	0.25769
3787.30893	0.25882
3783.45220	0.25868
3779.59547	0.25743
3775.73874	0.25614
3771.88201	0.25534
3768.02528	0.25478
3764.16855	0.25468
3760.31182	0.25576
3756.45509	0.25787
3752.59836	0.25775
3748.74163	0.25384
3744.88490	0.25009
3741.02817	0.25120
3737.17144	0.25515
3733.31471	0.25314
3729.45798	0.24489
3725.60125	0.23898
3721.74452	0.23562
3717.88779	0.23232
3714.03106	0.23032
3710.17433	0.23066
3706.31760	0.22960
3702.46087	0.22382
3698.60414	0.21486
3694.74741	0.20734
3690.89068	0.20419
3687.03395	0.20213
3683.17722	0.19698
3679.32049	0.18848
3675.46376	0.17803
3671.60703	0.17047
3667.75030	0.16563
3663.89357	0.16083
3660.03684	0.15720
3656.18011	0.15345
3652.32338	0.14857
3648.46665	0.14469
3644.60992	0.14118
3640.75319	0.13723
3636.89646	0.13524
3633.03973	0.13542
3629.18300	0.13502
3625.32627	0.13486
3621.46954	0.13662
3617.61281	0.13643
3613.75608	0.13221
3609.89935	0.12862
3606.04262	0.12797
3602.18589	0.12738
3598.32916	0.12662
3594.47243	0.12750
3590.61570	0.13006
3586.75897	0.13357
3582.90224	0.13701
3579.04551	0.13897
3575.18878	0.13712
3571.33205	0.13223
3567.47532	0.12885
3563.61859	0.12889
3559.76186	0.13014
3555.90513	0.12903
3552.04840	0.12663
3548.19167	0.12758
3544.33494	0.13048
3540.47821	0.13156
3536.62148	0.12989
3532.76475	0.12688
3528.90802	0.12526
3525.05129	0.12400
3521.19456	0.12249
3517.33783	0.12432
3513.48110	0.12886
3509.62437	0.13126
3505.76764	0.12755
3501.91091	0.12171
3498.05418	0.12140
3494.19745	0.12497
3490.34072	0.12647
3486.48399	0.12664
3482.62726	0.12802
3478.77053	0.13102
3474.91380	0.13232
3471.05707	0.12879
3467.20034	0.12537
3463.34361	0.12597
3459.48688	0.12786
3455.63015	0.12818
3451.77342	0.12564
3447.91669	0.12059
3444.05996	0.11506
3440.20323	0.11248
3436.34650	0.11451
3432.48977	0.11806
3428.63304	0.11993
3424.77631	0.12062
3420.91958	0.12124
3417.06285	0.12094
3413.20612	0.12126
3409.34939	0.12282
3405.49266	0.12312
3401.63593	0.12537
3397.77920	0.13068
3393.92247	0.13093
3390.06574	0.12532
3386.20901	0.12174
3382.35228	0.12352
3378.49555	0.12836
3374.63881	0.13048
3370.78208	0.12870
3366.92535	0.12890
3363.06862	0.13217
3359.21189	0.13143
3355.35516	0.12513
3351.49843	0.12066
3347.64170	0.12100
3343.78497	0.12341
3339.92824	0.12611
3336.07151	0.12745
3332.21478	0.12696
3328.35805	0.12663
3324.50132	0.12806
3320.64459	0.12980
3316.78786	0.13000
3312.93113	0.12895
3309.07440	0.12915
3305.21767	0.13206
3301.36094	0.13309
3297.50421	0.12951
3293.64748	0.12552
3289.79075	0.12545
3285.93402	0.12812
3282.07729	0.13064
3278.22056	0.13300
3274.36383	0.13451
3270.50710	0.13280
3266.65037	0.12837
3262.79364	0.12435
3258.93691	0.12427
3255.08018	0.12839
3251.22345	0.13151
3247.36672	0.13032
3243.50999	0.12788
3239.65326	0.12855
3235.79653	0.13089
3231.93980	0.13033
3228.08307	0.12799
3224.22634	0.12847
3220.36961	0.13094
3216.51288	0.13317
3212.65615	0.13542
3208.79942	0.13441
3204.94269	0.12830
3201.08596	0.12266
3197.22923	0.12188
3193.37250	0.12487
3189.51577	0.12953
3185.65904	0.13075
3181.80231	0.12653
3177.94558	0.12330
3174.08885	0.12284
3170.23212	0.12266
3166.37539	0.12632
3162.51866	0.13457
3158.66193	0.13906
3154.80520	0.13472
3150.94847	0.12775
3147.09174	0.12622
3143.23501	0.12991
3139.37828	0.13232
3135.52155	0.13084
3131.66482	0.13055
3127.80809	0.13327
3123.95136	0.13541
3120.09463	0.13590
3116.23790	0.13664
3112.38117	0.13813
3108.52444	0.13851
3104.66771	0.13615
3100.81098	0.13106
3096.95425	0.12600
3093.09752	0.12607
3089.24079	0.13137
3085.38406	0.13426
3081.52733	0.13189
3077.67060	0.13004
3073.81387	0.13103
3069.95714	0.13302
3066.10041	0.13470
3062.24368	0.13703
3058.38695	0.14046
3054.53022	0.14074
3050.67349	0.13584
3046.81676	0.13082
3042.96003	0.13028
3039.10330	0.13208
3035.24657	0.13328
3031.38984	0.13424
3027.53311	0.13481
3023.67638	0.13415
3019.81965	0.13345
3015.96292	0.13436
3012.10619	0.13644
3008.24946	0.13973
3004.39273	0.14247
3000.53600	0.14145
2996.67927	0.13970
2992.82254	0.14038
2988.96581	0.14208
2985.10908	0.14243
2981.25235	0.13988
2977.39562	0.13779
2973.53889	0.13941
2969.68216	0.14000
2965.82543	0.13714
2961.96870	0.13517
2958.11197	0.13421
2954.25524	0.13208
2950.39851	0.13196
2946.54178	0.13389
2942.68505	0.13466
2938.82832	0.13479
2934.97159	0.13747
2931.11486	0.14324
2927.25813	0.14729
2923.40140	0.14478
2919.54467	0.13983
2915.68794	0.13944
2911.83121	0.14154
2907.97448	0.14411
2904.11775	0.14766
2900.26102	0.14806
2896.40429	0.14506
2892.54756	0.14267
2888.69083	0.14118
2884.83410	0.13999
2880.97737	0.14031
2877.12064	0.14047
2873.26391	0.13827
2869.40718	0.13682
2865.55045	0.13914
2861.69372	0.14260
2857.83698	0.14322
2853.98025	0.14277
2850.12352	0.14489
2846.26679	0.14616
2842.41006	0.14336
2838.55333	0.13987
2834.69660	0.13938
2830.83987	0.14137
2826.98314	0.14256
2823.12641	0.14190
2819.26968	0.14199
2815.41295	0.14421
2811.55622	0.14495
2807.69949	0.14130
2803.84276	0.13739
2799.98603	0.13722
2796.12930	0.13934
2792.27257	0.14109
2788.41584	0.13956
2784.55911	0.13559
2780.70238	0.13498
2776.84565	0.13789
2772.98892	0.13925
2769.13219	0.13780
2765.27546	0.13527
2761.41873	0.13356
2757.56200	0.13483
2753.70527	0.13856
2749.84854	0.14137
2745.99181	0.14177
2742.13508	0.14100
2738.27835	0.14032
2734.42162	0.14118
2730.56489	0.14410
2726.70816	0.14671
2722.85143	0.14578
2718.99470	0.14217
2715.13797	0.14049
2711.28124	0.14228
2707.42451	0.14463
2703.56778	0.14595
2699.71105	0.14732
2695.85432	0.14897
2691.99759	0.14948
2688.14086	0.14795
2684.28413	0.14642
2680.42740	0.14730
2676.57067	0.14853
2672.71394	0.14678
2668.85721	0.14367
2665.00048	0.14297
2661.14375	0.14403
2657.28702	0.14420
2653.43029	0.14473
2649.57356	0.14729
2645.71683	0.14957
2641.86010	0.15021
2638.00337	0.15102
2634.14664	0.15119
2630.28991	0.14934
2626.43318	0.14759
2622.57645	0.14663
2618.71972	0.14506
2614.86299	0.14373
2611.00626	0.14433
2607.14953	0.14661
2603.29280	0.14889
2599.43607	0.14998
2595.57934	0.14991
2591.72261	0.14960
2587.86588	0.14913
2584.00915	0.14769
2580.15242	0.14692
2576.29569	0.14815
2572.43896	0.14963
2568.58223	0.15026
2564.72550	0.14966
2560.86877	0.14802
2557.01204	0.14748
2553.15531	0.14932
2549.29858	0.15078
2545.44185	0.14872
2541.58512	0.14650
2537.72839	0.14884
2533.87166	0.15332
2530.01493	0.15510
2526.15820	0.15349
2522.30147	0.15118
2518.44474	0.15034
2514.58801	0.15076
2510.73128	0.15097
2506.87455	0.15032
2503.01782	0.14971
2499.16109	0.14997
2495.30436	0.15100
2491.44763	0.15220
2487.59090	0.15282
2483.73417	0.15286
2479.87744	0.15321
2476.02071	0.15448
2472.16398	0.15550
2468.30725	0.15530
2464.45052	0.15524
2460.59379	0.15564
2456.73706	0.15465
2452.88033	0.15295
2449.02360	0.15356
2445.16687	0.15537
2441.31014	0.15574
2437.45341	0.15663
2433.59668	0.15847
2429.73995	0.15875
2425.88322	0.15774
2422.02649	0.15711
2418.16976	0.15683
2414.31303	0.15583
2410.45630	0.15536
2406.59957	0.15719
2402.74284	0.15826
2398.88611	0.15675
2395.02938	0.15682
2391.17265	0.15950
2387.31592	0.16077
2383.45919	0.15999
2379.60246	0.15992
2375.74573	0.16136
2371.88900	0.16253
2368.03227	0.16312
2364.17554	0.16512
2360.31881	0.16370
2356.46208	0.15637
2352.60535	0.15309
2348.74862	0.15490
2344.89189	0.15669
2341.03516	0.15689
2337.17842	0.15928
2333.32169	0.16128
2329.46496	0.15802
2325.60823	0.15275
2321.75150	0.15194
2317.89477	0.15602
2314.03804	0.16026
2310.18131	0.16245
2306.32458	0.16344
2302.46785	0.16361
2298.61112	0.16299
2294.75439	0.16238
2290.89766	0.16246
2287.04093	0.16192
2283.18420	0.16040
2279.32747	0.16097
2275.47074	0.16434
2271.61401	0.16575
2267.75728	0.16414
2263.90055	0.16354
2260.04382	0.16393
2256.18709	0.16362
2252.33036	0.16326
2248.47363	0.16272
2244.61690	0.16203
2240.76017	0.16180
2236.90344	0.16179
2233.04671	0.16150
2229.18998	0.16100
2225.33325	0.16078
2221.47652	0.16123
2217.61979	0.16250
2213.76306	0.16391
2209.90633	0.16419
2206.04960	0.16296
2202.19287	0.16098
2198.33614	0.16033
2194.47941	0.16104
2190.62268	0.16032
2186.76595	0.15911
2182.90922	0.15994
2179.05249	0.16099
2175.19576	0.16057
2171.33903	0.15954
2167.48230	0.15831
2163.62557	0.15793
2159.76884	0.15887
2155.91211	0.15876
2152.05538	0.15684
2148.19865	0.15630
2144.34192	0.15788
2140.48519	0.15860
2136.62846	0.15809
2132.77173	0.15810
2128.91500	0.15881
2125.05827	0.15972
2121.20154	0.15987
2117.34481	0.15879
2113.48808	0.15771
2109.63135	0.15800
2105.77462	0.15919
2101.91789	0.15992
2098.06116	0.16008
2094.20443	0.16003
2090.34770	0.16069
2086.49097	0.16268
2082.63424	0.16353
2078.77751	0.16231
2074.92078	0.16079
2071.06405	0.15919
2067.20732	0.15772
2063.35059	0.15757
2059.49386	0.15894
2055.63713	0.16068
2051.78040	0.16142
2047.92367	0.16075
2044.06694	0.15982
2040.21021	0.16008
2036.35348	0.16067
2032.49675	0.16086
2028.64002	0.16217
2024.78329	0.16437
2020.92656	0.16500
2017.06983	0.16310
2013.21310	0.16017
2009.35637	0.15882
2005.49964	0.16005
2001.64291	0.16115
1997.78618	0.16053
1993.92945	0.15964
1990.07272	0.15897
1986.21599	0.15861
1982.35926	0.15894
1978.50253	0.15999
1974.64580	0.16131
1970.78907	0.16169
1966.93234	0.16095
1963.07561	0.15997
1959.21888	0.15962
1955.36215	0.16045
1951.50542	0.16118
1947.64869	0.16030
1943.79196	0.15947
1939.93523	0.15973
1936.07850	0.16008
1932.22177	0.16134
1928.36504	0.16344
1924.50831	0.16449
1920.65158	0.16405
1916.79485	0.16264
1912.93812	0.16089
1909.08139	0.16043
1905.22466	0.16246
1901.36793	0.16483
1897.51120	0.16442
1893.65447	0.16228
1889.79774	0.16151
1885.94101	0.16183
1882.08428	0.16182
1878.22755	0.16187
1874.37082	0.16142
1870.51409	0.16000
1866.65736	0.15894
1862.80063	0.15925
1858.94390	0.15966
1855.08717	0.15897
1851.23044	0.15776
1847.37371	0.15665
1843.51698	0.15520
1839.66025	0.15321
1835.80352	0.15192
1831.94679	0.15184
1828.09006	0.15075
1824.23333	0.14816
1820.37660	0.14617
1816.51986	0.14469
1812.66313	0.14259
1808.80640	0.14057
1804.94967	0.14023
1801.09294	0.14019
1797.23621	0.13785
1793.37948	0.13492
1789.52275	0.13460
1785.66602	0.13566
1781.80929	0.13554
1777.95256	0.13387
1774.09583	0.13170
1770.23910	0.12983
1766.38237	0.12848
1762.52564	0.12749
1758.66891	0.12544
1754.81218	0.12262
1750.95545	0.12175
1747.09872	0.12311
1743.24199	0.12511
1739.38526	0.12751
1735.52853	0.12972
1731.67180	0.12955
1727.81507	0.12685
1723.95834	0.12438
1720.10161	0.12185
1716.24488	0.11812
1712.38815	0.11636
1708.53142	0.11809
1704.67469	0.12150
1700.81796	0.12253
1696.96123	0.11794
1693.10450	0.11338
1689.24777	0.11278
1685.39104	0.11422
1681.53431	0.11472
1677.67758	0.11498
1673.82085	0.11626
1669.96412	0.11518
1666.10739	0.11251
1662.25066	0.11291
1658.39393	0.11480
1654.53720	0.11653
1650.68047	0.11946
1646.82374	0.12259
1642.96701	0.12574
1639.11028	0.12947
1635.25355	0.13252
1631.39682	0.13532
1627.54009	0.13824
1623.68336	0.13883
1619.82663	0.13655
1615.96990	0.13437
1612.11317	0.13311
1608.25644	0.13202
1604.39971	0.13186
1600.54298	0.13248
1596.68625	0.13220
1592.82952	0.13098
1588.97279	0.13026
1585.11606	0.13008
1581.25933	0.12893
1577.40260	0.12616
1573.54587	0.12366
1569.68914	0.12204
1565.83241	0.12029
1561.97568	0.11942
1558.11895	0.12255
1554.26222	0.12801
1550.40549	0.12992
1546.54876	0.12891
1542.69203	0.12881
1538.83530	0.13221
1534.97857	0.13635
1531.12184	0.13763
1527.26511	0.13578
1523.40838	0.13340
1519.55165	0.13356
1515.69492	0.13615
1511.83819	0.13901
1507.98146	0.14138
1504.12473	0.14251
1500.26800	0.14095
1496.41127	0.13732
1492.55454	0.13524
1488.69781	0.13600
1484.84108	0.13636
1480.98435	0.13603
1477.12762	0.13653
1473.27089	0.13637
1469.41416	0.13413
1465.55743	0.13251
1461.70070	0.13371
1457.84397	0.13609
1453.98724	0.13634
1450.13051	0.13450
1446.27378	0.13262
1442.41705	0.13253
1438.56032	0.13382
1434.70359	0.13451
1430.84686	0.13362
1426.99013	0.13069
1423.13340	0.12668
1419.27667	0.12436
1415.41994	0.12459
1411.56321	0.12530
1407.70648	0.12617
1403.84975	0.12874
1399.99302	0.13114
1396.13629	0.13035
1392.27956	0.12901
1388.42283	0.12923
1384.56610	0.12891
1380.70937	0.12864
1376.85264	0.13048
1372.99591	0.13190
1369.13918	0.13007
1365.28245	0.12882
1361.42572	0.13139
1357.56899	0.13461
1353.71226	0.13591
1349.85553	0.13550
1345.99880	0.13418
1342.14207	0.13249
1338.28534	0.12974
1334.42861	0.12674
1330.57188	0.12469
1326.71515	0.12189
1322.85842	0.11828
1319.00169	0.11725
1315.14496	0.11947
1311.28823	0.12180
1307.43150	0.12239
1303.57477	0.12161
1299.71804	0.11976
1295.86130	0.11698
1292.00457	0.11389
1288.14784	0.11228
1284.29111	0.11356
1280.43438	0.11701
1276.57765	0.12066
1272.72092	0.12336
1268.86419	0.12593
1265.00746	0.12805
1261.15073	0.12551
1257.29400	0.11804
1253.43727	0.11163
1249.58054	0.10930
1245.72381	0.11013
1241.86708	0.11397
1238.01035	0.11824
1234.15362	0.11770
1230.29689	0.11391
1226.44016	0.11447
1222.58343	0.11776
1218.72670	0.11993
1214.86997	0.11963
1211.01324	0.11488
1207.15651	0.11385
1203.29978	0.11958
1199.44305	0.12288
1195.58632	0.11959
1191.72959	0.11437
1187.87286	0.11199
1184.01613	0.11317
1180.15940	0.11325
1176.30267	0.11230
1172.44594	0.11373
1168.58921	0.11658
1164.73248	0.12072
1160.87575	0.12626
1157.01902	0.12994
1153.16229	0.12803
1149.30556	0.11914
1145.44883	0.11177
1141.59210	0.11439
1137.73537	0.11972
1133.87864	0.12111
1130.02191	0.11893
1126.16518	0.11283
1122.30845	0.10709
1118.45172	0.10490
1114.59499	0.10592
1110.73826	0.10841
1106.88153	0.11204
1103.02480	0.11740
1099.16807	0.12123
1095.31134	0.11935
1091.45461	0.11758
1087.59788	0.11713
1083.74115	0.11226
1079.88442	0.10706
1076.02769	0.10584
1072.17096	0.10714
1068.31423	0.11147
1064.45750	0.11755
1060.60077	0.12203
1056.74404	0.11951
1052.88731	0.10598
1049.03058	0.09492
1045.17385	0.10300
1041.31712	0.11978
1037.46039	0.12568
1033.60366	0.12406
1029.74693	0.12485
1025.89020	0.12598
1022.03347	0.12470
1018.17674	0.12136
1014.32001	0.11877
1010.46328	0.12123
1006.60655	0.12508
1002.74982	0.12393
998.89309	0.12017
995.03636	0.12035
991.17963	0.12449
987.32290	0.12953
983.46617	0.13068
979.60944	0.12722
975.75271	0.12490
971.89598	0.12532
968.03925	0.12381
964.18252	0.11660
960.32579	0.10773
956.46906	0.10567
952.61233	0.10862
948.75560	0.10906
944.89887	0.10944
941.04214	0.11159
937.18541	0.11126
933.32868	0.10864
929.47195	0.10767
925.61522	0.10978
921.75849	0.11731
917.90176	0.12877
914.04503	0.13632
910.18830	0.13618
906.33157	0.13095
902.47484	0.12120
898.61811	0.10922
894.76138	0.10512
890.90465	0.11247
887.04792	0.12327
883.19119	0.12721
879.33446	0.12276
875.47773	0.12059
871.62100	0.12391
867.76427	0.12514
863.90754	0.12415
860.05081	0.12315
856.19408	0.11680
852.33735	0.10728
848.48062	0.10587
844.62389	0.11411
840.76716	0.12142
836.91043	0.12108
833.05370	0.11919
829.19697	0.12514
825.34024	0.13420
821.48351	0.13532
817.62678	0.12867
813.77005	0.12146
809.91332	0.11997
806.05659	0.12062
802.19986	0.11758
798.34313	0.11448
794.48640	0.11407
790.62967	0.11741
786.77294	0.12136
782.91621	0.11831
779.05947	0.11294
775.20274	0.11556
771.34601	0.12305
767.48928	0.12751
763.63255	0.12758
759.77582	0.12388
755.91909	0.12015
752.06236	0.11683
748.20563	0.11137
744.34890	0.10762
740.49217	0.10951
736.63544	0.11359
732.77871	0.11493
728.92198	0.11543
725.06525	0.11692
721.20852	0.11871
717.35179	0.12228
713.49506	0.12667
709.63833	0.12809
705.78160	0.12647
701.92487	0.12289
698.06814	0.11656
694.21141	0.11393
690.35468	0.11803
686.49795	0.12017
682.64122	0.11883
678.78449	0.11786
674.92776	0.11787
671.07103	0.12100
667.21430	0.12303
663.35757	0.11666
659.50084	0.10988
655.64411	0.11574
651.78738	0.12547
647.93065	0.12423
644.07392	0.11838
640.21719	0.11981
636.36046	0.12324
632.50373	0.11684
628.64700	0.10775
624.79027	0.11130
620.93354	0.12492
617.07681	0.13274
613.22008	0.13069
609.36335	0.12757
605.50662	0.13466
601.64989	0.15115
597.79316	0.16450
