3995.57236	0.14498
3991.71563	0.14641
3987.85890	0.14868
3984.00217	0.15012
3980.14544	0.15178
3976.28871	0.15458
3972.43198	0.15515
3968.57525	0.15398
3964.71852	0.15566
3960.86179	0.15799
3957.00506	0.15734
3953.14833	0.15631
3949.29160	0.15713
3945.43487	0.15740
3941.57814	0.15639
3937.72141	0.15733
3933.86468	0.15963
3930.00795	0.15977
3926.15122	0.15935
3922.29449	0.16178
3918.43776	0.16684
3914.58103	0.17167
3910.72430	0.17466
3906.86757	0.17656
3903.01084	0.17655
3899.15411	0.17417
3895.29737	0.17286
3891.44064	0.17373
3887.58391	0.17520
3883.72718	0.17589
3879.87045	0.17653
3876.01372	0.17773
3872.15699	0.17706
3868.30026	0.17315
3864.44353	0.17098
3860.58680	0.17362
3856.73007	0.17824
3852.87334	0.18192
3849.01661	0.18165
3845.15988	0.18049
3841.30315	0.18368
3837.44642	0.18828
3833.58969	0.18727
3829.73296	0.18419
3825.87623	0.18467
3822.01950	0.18776
3818.16277	0.18881
3814.30604	0.18671
3810.44931	0.18296
3806.59258	0.17784
3802.73585	0.17452
3798.87912	0.17551
3795.02239	0.17701
3791.16566	0.17797
3787.30893	0.18156
3783.45220	0.18729
3779.59547	0.18953
3775.73874	0.18594
3771.88201	0.17992
3768.02528	0.17416
3764.16855	0.17159
3760.31182	0.17357
3756.45509	0.17568
3752.59836	0.17343
3748.74163	0.16905
3744.88490	0.16736
3741.02817	0.16790
3737.17144	0.16900
3733.31471	0.16868
3729.45798	0.16480
3725.60125	0.15976
3721.74452	0.15701
3717.88779	0.15587
3714.03106	0.15357
3710.17433	0.15075
3706.31760	0.14907
3702.46087	0.14680
3698.60414	0.14148
3694.74741	0.13269
3690.89068	0.12445
3687.03395	0.12084
3683.17722	0.11893
3679.32049	0.11580
3675.46376	0.11246
3671.60703	0.10874
3667.75030	0.10254
3663.89357	0.09504
3660.03684	0.08991
3656.18011	0.09011
3652.32338	0.09228
3648.46665	0.09173
3644.60992	0.09110
3640.75319	0.09153
3636.89646	0.09123
3633.03973	0.08969
3629.18300	0.08804
3625.32627	0.08679
3621.46954	0.08445
3617.61281	0.08236
3613.75608	0.08339
3609.89935	0.08426
3606.04262	0.08323
3602.18589	0.08239
3598.32916	0.08060
3594.47243	0.07839
3590.61570	0.07948
3586.75897	0.08174
3582.90224	0.08124
3579.04551	0.07959
3575.18878	0.07964
3571.33205	0.07895
3567.47532	0.07434
3563.61859	0.07267
3559.76186	0.07646
3555.90513	0.07970
3552.04840	0.08314
3548.19167	0.08898
3544.33494	0.09219
3540.47821	0.09013
3536.62148	0.08744
3532.76475	0.08592
3528.90802	0.08476
3525.05129	0.08382
3521.19456	0.08320
3517.33783	0.08222
3513.48110	0.07997
3509.62437	0.07728
3505.76764	0.07605
3501.91091	0.07829
3498.05418	0.08170
3494.19745	0.08127
3490.34072	0.08069
3486.48399	0.08394
3482.62726	0.08563
3478.77053	0.08243
3474.91380	0.07810
3471.05707	0.07744
3467.20034	0.08030
3463.34361	0.08235
3459.48688	0.08264
3455.63015	0.08151
3451.77342	0.07908
3447.91669	0.07869
3444.05996	0.08108
3440.20323	0.08445
3436.34650	0.08922
3432.48977	0.09287
3428.63304	0.09224
3424.77631	0.08913
3420.91958	0.08501
3417.06285	0.08104
3413.20612	0.08033
3409.34939	0.08288
3405.49266	0.08412
3401.63593	0.08257
3397.77920	0.08106
3393.92247	0.08194
3390.06574	0.08311
3386.20901	0.08272
3382.35228	0.08227
3378.49555	0.08280
3374.63881	0.08399
3370.78208	0.08402
3366.92535	0.08335
3363.06862	0.08401
3359.21189	0.08512
3355.35516	0.08553
3351.49843	0.08558
3347.64170	0.08598
3343.78497	0.08672
3339.92824	0.08466
3336.07151	0.07978
3332.21478	0.07731
3328.35805	0.07690
3324.50132	0.07495
3320.64459	0.07497
3316.78786	0.07847
3312.93113	0.08234
3309.07440	0.08554
3305.21767	0.08760
3301.36094	0.08850
3297.50421	0.08883
3293.64748	0.08808
3289.79075	0.08633
3285.93402	0.08540
3282.07729	0.08678
3278.22056	0.08740
3274.36383	0.08486
3270.50710	0.08233
3266.65037	0.08297
3262.79364	0.08625
3258.93691	0.08787
3255.08018	0.08726
3251.22345	0.08940
3247.36672	0.09446
3243.50999	0.09767
3239.65326	0.09704
3235.79653	0.09480
3231.93980	0.09141
3228.08307	0.08598
3224.22634	0.08151
3220.36961	0.08225
3216.51288	0.08522
3212.65615	0.08530
3208.79942	0.08473
3204.94269	0.08637
3201.08596	0.08599
3197.22923	0.08160
3193.37250	0.08064
3189.51577	0.08831
3185.65904	0.09821
3181.80231	0.10084
3177.94558	0.09788
3174.08885	0.09318
3170.23212	0.08688
3166.37539	0.08282
3162.51866	0.08327
3158.66193	0.08498
3154.80520	0.08613
3150.94847	0.08750
3147.09174	0.09012
3143.23501	0.09299
3139.37828	0.09288
3135.52155	0.09056
3131.66482	0.08869
3127.80809	0.08716
3123.95136	0.08678
3120.09463	0.08875
3116.23790	0.09118
3112.38117	0.09246
3108.52444	0.09323
3104.66771	0.09347
3100.81098	0.09212
3096.95425	0.08983
3093.09752	0.08910
3089.24079	0.09016
3085.38406	0.09059
3081.52733	0.08938
3077.67060	0.08819
3073.81387	0.08826
3069.95714	0.08858
3066.10041	0.08891
3062.24368	0.09025
3058.38695	0.09210
3054.53022	0.09158
3050.67349	0.08836
3046.81676	0.08629
3042.96003	0.08732
3039.10330	0.08880
3035.24657	0.08870
3031.38984	0.08822
3027.53311	0.08800
3023.67638	0.08868
3019.81965	0.08955
3015.96292	0.08915
3012.10619	0.08910
3008.24946	0.09096
3004.39273	0.09280
3000.53600	0.09230
2996.67927	0.09120
2992.82254	0.09117
2988.96581	0.08971
2985.10908	0.08696
2981.25235	0.08741
2977.39562	0.09189
2973.53889	0.09493
2969.68216	0.09514
2965.82543	0.09605
2961.96870	0.09536
2958.11197	0.09113
2954.25524	0.08901
2950.39851	0.09085
2946.54178	0.09221
2942.68505	0.09289
2938.82832	0.09509
2934.97159	0.09703
2931.11486	0.09799
2927.25813	0.09974
2923.40140	0.10062
2919.54467	0.09881
2915.68794	0.09547
2911.83121	0.09278
2907.97448	0.09030
2904.11775	0.08714
2900.26102	0.08575
2896.40429	0.08655
2892.54756	0.08708
2888.69083	0.08942
2884.83410	0.09439
2880.97737	0.09576
2877.12064	0.09112
2873.26391	0.08538
2869.40718	0.08351
2865.55045	0.08609
2861.69372	0.08939
2857.83698	0.09080
2853.98025	0.09206
2850.12352	0.09412
2846.26679	0.09401
2842.41006	0.09202
2838.55333	0.09069
2834.69660	0.08995
2830.83987	0.09082
2826.98314	0.09354
2823.12641	0.09543
2819.26968	0.09566
2815.41295	0.09559
2811.55622	0.09547
2807.69949	0.09602
2803.84276	0.09743
2799.98603	0.09676
2796.12930	0.09323
2792.27257	0.09050
2788.41584	0.09056
2784.55911	0.09228
2780.70238	0.09237
2776.84565	0.09042
2772.98892	0.09020
2769.13219	0.09162
2765.27546	0.09321
2761.41873	0.09602
2757.56200	0.09856
2753.70527	0.09861
2749.84854	0.09633
2745.99181	0.09395
2742.13508	0.09352
2738.27835	0.09444
2734.42162	0.09575
2730.56489	0.09692
2726.70816	0.09788
2722.85143	0.10005
2718.99470	0.10215
2715.13797	0.10080
2711.28124	0.09685
2707.42451	0.09330
2703.56778	0.09231
2699.71105	0.09378
2695.85432	0.09489
2691.99759	0.09483
2688.14086	0.09478
2684.28413	0.09508
2680.42740	0.09703
2676.57067	0.10068
2672.71394	0.10244
2668.85721	0.10026
2665.00048	0.09736
2661.14375	0.09754
2657.28702	0.09948
2653.43029	0.09958
2649.57356	0.09748
2645.71683	0.09685
2641.86010	0.09921
2638.00337	0.10087
2634.14664	0.10006
2630.28991	0.09947
2626.43318	0.09999
2622.57645	0.09984
2618.71972	0.09818
2614.86299	0.09619
2611.00626	0.09458
2607.14953	0.09351
2603.29280	0.09428
2599.43607	0.09662
2595.57934	0.09874
2591.72261	0.10012
2587.86588	0.10014
2584.00915	0.09837
2580.15242	0.09641
2576.29569	0.09565
2572.43896	0.09602
2568.58223	0.09722
2564.72550	0.09916
2560.86877	0.10040
2557.01204	0.09951
2553.15531	0.09885
2549.29858	0.10048
2545.44185	0.10156
2541.58512	0.10058
2537.72839	0.09956
2533.87166	0.09901
2530.01493	0.09814
2526.15820	0.09745
2522.30147	0.09849
2518.44474	0.10028
2514.58801	0.09929
2510.73128	0.09734
2506.87455	0.09841
2503.01782	0.10096
2499.16109	0.10202
2495.30436	0.10107
2491.44763	0.09928
2487.59090	0.09846
2483.73417	0.09927
2479.87744	0.10108
2476.02071	0.10280
2472.16398	0.10297
2468.30725	0.10126
2464.45052	0.09953
2460.59379	0.09950
2456.73706	0.10122
2452.88033	0.10395
2449.02360	0.10605
2445.16687	0.10557
2441.31014	0.10337
2437.45341	0.10220
2433.59668	0.10243
2429.73995	0.10256
2425.88322	0.10299
2422.02649	0.10474
2418.16976	0.10527
2414.31303	0.10321
2410.45630	0.10326
2406.59957	0.10714
2402.74284	0.10977
2398.88611	0.10868
2395.02938	0.10665
2391.17265	0.10585
2387.31592	0.10597
2383.45919	0.10615
2379.60246	0.10537
2375.74573	0.10275
2371.88900	0.10048
2368.03227	0.10255
2364.17554	0.10669
2360.31881	0.10493
2356.46208	0.10098
2352.60535	0.10077
2348.74862	0.10023
2344.89189	0.09774
2341.03516	0.09747
2337.17842	0.10126
2333.32169	0.10226
2329.46496	0.09986
2325.60823	0.09985
2321.75150	0.10346
2317.89477	0.10629
2314.03804	0.10512
2310.18131	0.10368
2306.32458	0.10608
2302.46785	0.10974
2298.61112	0.11092
2294.75439	0.10984
2290.89766	0.10794
2287.04093	0.10646
2283.18420	0.10650
2279.32747	0.10745
2275.47074	0.10809
2271.61401	0.10834
2267.75728	0.10834
2263.90055	0.10775
2260.04382	0.10683
2256.18709	0.10678
2252.33036	0.10807
2248.47363	0.10979
2244.61690	0.11057
2240.76017	0.11011
2236.90344	0.10936
2233.04671	0.10895
2229.18998	0.10907
2225.33325	0.10953
2221.47652	0.10930
2217.61979	0.10777
2213.76306	0.10647
2209.90633	0.10683
2206.04960	0.10700
2202.19287	0.10540
2198.33614	0.10357
2194.47941	0.10300
2190.62268	0.10393
2186.76595	0.10525
2182.90922	0.10556
2179.05249	0.10535
2175.19576	0.10515
2171.33903	0.10471
2167.48230	0.10445
2163.62557	0.10463
2159.76884	0.10418
2155.91211	0.10299
2152.05538	0.10274
2148.19865	0.10396
2144.34192	0.10565
2140.48519	0.10656
2136.62846	0.10640
2132.77173	0.10624
2128.91500	0.10629
2125.05827	0.10605
2121.20154	0.10561
2117.34481	0.10490
2113.48808	0.10411
2109.63135	0.10330
2105.77462	0.10282
2101.91789	0.10353
2098.06116	0.10466
2094.20443	0.10465
2090.34770	0.10413
2086.49097	0.10473
2082.63424	0.10614
2078.77751	0.10655
2074.92078	0.10562
2071.06405	0.10450
2067.20732	0.10370
2063.35059	0.10296
2059.49386	0.10227
2055.63713	0.10214
2051.78040	0.10282
2047.92367	0.10357
2044.06694	0.10420
2040.21021	0.10530
2036.35348	0.10640
2032.49675	0.10696
2028.64002	0.10730
2024.78329	0.10738
2020.92656	0.10769
2017.06983	0.10855
2013.21310	0.10840
2009.35637	0.10701
2005.49964	0.10616
2001.64291	0.10562
1997.78618	0.10384
1993.92945	0.10222
1990.07272	0.10299
1986.21599	0.10487
1982.35926	0.10608
1978.50253	0.10693
1974.64580	0.10700
1970.78907	0.10534
1966.93234	0.10319
1963.07561	0.10229
1959.21888	0.10267
1955.36215	0.10352
1951.50542	0.10468
1947.64869	0.10621
1943.79196	0.10742
1939.93523	0.10787
1936.07850	0.10785
1932.22177	0.10771
1928.36504	0.10817
1924.50831	0.10891
1920.65158	0.10846
1916.79485	0.10757
1912.93812	0.10768
1909.08139	0.10771
1905.22466	0.10690
1901.36793	0.10632
1897.51120	0.10655
1893.65447	0.10691
1889.79774	0.10674
1885.94101	0.10606
1882.08428	0.10521
1878.22755	0.10438
1874.37082	0.10353
1870.51409	0.10278
1866.65736	0.10251
1862.80063	0.10222
1858.94390	0.10082
1855.08717	0.10010
1851.23044	0.10210
1847.37371	0.10358
1843.51698	0.10167
1839.66025	0.09909
1835.80352	0.09753
1831.94679	0.09699
1828.09006	0.09788
1824.23333	0.09843
1820.37660	0.09759
1816.51986	0.09658
1812.66313	0.09507
1808.80640	0.09192
1804.94967	0.08845
1801.09294	0.08680
1797.23621	0.08669
1793.37948	0.08519
1789.52275	0.08140
1785.66602	0.07842
1781.80929	0.07795
1777.95256	0.07934
1774.09583	0.08091
1770.23910	0.08008
1766.38237	0.07724
1762.52564	0.07478
1758.66891	0.07382
1754.81218	0.07486
1750.95545	0.07706
1747.09872	0.07817
1743.24199	0.07754
1739.38526	0.07730
1735.52853	0.07814
1731.67180	0.07828
1727.81507	0.07572
1723.95834	0.07286
1720.10161	0.07096
1716.24488	0.06975
1712.38815	0.07106
1708.53142	0.07465
1704.67469	0.07710
1700.81796	0.07561
1696.96123	0.07230
1693.10450	0.07073
1689.24777	0.06996
1685.39104	0.06936
1681.53431	0.06954
1677.67758	0.07103
1673.82085	0.07330
1669.96412	0.07413
1666.10739	0.07328
1662.25066	0.07384
1658.39393	0.07749
1654.53720	0.08094
1650.68047	0.08067
1646.82374	0.08066
1642.96701	0.08262
1639.11028	0.08489
1635.25355	0.08875
1631.39682	0.09340
1627.54009	0.09548
1623.68336	0.09579
1619.82663	0.09610
1615.96990	0.09561
1612.11317	0.09381
1608.25644	0.09190
1604.39971	0.09043
1600.54298	0.08976
1596.68625	0.09002
1592.82952	0.09071
1588.97279	0.09115
1585.11606	0.09117
1581.25933	0.09122
1577.40260	0.09041
1573.54587	0.08822
1569.68914	0.08737
1565.83241	0.08880
1561.97568	0.09028
1558.11895	0.09137
1554.26222	0.09281
1550.40549	0.09350
1546.54876	0.09405
1542.69203	0.09536
1538.83530	0.09793
1534.97857	0.10102
1531.12184	0.10195
1527.26511	0.10094
1523.40838	0.10137
1519.55165	0.10356
1515.69492	0.10421
1511.83819	0.10359
1507.98146	0.10349
1504.12473	0.10247
1500.26800	0.09945
1496.41127	0.09737
1492.55454	0.09777
1488.69781	0.09818
1484.84108	0.09732
1480.98435	0.09718
1477.12762	0.09814
1473.27089	0.09734
1469.41416	0.09414
1465.55743	0.09289
1461.70070	0.09432
1457.84397	0.09612
1453.98724	0.09740
1450.13051	0.09814
1446.27378	0.09829
1442.41705	0.09886
1438.56032	0.10056
1434.70359	0.10097
1430.84686	0.09817
1426.99013	0.09553
1423.13340	0.09492
1419.27667	0.09479
1415.41994	0.09408
1411.56321	0.09264
1407.70648	0.09147
1403.84975	0.09298
1399.99302	0.09584
1396.13629	0.09646
1392.27956	0.09515
1388.42283	0.09364
1384.56610	0.09148
1380.70937	0.08946
1376.85264	0.08897
1372.99591	0.08824
1369.13918	0.08547
1365.28245	0.08358
1361.42572	0.08641
1357.56899	0.09149
1353.71226	0.09366
1349.85553	0.09206
1345.99880	0.08945
1342.14207	0.08895
1338.28534	0.09132
1334.42861	0.09367
1330.57188	0.09422
1326.71515	0.09509
1322.85842	0.09645
1319.00169	0.09575
1315.14496	0.09364
1311.28823	0.09355
1307.43150	0.09512
1303.57477	0.09400
1299.71804	0.08997
1295.86130	0.08688
1292.00457	0.08730
1288.14784	0.08925
1284.29111	0.08948
1280.43438	0.08959
1276.57765	0.09112
1272.72092	0.09178
1268.86419	0.09240
1265.00746	0.09631
1261.15073	0.09888
1257.29400	0.09585
1253.43727	0.09328
1249.58054	0.09433
1245.72381	0.09300
1241.86708	0.08761
1238.01035	0.08563
1234.15362	0.09124
1230.29689	0.09504
1226.44016	0.09016
1222.58343	0.08421
1218.72670	0.08268
1214.86997	0.08322
1211.01324	0.08670
1207.15651	0.09301
1203.29978	0.09769
1199.44305	0.09772
1195.58632	0.09294
1191.72959	0.08735
1187.87286	0.08724
1184.01613	0.08905
1180.15940	0.08951
1176.30267	0.09599
1172.44594	0.10625
1168.58921	0.11023
1164.73248	0.11070
1160.87575	0.11048
1157.01902	0.10798
1153.16229	0.10548
1149.30556	0.09949
1145.44883	0.08976
1141.59210	0.08790
1137.73537	0.09360
1133.87864	0.09398
1130.02191	0.09193
1126.16518	0.09470
1122.30845	0.09727
1118.45172	0.09784
1114.59499	0.10016
1110.73826	0.10405
1106.88153	0.10796
1103.02480	0.10987
1099.16807	0.10186
1095.31134	0.08635
1091.45461	0.07910
1087.59788	0.08035
1083.74115	0.08987
1079.88442	0.09884
1076.02769	0.10149
1072.17096	0.09899
1068.31423	0.09683
1064.45750	0.09281
1060.60077	0.08546
1056.74404	0.07993
1052.88731	0.07863
1049.03058	0.08044
1045.17385	0.08480
1041.31712	0.09079
1037.46039	0.09403
1033.60366	0.09289
1029.74693	0.09404
1025.89020	0.09952
1022.03347	0.09997
1018.17674	0.09466
1014.32001	0.09298
1010.46328	0.09456
1006.60655	0.09212
1002.74982	0.08907
998.89309	0.09150
995.03636	0.09511
991.17963	0.09307
987.32290	0.08923
983.46617	0.09102
979.60944	0.09686
975.75271	0.10101
971.89598	0.10038
968.03925	0.09510
964.18252	0.09003
960.32579	0.08708
956.46906	0.08463
952.61233	0.08276
948.75560	0.08116
944.89887	0.08106
941.04214	0.08370
937.18541	0.08436
933.32868	0.08271
929.47195	0.08498
925.61522	0.08882
921.75849	0.08523
917.90176	0.07909
914.04503	0.08208
910.18830	0.09350
906.33157	0.10449
902.47484	0.10540
898.61811	0.09572
894.76138	0.08759
890.90465	0.08772
887.04792	0.08947
883.19119	0.08965
879.33446	0.08975
875.47773	0.08921
871.62100	0.08696
867.76427	0.08349
863.90754	0.08115
860.05081	0.08142
856.19408	0.08304
852.33735	0.08419
848.48062	0.08483
844.62389	0.08501
840.76716	0.08609
836.91043	0.08909
833.05370	0.09028
829.19697	0.09057
825.34024	0.09130
821.48351	0.08660
817.62678	0.07887
813.77005	0.07764
809.91332	0.08031
806.05659	0.07821
802.19986	0.07596
798.34313	0.08253
794.48640	0.09035
790.62967	0.08835
786.77294	0.08348
782.91621	0.08354
779.05947	0.08337
775.20274	0.08344
771.34601	0.08546
767.48928	0.08541
763.63255	0.08513
759.77582	0.08560
755.91909	0.08660
752.06236	0.09249
748.20563	0.09956
744.34890	0.10054
740.49217	0.09835
736.63544	0.09796
732.77871	0.09867
728.92198	0.09939
725.06525	0.09830
721.20852	0.09363
717.35179	0.08927
713.49506	0.09110
709.63833	0.09498
705.78160	0.09451
701.92487	0.09260
698.06814	0.09126
694.21141	0.08381
690.35468	0.07276
686.49795	0.07020
682.64122	0.07919
678.78449	0.08782
674.92776	0.08604
671.07103	0.08259
667.21430	0.09215
663.35757	0.10746
659.50084	0.11437
655.64411	0.11071
651.78738	0.10275
647.93065	0.09699
644.07392	0.09318
640.21719	0.09225
636.36046	0.09466
632.50373	0.09600
628.64700	0.09794
624.79027	0.10194
620.93354	0.10246
617.07681	0.10321
613.22008	0.10909
609.36335	0.11452
605.50662	0.11311
601.64989	0.11456
597.79316	0.12675
