3997.51769	0.66631
3995.58931	0.66699
3993.66094	0.66728
3991.73257	0.66726
3989.80419	0.66716
3987.87582	0.66740
3985.94745	0.66795
3984.01907	0.66815
3982.09070	0.66802
3980.16233	0.66797
3978.23396	0.66802
3976.30558	0.66844
3974.37721	0.66901
3972.44884	0.66920
3970.52046	0.66938
3968.59209	0.66968
3966.66372	0.66990
3964.73534	0.67034
3962.80697	0.67128
3960.87860	0.67225
3958.95022	0.67269
3957.02185	0.67292
3955.09348	0.67351
3953.16510	0.67454
3951.23673	0.67597
3949.30836	0.67717
3947.37998	0.67748
3945.45161	0.67767
3943.52324	0.67818
3941.59486	0.67786
3939.66649	0.67702
3937.73812	0.67719
3935.80974	0.67853
3933.88137	0.68072
3931.95300	0.68292
3930.02462	0.68354
3928.09625	0.68315
3926.16788	0.68377
3924.23950	0.68497
3922.31113	0.68542
3920.38276	0.68617
3918.45439	0.68765
3916.52601	0.68830
3914.59764	0.68780
3912.66927	0.68743
3910.74089	0.68804
3908.81252	0.68979
3906.88415	0.69304
3904.95577	0.69751
3903.02740	0.70074
3901.09903	0.70103
3899.17065	0.69898
3897.24228	0.69637
3895.31391	0.69603
3893.38553	0.69864
3891.45716	0.70108
3889.52879	0.70096
3887.60041	0.70140
3885.67204	0.70320
3883.74367	0.70450
3881.81529	0.70640
3879.88692	0.70755
3877.95855	0.70597
3876.03017	0.70525
3874.10180	0.70689
3872.17343	0.71005
3870.24505	0.71320
3868.31668	0.71349
3866.38831	0.71359
3864.45994	0.71597
3862.53156	0.71631
3860.60319	0.71388
3858.67482	0.71295
3856.74644	0.71524
3854.81807	0.72128
3852.88970	0.72611
3850.96132	0.72170
3849.03295	0.71567
3847.10458	0.71294
3845.17620	0.71384
3843.24783	0.71710
3841.31946	0.72083
3839.39108	0.72351
3837.46271	0.72362
3835.53434	0.72170
3833.60596	0.71972
3831.67759	0.71778
3829.74922	0.71639
3827.82084	0.71686
3825.89247	0.71842
3823.96410	0.72067
3822.03572	0.72472
3820.10735	0.72664
3818.17898	0.72469
3816.25060	0.72218
3814.32223	0.71839
3812.39386	0.71510
3810.46548	0.71476
3808.53711	0.71723
3806.60874	0.71989
3804.68037	0.72096
3802.75199	0.72274
3800.82362	0.72321
3798.89525	0.72047
3796.96687	0.71790
3795.03850	0.71513
3793.11013	0.71220
3791.18175	0.71060
3789.25338	0.71018
3787.32501	0.71058
3785.39663	0.71105
3783.46826	0.71074
3781.53989	0.71063
3779.61151	0.71076
3777.68314	0.70907
3775.75477	0.70669
3773.82639	0.70611
3771.89802	0.70753
3769.96965	0.70916
3768.04127	0.70868
3766.11290	0.70684
3764.18453	0.70515
3762.25615	0.70484
3760.32778	0.70619
3758.39941	0.70651
3756.47103	0.70519
3754.54266	0.70576
3752.61429	0.70977
3750.68591	0.71279
3748.75754	0.71060
3746.82917	0.70866
3744.90080	0.70727
3742.97242	0.70307
3741.04405	0.69939
3739.11568	0.69918
3737.18730	0.70233
3735.25893	0.70525
3733.33056	0.70173
3731.40218	0.69399
3729.47381	0.68862
3727.54544	0.68662
3725.61706	0.68531
3723.68869	0.68239
3721.76032	0.67838
3719.83194	0.67397
3717.90357	0.66949
3715.97520	0.66669
3714.04682	0.66687
3712.11845	0.66824
3710.19008	0.66445
3708.26170	0.65593
3706.33333	0.64908
3704.40496	0.64528
3702.47658	0.64228
3700.54821	0.63693
3698.61984	0.63020
3696.69146	0.62381
3694.76309	0.61811
3692.83472	0.61404
3690.90635	0.61029
3688.97797	0.60154
3687.04960	0.58697
3685.12123	0.57324
3683.19285	0.56201
3681.26448	0.55200
3679.33611	0.54287
3677.40773	0.53411
3675.47936	0.52041
3673.55099	0.50273
3671.62261	0.48835
3669.69424	0.47084
3667.76587	0.44968
3665.83749	0.43183
3663.90912	0.41558
3661.98075	0.39917
3660.05237	0.38342
3658.12400	0.36838
3656.19563	0.35120
3654.26725	0.33430
3652.33888	0.32126
3650.41051	0.30720
3648.48213	0.28711
3646.55376	0.26664
3644.62539	0.25008
3642.69701	0.23526
3640.76864	0.22098
3638.84027	0.20731
3636.91189	0.19408
3634.98352	0.18141
3633.05515	0.17008
3631.12678	0.16046
3629.19840	0.14936
3627.27003	0.13650
3625.34166	0.12636
3623.41328	0.11798
3621.48491	0.11025
3619.55654	0.10188
3617.62816	0.09276
3615.69979	0.08498
3613.77142	0.07827
3611.84304	0.07173
3609.91467	0.06560
3607.98630	0.06000
3606.05792	0.05499
3604.12955	0.05074
3602.20118	0.04688
3600.27280	0.04299
3598.34443	0.03885
3596.41606	0.03493
3594.48768	0.03174
3592.55931	0.02906
3590.63094	0.02674
3588.70256	0.02439
3586.77419	0.02194
3584.84582	0.01971
3582.91744	0.01761
3580.98907	0.01585
3579.06070	0.01450
3577.13233	0.01337
3575.20395	0.01220
3573.27558	0.01091
3571.34721	0.00952
3569.41883	0.00820
3567.49046	0.00717
3565.56209	0.00650
3563.63371	0.00619
3561.70534	0.00569
3559.77697	0.00470
3557.84859	0.00349
3555.92022	0.00255
3553.99185	0.00218
3552.06347	0.00246
3550.13510	0.00298
3548.20673	0.00283
3546.27835	0.00222
3544.34998	0.00141
3542.42161	0.00088
3540.49323	0.00094
3538.56486	0.00091
3536.63649	0.00062
3534.70811	0.00069
3532.77974	0.00098
3530.85137	0.00104
3528.92299	0.00109
3526.99462	0.00118
3525.06625	0.00117
3523.13787	0.00100
3521.20950	0.00088
3519.28113	0.00123
3517.35276	0.00138
3515.42438	0.00146
3513.49601	0.00105
3511.56764	0.00092
3509.63926	0.00134
3507.71089	0.00140
3505.78252	0.00102
3503.85414	0.00064
3501.92577	0.00078
3499.99740	0.00052
3498.06902	0.00054
3496.14065	0.00075
3494.21228	0.00098
3492.28390	0.00089
3490.35553	0.00076
3488.42716	0.00101
3486.49878	0.00127
3484.57041	0.00117
3482.64204	0.00141
3480.71366	0.00161
3478.78529	0.00139
3476.85692	0.00113
3474.92854	0.00056
3473.00017	0.00077
3471.07180	0.00085
3469.14342	0.00070
3467.21505	0.00067
3465.28668	0.00086
3463.35831	0.00084
3461.42993	0.00092
3459.50156	0.00147
3457.57319	0.00157
3455.64481	0.00113
3453.71644	0.00087
3451.78807	0.00073
3449.85969	0.00048
3447.93132	0.00042
3446.00295	0.00037
3444.07457	0.00052
3442.14620	0.00089
3440.21783	0.00103
3438.28945	0.00043
3436.36108	0.00061
3434.43271	0.00062
3432.50433	0.00076
3430.57596	0.00105
3428.64759	0.00127
3426.71921	0.00106
3424.79084	0.00080
3422.86247	0.00084
3420.93409	0.00082
3419.00572	0.00104
3417.07735	0.00091
3415.14897	0.00091
3413.22060	0.00082
3411.29223	0.00117
3409.36385	0.00155
3407.43548	0.00108
3405.50711	0.00099
3403.57874	0.00146
3401.65036	0.00164
3399.72199	0.00148
3397.79362	0.00111
3395.86524	0.00073
3393.93687	0.00048
3392.00850	0.00051
3390.08012	0.00078
3388.15175	0.00095
3386.22338	0.00072
3384.29500	0.00082
3382.36663	0.00080
3380.43826	0.00018
3378.50988	0.00036
3376.58151	0.00055
3374.65314	0.00086
3372.72476	0.00095
3370.79639	0.00086
3368.86802	0.00076
3366.93964	0.00091
3365.01127	0.00132
3363.08290	0.00107
3361.15452	0.00055
3359.22615	0.00070
3357.29778	0.00116
3355.36940	0.00135
3353.44103	0.00082
3351.51266	0.00066
3349.58428	0.00101
3347.65591	0.00097
3345.72754	0.00106
3343.79917	0.00095
3341.87079	0.00044
3339.94242	0.00096
3338.01405	0.00104
3336.08567	0.00132
3334.15730	0.00155
3332.22893	0.00119
3330.30055	0.00091
3328.37218	0.00082
3326.44381	0.00082
3324.51543	0.00098
3322.58706	0.00106
3320.65869	0.00124
3318.73031	0.00109
3316.80194	0.00065
3314.87357	0.00079
3312.94519	0.00097
3311.01682	0.00105
3309.08845	0.00143
3307.16007	0.00121
3305.23170	0.00089
3303.30333	0.00094
3301.37495	0.00095
3299.44658	0.00058
3297.51821	0.00066
3295.58983	0.00097
3293.66146	0.00091
3291.73309	0.00047
3289.80472	0.00022
3287.87634	0.00053
3285.94797	0.00096
3284.01960	0.00094
3282.09122	0.00081
3280.16285	0.00090
3278.23448	0.00088
3276.30610	0.00129
3274.37773	0.00146
3272.44936	0.00101
3270.52098	0.00040
3268.59261	0.00047
3266.66424	0.00048
3264.73586	0.00055
3262.80749	0.00086
3260.87912	0.00088
3258.95074	0.00072
3257.02237	0.00067
3255.09400	0.00059
3253.16562	0.00047
3251.23725	0.00068
3249.30888	0.00100
3247.38050	0.00110
3245.45213	0.00092
3243.52376	0.00085
3241.59538	0.00088
3239.66701	0.00079
3237.73864	0.00062
3235.81026	0.00087
3233.88189	0.00070
3231.95352	0.00043
3230.02515	0.00034
3228.09677	0.00057
3226.16840	0.00073
3224.24003	0.00066
3222.31165	0.00141
3220.38328	0.00160
3218.45491	0.00125
3216.52653	0.00091
3214.59816	0.00078
3212.66979	0.00061
3210.74141	0.00040
3208.81304	0.00069
3206.88467	0.00099
3204.95629	0.00092
3203.02792	0.00089
3201.09955	0.00134
3199.17117	0.00124
3197.24280	0.00088
3195.31443	0.00070
3193.38605	0.00084
3191.45768	0.00134
3189.52931	0.00143
3187.60093	0.00108
3185.67256	0.00076
3183.74419	0.00058
3181.81581	0.00070
3179.88744	0.00093
3177.95907	0.00073
3176.03070	0.00072
3174.10232	0.00099
3172.17395	0.00115
3170.24558	0.00079
3168.31720	0.00079
3166.38883	0.00107
3164.46046	0.00141
3162.53208	0.00143
3160.60371	0.00114
3158.67534	0.00087
3156.74696	0.00082
3154.81859	0.00109
3152.89022	0.00124
3150.96184	0.00119
3149.03347	0.00112
3147.10510	0.00088
3145.17672	0.00077
3143.24835	0.00118
3141.31998	0.00124
3139.39160	0.00097
3137.46323	0.00050
3135.53486	0.00020
3133.60648	0.00060
3131.67811	0.00083
3129.74974	0.00093
3127.82136	0.00073
3125.89299	0.00055
3123.96462	0.00083
3122.03624	0.00108
3120.10787	0.00103
3118.17950	0.00090
3116.25113	0.00082
3114.32275	0.00057
3112.39438	0.00048
3110.46601	0.00041
3108.53763	0.00037
3106.60926	0.00046
3104.68089	0.00037
3102.75251	0.00067
3100.82414	0.00107
3098.89577	0.00106
3096.96739	0.00095
3095.03902	0.00071
3093.11065	0.00090
3091.18227	0.00122
3089.25390	0.00113
3087.32553	0.00070
3085.39715	0.00056
3083.46878	0.00074
3081.54041	0.00071
3079.61203	0.00051
3077.68366	0.00079
3075.75529	0.00081
3073.82691	0.00050
3071.89854	0.00066
3069.97017	0.00071
3068.04179	0.00074
3066.11342	0.00059
3064.18505	0.00055
3062.25668	0.00055
3060.32830	0.00098
3058.39993	0.00129
3056.47156	0.00098
3054.54318	0.00046
3052.61481	0.00083
3050.68644	0.00109
3048.75806	0.00107
3046.82969	0.00116
3044.90132	0.00109
3042.97294	0.00081
3041.04457	0.00030
3039.11620	0.00095
3037.18782	0.00139
3035.25945	0.00137
3033.33108	0.00108
3031.40270	0.00052
3029.47433	0.00046
3027.54596	0.00054
3025.61758	0.00025
3023.68921	0.00063
3021.76084	0.00129
3019.83246	0.00140
3017.90409	0.00119
3015.97572	0.00086
3014.04734	0.00036
3012.11897	0.00050
3010.19060	0.00078
3008.26222	0.00080
3006.33385	0.00099
3004.40548	0.00132
3002.47711	0.00103
3000.54873	0.00069
2998.62036	0.00072
2996.69199	0.00076
2994.76361	0.00063
2992.83524	0.00021
2990.90687	0.00084
2988.97849	0.00143
2987.05012	0.00151
2985.12175	0.00160
2983.19337	0.00145
2981.26500	0.00133
2979.33663	0.00139
2977.40825	0.00145
2975.47988	0.00155
2973.55151	0.00163
2971.62313	0.00145
2969.69476	0.00101
2967.76639	0.00116
2965.83801	0.00140
2963.90964	0.00133
2961.98127	0.00146
2960.05289	0.00183
2958.12452	0.00151
2956.19615	0.00093
2954.26777	0.00074
2952.33940	0.00097
2950.41103	0.00090
2948.48266	0.00052
2946.55428	0.00060
2944.62591	0.00095
2942.69754	0.00138
2940.76916	0.00112
2938.84079	0.00110
2936.91242	0.00156
2934.98404	0.00146
2933.05567	0.00147
2931.12730	0.00116
2929.19892	0.00065
2927.27055	0.00076
2925.34218	0.00127
2923.41380	0.00117
2921.48543	0.00109
2919.55706	0.00116
2917.62868	0.00135
2915.70031	0.00126
2913.77194	0.00121
2911.84356	0.00150
2909.91519	0.00113
2907.98682	0.00097
2906.05844	0.00170
2904.13007	0.00181
2902.20170	0.00160
2900.27332	0.00141
2898.34495	0.00111
2896.41658	0.00059
2894.48820	0.00051
2892.55983	0.00061
2890.63146	0.00059
2888.70309	0.00034
2886.77471	0.00033
2884.84634	0.00073
2882.91797	0.00128
2880.98959	0.00158
2879.06122	0.00157
2877.13285	0.00137
2875.20447	0.00080
2873.27610	0.00058
2871.34773	0.00041
2869.41935	0.00031
2867.49098	0.00042
2865.56261	0.00095
2863.63423	0.00108
2861.70586	0.00078
2859.77749	0.00052
2857.84911	0.00065
2855.92074	0.00073
2853.99237	0.00095
2852.06399	0.00099
2850.13562	0.00075
2848.20725	0.00092
2846.27887	0.00114
2844.35050	0.00088
2842.42213	0.00057
2840.49375	0.00086
2838.56538	0.00112
2836.63701	0.00085
2834.70863	0.00056
2832.78026	0.00076
2830.85189	0.00094
2828.92352	0.00083
2826.99514	0.00079
2825.06677	0.00068
2823.13840	0.00042
2821.21002	0.00017
2819.28165	0.00052
2817.35328	0.00076
2815.42490	0.00073
2813.49653	0.00050
2811.56816	0.00023
2809.63978	0.00055
2807.71141	0.00051
2805.78304	0.00044
2803.85466	0.00066
2801.92629	0.00051
2799.99792	0.00100
2798.06954	0.00083
2796.14117	0.00044
2794.21280	0.00040
2792.28442	0.00035
2790.35605	0.00070
2788.42768	0.00082
2786.49930	0.00075
2784.57093	0.00096
2782.64256	0.00105
2780.71418	0.00115
2778.78581	0.00113
2776.85744	0.00097
2774.92907	0.00090
2773.00069	0.00093
2771.07232	0.00096
2769.14395	0.00093
2767.21557	0.00071
2765.28720	0.00044
2763.35883	0.00043
2761.43045	0.00064
2759.50208	0.00090
2757.57371	0.00103
2755.64533	0.00087
2753.71696	0.00059
2751.78859	0.00037
2749.86021	0.00052
2747.93184	0.00066
2746.00347	0.00105
2744.07509	0.00143
2742.14672	0.00134
2740.21835	0.00099
2738.28997	0.00078
2736.36160	0.00094
2734.43323	0.00135
2732.50485	0.00181
2730.57648	0.00206
2728.64811	0.00218
2726.71973	0.00241
2724.79136	0.00246
2722.86299	0.00238
2720.93461	0.00270
2719.00624	0.00314
2717.07787	0.00322
2715.14950	0.00295
2713.22112	0.00277
2711.29275	0.00277
2709.36438	0.00289
2707.43600	0.00316
2705.50763	0.00336
2703.57926	0.00329
2701.65088	0.00302
2699.72251	0.00280
2697.79414	0.00288
2695.86576	0.00311
2693.93739	0.00329
2692.00902	0.00336
2690.08064	0.00336
2688.15227	0.00340
2686.22390	0.00351
2684.29552	0.00366
2682.36715	0.00365
2680.43878	0.00346
2678.51040	0.00340
2676.58203	0.00354
2674.65366	0.00379
2672.72528	0.00421
2670.79691	0.00469
2668.86854	0.00496
2666.94016	0.00493
2665.01179	0.00480
2663.08342	0.00479
2661.15505	0.00495
2659.22667	0.00520
2657.29830	0.00536
2655.36993	0.00555
2653.44155	0.00589
2651.51318	0.00607
2649.58481	0.00613
2647.65643	0.00638
2645.72806	0.00676
2643.79969	0.00693
2641.87131	0.00691
2639.94294	0.00697
2638.01457	0.00715
2636.08619	0.00737
2634.15782	0.00776
2632.22945	0.00831
2630.30107	0.00876
2628.37270	0.00908
2626.44433	0.00947
2624.51595	0.01005
2622.58758	0.01054
2620.65921	0.01084
2618.73083	0.01121
2616.80246	0.01161
2614.87409	0.01192
2612.94571	0.01240
2611.01734	0.01320
2609.08897	0.01387
2607.16059	0.01417
2605.23222	0.01439
2603.30385	0.01497
2601.37548	0.01589
2599.44710	0.01681
2597.51873	0.01743
2595.59036	0.01779
2593.66198	0.01803
2591.73361	0.01827
2589.80524	0.01860
2587.87686	0.01915
2585.94849	0.01989
2584.02012	0.02061
2582.09174	0.02120
2580.16337	0.02188
2578.23500	0.02274
2576.30662	0.02354
2574.37825	0.02408
2572.44988	0.02452
2570.52150	0.02511
2568.59313	0.02592
2566.66476	0.02671
2564.73638	0.02724
2562.80801	0.02771
2560.87964	0.02841
2558.95126	0.02918
2557.02289	0.02990
2555.09452	0.03059
2553.16614	0.03123
2551.23777	0.03180
2549.30940	0.03229
2547.38103	0.03279
2545.45265	0.03352
2543.52428	0.03447
2541.59591	0.03536
2539.66753	0.03608
2537.73916	0.03674
2535.81079	0.03739
2533.88241	0.03796
2531.95404	0.03847
2530.02567	0.03902
2528.09729	0.03981
2526.16892	0.04096
2524.24055	0.04211
2522.31217	0.04277
2520.38380	0.04322
2518.45543	0.04404
2516.52705	0.04522
2514.59868	0.04625
2512.67031	0.04702
2510.74193	0.04780
2508.81356	0.04844
2506.88519	0.04884
2504.95681	0.04935
2503.02844	0.05004
2501.10007	0.05089
2499.17169	0.05187
2497.24332	0.05254
2495.31495	0.05279
2493.38657	0.05301
2491.45820	0.05343
2489.52983	0.05431
2487.60146	0.05558
2485.67308	0.05659
2483.74471	0.05709
2481.81634	0.05750
2479.88796	0.05816
2477.95959	0.05903
2476.03122	0.05998
2474.10284	0.06102
2472.17447	0.06231
2470.24610	0.06360
2468.31772	0.06470
2466.38935	0.06581
2464.46098	0.06699
2462.53260	0.06826
2460.60423	0.06965
2458.67586	0.07080
2456.74748	0.07166
2454.81911	0.07275
2452.89074	0.07426
2450.96236	0.07591
2449.03399	0.07738
2447.10562	0.07856
2445.17724	0.07965
2443.24887	0.08098
2441.32050	0.08241
2439.39212	0.08359
2437.46375	0.08470
2435.53538	0.08613
2433.60700	0.08783
2431.67863	0.08932
2429.75026	0.09046
2427.82189	0.09166
2425.89351	0.09288
2423.96514	0.09382
2422.03677	0.09494
2420.10839	0.09649
2418.18002	0.09802
2416.25165	0.09941
2414.32327	0.10091
2412.39490	0.10234
2410.46653	0.10360
2408.53815	0.10511
2406.60978	0.10694
2404.68141	0.10864
2402.75303	0.11015
2400.82466	0.11158
2398.89629	0.11300
2396.96791	0.11461
2395.03954	0.11628
2393.11117	0.11788
2391.18279	0.11966
2389.25442	0.12164
2387.32605	0.12350
2385.39767	0.12530
2383.46930	0.12708
2381.54093	0.12871
2379.61255	0.13040
2377.68418	0.13276
2375.75581	0.13575
2373.82744	0.13885
2371.89906	0.14183
2369.97069	0.14472
2368.04232	0.14753
2366.11394	0.14970
2364.18557	0.15112
2362.25720	0.15279
2360.32882	0.15504
2358.40045	0.15701
2356.47208	0.15795
2354.54370	0.15800
2352.61533	0.15764
2350.68696	0.15761
2348.75858	0.15856
2346.83021	0.16063
2344.90184	0.16331
2342.97346	0.16514
2341.04509	0.16582
2339.11672	0.16688
2337.18834	0.16885
2335.25997	0.17046
2333.33160	0.17088
2331.40322	0.17093
2329.47485	0.17156
2327.54648	0.17260
2325.61810	0.17337
2323.68973	0.17361
2321.76136	0.17385
2319.83298	0.17503
2317.90461	0.17707
2315.97624	0.17892
2314.04787	0.18017
2312.11949	0.18141
2310.19112	0.18298
2308.26275	0.18441
2306.33437	0.18550
2304.40600	0.18667
2302.47763	0.18823
2300.54925	0.19004
2298.62088	0.19182
2296.69251	0.19354
2294.76413	0.19528
2292.83576	0.19685
2290.90739	0.19815
2288.97901	0.19943
2287.05064	0.20082
2285.12227	0.20243
2283.19389	0.20435
2281.26552	0.20626
2279.33715	0.20774
2277.40877	0.20881
2275.48040	0.20994
2273.55203	0.21148
2271.62365	0.21327
2269.69528	0.21491
2267.76691	0.21620
2265.83853	0.21737
2263.91016	0.21862
2261.98179	0.21981
2260.05342	0.22095
2258.12504	0.22225
2256.19667	0.22371
2254.26830	0.22504
2252.33992	0.22621
2250.41155	0.22744
2248.48318	0.22874
2246.55480	0.22994
2244.62643	0.23101
2242.69806	0.23201
2240.76968	0.23302
2238.84131	0.23425
2236.91294	0.23556
2234.98456	0.23661
2233.05619	0.23754
2231.12782	0.23850
2229.19944	0.23935
2227.27107	0.24012
2225.34270	0.24103
2223.41432	0.24220
2221.48595	0.24350
2219.55758	0.24467
2217.62920	0.24558
2215.70083	0.24651
2213.77246	0.24777
2211.84408	0.24916
2209.91571	0.25041
2207.98734	0.25158
2206.05896	0.25278
2204.13059	0.25392
2202.20222	0.25510
2200.27385	0.25631
2198.34547	0.25723
2196.41710	0.25799
2194.48873	0.25891
2192.56035	0.26015
2190.63198	0.26168
2188.70361	0.26322
2186.77523	0.26444
2184.84686	0.26518
2182.91849	0.26576
2180.99011	0.26666
2179.06174	0.26768
2177.13337	0.26838
2175.20499	0.26899
2173.27662	0.26972
2171.34825	0.27040
2169.41987	0.27110
2167.49150	0.27185
2165.56313	0.27252
2163.63475	0.27299
2161.70638	0.27327
2159.77801	0.27359
2157.84963	0.27403
2155.92126	0.27468
2153.99289	0.27581
2152.06451	0.27725
2150.13614	0.27842
2148.20777	0.27900
2146.27940	0.27936
2144.35102	0.28006
2142.42265	0.28105
2140.49428	0.28209
2138.56590	0.28318
2136.63753	0.28438
2134.70916	0.28567
2132.78078	0.28702
2130.85241	0.28845
2128.92404	0.29006
2126.99566	0.29175
2125.06729	0.29337
2123.13892	0.29494
2121.21054	0.29660
2119.28217	0.29837
2117.35380	0.30009
2115.42542	0.30165
2113.49705	0.30304
2111.56868	0.30427
2109.64030	0.30550
2107.71193	0.30683
2105.78356	0.30826
2103.85518	0.30963
2101.92681	0.31074
2099.99844	0.31169
2098.07006	0.31261
2096.14169	0.31358
2094.21332	0.31467
2092.28494	0.31581
2090.35657	0.31671
2088.42820	0.31737
2086.49983	0.31804
2084.57145	0.31856
2082.64308	0.31888
2080.71471	0.31929
2078.78633	0.31974
2076.85796	0.32006
2074.92959	0.32022
2073.00121	0.32018
2071.07284	0.32006
2069.14447	0.31999
2067.21609	0.32002
2065.28772	0.32012
2063.35935	0.32023
2061.43097	0.32027
2059.50260	0.32040
2057.57423	0.32093
2055.64585	0.32178
2053.71748	0.32266
2051.78911	0.32351
2049.86073	0.32431
2047.93236	0.32503
2046.00399	0.32573
2044.07561	0.32658
2042.14724	0.32750
2040.21887	0.32817
2038.29049	0.32867
2036.36212	0.32950
2034.43375	0.33044
2032.50538	0.33084
2030.57700	0.33089
2028.64863	0.33120
2026.72026	0.33164
2024.79188	0.33187
2022.86351	0.33204
2020.93514	0.33226
2019.00676	0.33239
2017.07839	0.33248
2015.15002	0.33260
2013.22164	0.33268
2011.29327	0.33284
2009.36490	0.33320
2007.43652	0.33357
2005.50815	0.33390
2003.57978	0.33419
2001.65140	0.33457
1999.72303	0.33510
1997.79466	0.33554
1995.86628	0.33584
1993.93791	0.33643
1992.00954	0.33719
1990.08116	0.33760
1988.15279	0.33786
1986.22442	0.33800
1984.29604	0.33796
1982.36767	0.33820
1980.43930	0.33871
1978.51092	0.33905
1976.58255	0.33923
1974.65418	0.33943
1972.72581	0.33971
1970.79743	0.34028
1968.86906	0.34131
1966.94069	0.34236
1965.01231	0.34275
1963.08394	0.34265
1961.15557	0.34268
1959.22719	0.34285
1957.29882	0.34301
1955.37045	0.34314
1953.44207	0.34303
1951.51370	0.34278
1949.58533	0.34269
1947.65695	0.34269
1945.72858	0.34274
1943.80021	0.34281
1941.87183	0.34223
1939.94346	0.34094
1938.01509	0.33979
1936.08671	0.33897
1934.15834	0.33820
1932.22997	0.33750
1930.30159	0.33692
1928.37322	0.33626
1926.44485	0.33560
1924.51647	0.33540
1922.58810	0.33535
1920.65973	0.33506
1918.73135	0.33489
1916.80298	0.33461
1914.87461	0.33382
1912.94624	0.33314
1911.01786	0.33300
1909.08949	0.33305
1907.16112	0.33281
1905.23274	0.33231
1903.30437	0.33175
1901.37600	0.33103
1899.44762	0.33016
1897.51925	0.32946
1895.59088	0.32877
1893.66250	0.32766
1891.73413	0.32633
1889.80576	0.32487
1887.87738	0.32297
1885.94901	0.32100
1884.02064	0.31904
1882.09226	0.31679
1880.16389	0.31445
1878.23552	0.31214
1876.30714	0.30984
1874.37877	0.30772
1872.45040	0.30628
1870.52202	0.30559
1868.59365	0.30428
1866.66528	0.30121
1864.73690	0.29777
1862.80853	0.29523
1860.88016	0.29316
1858.95179	0.29097
1857.02341	0.28892
1855.09504	0.28708
1853.16667	0.28498
1851.23829	0.28286
1849.30992	0.28150
1847.38155	0.28082
1845.45317	0.28002
1843.52480	0.27818
1841.59643	0.27567
1839.66805	0.27367
1837.73968	0.27206
1835.81131	0.27034
1833.88293	0.26869
1831.95456	0.26750
1830.02619	0.26614
1828.09781	0.26388
1826.16944	0.26120
1824.24107	0.25808
1822.31269	0.25456
1820.38432	0.25094
1818.45595	0.24722
1816.52757	0.24334
1814.59920	0.23926
1812.67083	0.23503
1810.74245	0.23022
1808.81408	0.22449
1806.88571	0.21842
1804.95733	0.21264
1803.02896	0.20696
1801.10059	0.20048
1799.17222	0.19325
1797.24384	0.18616
1795.31547	0.17944
1793.38710	0.17232
1791.45872	0.16401
1789.53035	0.15596
1787.60198	0.14908
1785.67360	0.14225
1783.74523	0.13507
1781.81686	0.12803
1779.88848	0.12099
1777.96011	0.11441
1776.03174	0.10880
1774.10336	0.10326
1772.17499	0.09615
1770.24662	0.08839
1768.31824	0.08137
1766.38987	0.07451
1764.46150	0.06795
1762.53312	0.06078
1760.60475	0.05268
1758.67638	0.04499
1756.74800	0.03711
1754.81963	0.02967
1752.89126	0.02347
1750.96288	0.01738
1749.03451	0.01146
1747.10614	0.00697
1745.17777	0.00389
1743.24939	0.00188
1741.32102	0.00086
1739.39265	0.00115
1737.46427	0.00100
1735.53590	0.00092
1733.60753	0.00138
1731.67915	0.00119
1729.75078	0.00066
1727.82241	0.00019
1725.89403	0.00052
1723.96566	0.00080
1722.03729	0.00072
1720.10891	0.00091
1718.18054	0.00099
1716.25217	0.00075
1714.32379	0.00068
1712.39542	0.00074
1710.46705	0.00074
1708.53867	0.00036
1706.61030	0.00059
1704.68193	0.00066
1702.75355	0.00050
1700.82518	0.00052
1698.89681	0.00133
1696.96843	0.00131
1695.04006	0.00082
1693.11169	0.00054
1691.18331	0.00047
1689.25494	0.00046
1687.32657	0.00038
1685.39820	0.00086
1683.46982	0.00131
1681.54145	0.00098
1679.61308	0.00048
1677.68470	0.00081
1675.75633	0.00124
1673.82796	0.00101
1671.89958	0.00072
1669.97121	0.00070
1668.04284	0.00047
1666.11446	0.00058
1664.18609	0.00070
1662.25772	0.00074
1660.32934	0.00069
1658.40097	0.00059
1656.47260	0.00066
1654.54422	0.00090
1652.61585	0.00095
1650.68748	0.00083
1648.75910	0.00088
1646.83073	0.00067
1644.90236	0.00032
1642.97398	0.00025
1641.04561	0.00051
1639.11724	0.00058
1637.18886	0.00038
1635.26049	0.00047
1633.33212	0.00047
1631.40375	0.00022
1629.47537	0.00017
1627.54700	0.00017
1625.61863	0.00043
1623.69025	0.00060
1621.76188	0.00036
1619.83351	0.00066
1617.90513	0.00126
1615.97676	0.00138
1614.04839	0.00096
1612.12001	0.00056
1610.19164	0.00019
1608.26327	0.00028
1606.33489	0.00056
1604.40652	0.00044
1602.47815	0.00024
1600.54977	0.00042
1598.62140	0.00055
1596.69303	0.00047
1594.76465	0.00040
1592.83628	0.00046
1590.90791	0.00058
1588.97953	0.00057
1587.05116	0.00059
1585.12279	0.00064
1583.19441	0.00062
1581.26604	0.00064
1579.33767	0.00075
1577.40929	0.00086
1575.48092	0.00085
1573.55255	0.00053
1571.62418	0.00071
1569.69580	0.00114
1567.76743	0.00103
1565.83906	0.00051
1563.91068	0.00054
1561.98231	0.00078
1560.05394	0.00089
1558.12556	0.00076
1556.19719	0.00129
1554.26882	0.00133
1552.34044	0.00092
1550.41207	0.00047
1548.48370	0.00068
1546.55532	0.00077
1544.62695	0.00054
1542.69858	0.00052
1540.77020	0.00036
1538.84183	0.00034
1536.91346	0.00054
1534.98508	0.00055
1533.05671	0.00050
1531.12834	0.00047
1529.19996	0.00060
1527.27159	0.00072
1525.34322	0.00081
1523.41484	0.00108
1521.48647	0.00085
1519.55810	0.00049
1517.62972	0.00064
1515.70135	0.00087
1513.77298	0.00062
1511.84461	0.00062
1509.91623	0.00071
1507.98786	0.00115
1506.05949	0.00160
1504.13111	0.00115
1502.20274	0.00101
1500.27437	0.00087
1498.34599	0.00062
1496.41762	0.00055
1494.48925	0.00104
1492.56087	0.00095
1490.63250	0.00103
1488.70413	0.00118
1486.77575	0.00086
1484.84738	0.00072
1482.91901	0.00061
1480.99063	0.00046
1479.06226	0.00029
1477.13389	0.00065
1475.20551	0.00083
1473.27714	0.00094
1471.34877	0.00105
1469.42039	0.00092
1467.49202	0.00075
1465.56365	0.00053
1463.63527	0.00037
1461.70690	0.00036
1459.77853	0.00055
1457.85016	0.00074
1455.92178	0.00088
1453.99341	0.00121
1452.06504	0.00145
1450.13666	0.00108
1448.20829	0.00084
1446.27992	0.00058
1444.35154	0.00056
1442.42317	0.00085
1440.49480	0.00076
1438.56642	0.00058
1436.63805	0.00072
1434.70968	0.00071
1432.78130	0.00072
1430.85293	0.00090
1428.92456	0.00101
1426.99618	0.00084
1425.06781	0.00078
1423.13944	0.00071
1421.21106	0.00068
1419.28269	0.00065
1417.35432	0.00100
1415.42594	0.00116
1413.49757	0.00098
1411.56920	0.00054
1409.64082	0.00051
1407.71245	0.00072
1405.78408	0.00064
1403.85570	0.00048
1401.92733	0.00080
1399.99896	0.00094
1398.07059	0.00082
1396.14221	0.00080
1394.21384	0.00068
1392.28547	0.00080
1390.35709	0.00092
1388.42872	0.00074
1386.50035	0.00039
1384.57197	0.00065
1382.64360	0.00078
1380.71523	0.00074
1378.78685	0.00070
1376.85848	0.00079
1374.93011	0.00119
1373.00173	0.00107
1371.07336	0.00078
1369.14499	0.00088
1367.21661	0.00071
1365.28824	0.00062
1363.35987	0.00082
1361.43149	0.00083
1359.50312	0.00071
1357.57475	0.00075
1355.64637	0.00058
1353.71800	0.00067
1351.78963	0.00061
1349.86125	0.00046
1347.93288	0.00068
1346.00451	0.00085
1344.07614	0.00082
1342.14776	0.00083
1340.21939	0.00088
1338.29102	0.00072
1336.36264	0.00047
1334.43427	0.00032
1332.50590	0.00018
1330.57752	0.00053
1328.64915	0.00079
1326.72078	0.00097
1324.79240	0.00112
1322.86403	0.00102
1320.93566	0.00054
1319.00728	0.00071
1317.07891	0.00103
1315.15054	0.00090
1313.22216	0.00050
1311.29379	0.00064
1309.36542	0.00073
1307.43704	0.00072
1305.50867	0.00111
1303.58030	0.00145
1301.65192	0.00134
1299.72355	0.00100
1297.79518	0.00110
1295.86680	0.00085
1293.93843	0.00058
1292.01006	0.00121
1290.08168	0.00189
1288.15331	0.00196
1286.22494	0.00172
1284.29657	0.00136
1282.36819	0.00076
1280.43982	0.00077
1278.51145	0.00060
1276.58307	0.00044
1274.65470	0.00073
1272.72633	0.00116
1270.79795	0.00150
1268.86958	0.00121
1266.94121	0.00068
1265.01283	0.00060
1263.08446	0.00068
1261.15609	0.00139
1259.22771	0.00156
1257.29934	0.00131
1255.37097	0.00128
1253.44259	0.00135
1251.51422	0.00140
1249.58585	0.00147
1247.65747	0.00152
1245.72910	0.00151
1243.80073	0.00180
1241.87235	0.00167
1239.94398	0.00152
1238.01561	0.00175
1236.08723	0.00165
1234.15886	0.00184
1232.23049	0.00186
1230.30212	0.00207
1228.37374	0.00264
1226.44537	0.00316
1224.51700	0.00339
1222.58862	0.00359
1220.66025	0.00415
1218.73188	0.00477
1216.80350	0.00451
1214.87513	0.00398
1212.94676	0.00404
1211.01838	0.00374
1209.09001	0.00365
1207.16164	0.00356
1205.23326	0.00325
1203.30489	0.00335
1201.37652	0.00442
1199.44814	0.00583
1197.51977	0.00684
1195.59140	0.00805
1193.66302	0.00972
1191.73465	0.01067
1189.80628	0.01047
1187.87790	0.01016
1185.94953	0.01001
1184.02116	0.00964
1182.09278	0.00947
1180.16441	0.00928
1178.23604	0.00825
1176.30766	0.00680
1174.37929	0.00581
1172.45092	0.00494
1170.52255	0.00335
1168.59417	0.00207
1166.66580	0.00240
1164.73743	0.00233
1162.80905	0.00172
1160.88068	0.00146
1158.95231	0.00083
1157.02393	0.00120
1155.09556	0.00127
1153.16719	0.00081
1151.23881	0.00137
1149.31044	0.00284
1147.38207	0.00429
1145.45369	0.00503
1143.52532	0.00504
1141.59695	0.00502
1139.66857	0.00502
1137.74020	0.00451
1135.81183	0.00361
1133.88345	0.00330
1131.95508	0.00359
1130.02671	0.00329
1128.09833	0.00249
1126.16996	0.00211
1124.24159	0.00162
1122.31321	0.00134
1120.38484	0.00152
1118.45647	0.00142
1116.52809	0.00143
1114.59972	0.00134
1112.67135	0.00152
1110.74298	0.00211
1108.81460	0.00215
1106.88623	0.00176
1104.95786	0.00221
1103.02948	0.00274
1101.10111	0.00240
1099.17274	0.00175
1097.24436	0.00185
1095.31599	0.00198
1093.38762	0.00159
1091.45924	0.00132
1089.53087	0.00137
1087.60250	0.00174
1085.67412	0.00177
1083.74575	0.00188
1081.81738	0.00215
1079.88900	0.00247
1077.96063	0.00243
1076.03226	0.00173
1074.10388	0.00085
1072.17551	0.00049
1070.24714	0.00054
1068.31876	0.00137
1066.39039	0.00176
1064.46202	0.00138
1062.53364	0.00134
1060.60527	0.00111
1058.67690	0.00153
1056.74853	0.00208
1054.82015	0.00166
1052.89178	0.00126
1050.96341	0.00199
1049.03503	0.00254
1047.10666	0.00288
1045.17829	0.00306
1043.24991	0.00222
1041.32154	0.00147
1039.39317	0.00130
1037.46479	0.00151
1035.53642	0.00123
1033.60805	0.00113
1031.67967	0.00087
1029.75130	0.00089
1027.82293	0.00102
1025.89455	0.00117
1023.96618	0.00123
1022.03781	0.00080
1020.10943	0.00100
1018.18106	0.00158
1016.25269	0.00166
1014.32431	0.00148
1012.39594	0.00199
1010.46757	0.00234
1008.53919	0.00277
1006.61082	0.00324
1004.68245	0.00380
1002.75407	0.00429
1000.82570	0.00478
998.89733	0.00551
996.96896	0.00624
995.04058	0.00665
993.11221	0.00732
991.18384	0.00841
989.25546	0.00933
987.32709	0.01002
985.39872	0.01073
983.47034	0.01167
981.54197	0.01273
979.61360	0.01353
977.68522	0.01424
975.75685	0.01553
973.82848	0.01778
971.90010	0.02100
969.97173	0.02519
968.04336	0.02960
966.11498	0.03268
964.18661	0.03401
962.25824	0.03380
960.32986	0.03117
958.40149	0.02601
956.47312	0.02081
954.54474	0.01848
952.61637	0.01972
950.68800	0.02313
948.75962	0.02724
946.83125	0.03152
944.90288	0.03550
942.97451	0.03830
941.04613	0.03986
939.11776	0.04091
937.18939	0.04175
935.26101	0.04221
933.33264	0.04206
931.40427	0.04116
929.47589	0.03979
927.54752	0.03852
925.61915	0.03767
923.69077	0.03712
921.76240	0.03645
919.83403	0.03538
917.90565	0.03411
915.97728	0.03294
914.04891	0.03191
912.12053	0.03062
910.19216	0.02873
908.26379	0.02638
906.33541	0.02392
904.40704	0.02164
902.47867	0.01954
900.55029	0.01735
898.62192	0.01566
896.69355	0.01452
894.76517	0.01301
892.83680	0.01185
890.90843	0.01166
888.98005	0.01164
887.05168	0.01193
885.12331	0.01198
883.19494	0.01078
881.26656	0.00948
879.33819	0.00920
877.40982	0.00864
875.48144	0.00735
873.55307	0.00706
871.62470	0.00818
869.69632	0.00892
867.76795	0.00896
865.83958	0.00859
863.91120	0.00828
861.98283	0.00798
860.05446	0.00761
858.12608	0.00709
856.19771	0.00654
854.26934	0.00671
852.34096	0.00703
850.41259	0.00689
848.48422	0.00690
846.55584	0.00796
844.62747	0.00874
842.69910	0.00793
840.77072	0.00676
838.84235	0.00534
836.91398	0.00393
834.98560	0.00331
833.05723	0.00357
831.12886	0.00462
829.20049	0.00487
827.27211	0.00391
825.34374	0.00283
823.41537	0.00256
821.48699	0.00274
819.55862	0.00205
817.63025	0.00123
815.70187	0.00082
813.77350	0.00191
811.84513	0.00316
809.91675	0.00382
807.98838	0.00421
806.06001	0.00395
804.13163	0.00316
802.20326	0.00150
800.27489	0.00185
798.34651	0.00184
796.41814	0.00115
794.48977	0.00061
792.56139	0.00170
790.63302	0.00262
788.70465	0.00266
786.77627	0.00233
784.84790	0.00200
782.91953	0.00158
780.99115	0.00200
779.06278	0.00224
777.13441	0.00257
775.20603	0.00293
773.27766	0.00221
771.34929	0.00185
769.42092	0.00161
767.49254	0.00130
765.56417	0.00107
763.63580	0.00161
761.70742	0.00197
759.77905	0.00229
757.85068	0.00236
755.92230	0.00199
753.99393	0.00165
752.06556	0.00153
750.13718	0.00025
748.20881	0.00181
746.28044	0.00257
744.35206	0.00140
742.42369	0.00077
740.49532	0.00050
738.56694	0.00202
736.63857	0.00273
734.71020	0.00231
732.78182	0.00209
730.85345	0.00210
728.92508	0.00175
726.99670	0.00174
725.06833	0.00190
723.13996	0.00202
721.21158	0.00201
719.28321	0.00149
717.35484	0.00124
715.42647	0.00117
713.49809	0.00136
711.56972	0.00214
709.64135	0.00206
707.71297	0.00206
705.78460	0.00208
703.85623	0.00230
701.92785	0.00171
699.99948	0.00232
698.07111	0.00357
696.14273	0.00300
694.21436	0.00194
692.28599	0.00196
690.35761	0.00262
688.42924	0.00156
686.50087	0.00216
684.57249	0.00513
682.64412	0.00587
680.71575	0.00448
678.78737	0.00469
676.85900	0.00563
674.93063	0.00432
673.00225	0.00311
671.07388	0.00419
669.14551	0.00539
667.21713	0.00484
665.28876	0.00347
663.36039	0.00268
661.43201	0.00162
659.50364	0.00226
657.57527	0.00385
655.64690	0.00435
653.71852	0.00478
651.79015	0.00588
649.86178	0.00730
647.93340	0.00706
646.00503	0.00321
644.07666	0.00446
642.14828	0.00696
640.21991	0.00632
638.29154	0.00607
636.36316	0.00630
634.43479	0.00541
632.50642	0.00683
630.57804	0.00848
628.64967	0.00796
626.72130	0.00544
624.79292	0.00542
622.86455	0.00460
620.93618	0.00259
619.00780	0.00345
617.07943	0.00685
615.15106	0.00834
613.22268	0.01009
611.29431	0.00973
609.36594	0.00703
607.43756	0.01150
605.50919	0.00991
603.58082	0.00790
601.65244	0.01296
599.72407	0.01665
