3997.51769	0.46864
3995.58931	0.46911
3993.66094	0.46921
3991.73257	0.46952
3989.80419	0.47004
3987.87582	0.47005
3985.94745	0.47001
3984.01907	0.47051
3982.09070	0.47110
3980.16233	0.47117
3978.23396	0.47102
3976.30558	0.47165
3974.37721	0.47283
3972.44884	0.47323
3970.52046	0.47261
3968.59209	0.47175
3966.66372	0.47161
3964.73534	0.47252
3962.80697	0.47373
3960.87860	0.47431
3958.95022	0.47417
3957.02185	0.47427
3955.09348	0.47522
3953.16510	0.47671
3951.23673	0.47816
3949.30836	0.47876
3947.37998	0.47824
3945.45161	0.47797
3943.52324	0.47868
3941.59486	0.47935
3939.66649	0.47947
3937.73812	0.47966
3935.80974	0.48026
3933.88137	0.48122
3931.95300	0.48224
3930.02462	0.48278
3928.09625	0.48309
3926.16788	0.48405
3924.23950	0.48513
3922.31113	0.48553
3920.38276	0.48599
3918.45439	0.48676
3916.52601	0.48712
3914.59764	0.48702
3912.66927	0.48710
3910.74089	0.48771
3908.81252	0.48895
3906.88415	0.49134
3904.95577	0.49478
3903.02740	0.49717
3901.09903	0.49687
3899.17065	0.49502
3897.24228	0.49387
3895.31391	0.49471
3893.38553	0.49672
3891.45716	0.49775
3889.52879	0.49758
3887.60041	0.49830
3885.67204	0.49933
3883.74367	0.49967
3881.81529	0.50087
3879.88692	0.50148
3877.95855	0.50002
3876.03017	0.49971
3874.10180	0.50189
3872.17343	0.50497
3870.24505	0.50665
3868.31668	0.50587
3866.38831	0.50556
3864.45994	0.50703
3862.53156	0.50744
3860.60319	0.50616
3858.67482	0.50567
3856.74644	0.50727
3854.81807	0.51126
3852.88970	0.51430
3850.96132	0.51190
3849.03295	0.50896
3847.10458	0.50810
3845.17620	0.50951
3843.24783	0.51238
3841.31946	0.51515
3839.39108	0.51679
3837.46271	0.51646
3835.53434	0.51473
3833.60596	0.51317
3831.67759	0.51206
3829.74922	0.51161
3827.82084	0.51209
3825.89247	0.51300
3823.96410	0.51469
3822.03572	0.51791
3820.10735	0.51946
3818.17898	0.51803
3816.25060	0.51626
3814.32223	0.51373
3812.39386	0.51133
3810.46548	0.51076
3808.53711	0.51209
3806.60874	0.51362
3804.68037	0.51427
3802.75199	0.51539
3800.82362	0.51580
3798.89525	0.51450
3796.96687	0.51316
3795.03850	0.51163
3793.11013	0.51013
3791.18175	0.50911
3789.25338	0.50860
3787.32501	0.50894
3785.39663	0.50968
3783.46826	0.50958
3781.53989	0.50916
3779.61151	0.50915
3777.68314	0.50855
3775.75477	0.50756
3773.82639	0.50759
3771.89802	0.50912
3769.96965	0.51083
3768.04127	0.51068
3766.11290	0.50959
3764.18453	0.50881
3762.25615	0.50885
3760.32778	0.50974
3758.39941	0.50978
3756.47103	0.50883
3754.54266	0.50928
3752.61429	0.51236
3750.68591	0.51485
3748.75754	0.51304
3746.82917	0.51146
3744.90080	0.51056
3742.97242	0.50752
3741.04405	0.50497
3739.11568	0.50485
3737.18730	0.50659
3735.25893	0.50816
3733.33056	0.50608
3731.40218	0.50115
3729.47381	0.49764
3727.54544	0.49641
3725.61706	0.49563
3723.68869	0.49425
3721.76032	0.49244
3719.83194	0.48973
3717.90357	0.48654
3715.97520	0.48473
3714.04682	0.48523
3712.11845	0.48658
3710.19008	0.48426
3708.26170	0.47813
3706.33333	0.47258
3704.40496	0.46947
3702.47658	0.46760
3700.54821	0.46406
3698.61984	0.45914
3696.69146	0.45439
3694.76309	0.45012
3692.83472	0.44703
3690.90635	0.44434
3688.97797	0.43819
3687.04960	0.42795
3685.12123	0.41853
3683.19285	0.41082
3681.26448	0.40372
3679.33611	0.39717
3677.40773	0.39094
3675.47936	0.38122
3673.55099	0.36870
3671.62261	0.35871
3669.69424	0.34668
3667.76587	0.33173
3665.83749	0.31875
3663.90912	0.30709
3661.98075	0.29570
3660.05237	0.28476
3658.12400	0.27386
3656.19563	0.26098
3654.26725	0.24861
3652.33888	0.23970
3650.41051	0.22984
3648.48213	0.21465
3646.55376	0.19917
3644.62539	0.18700
3642.69701	0.17647
3640.76864	0.16627
3638.84027	0.15612
3636.91189	0.14658
3634.98352	0.13777
3633.05515	0.12948
3631.12678	0.12204
3629.19840	0.11293
3627.27003	0.10163
3625.34166	0.09344
3623.41328	0.08789
3621.48491	0.08252
3619.55654	0.07578
3617.62816	0.06902
3615.69979	0.06395
3613.77142	0.05947
3611.84304	0.05498
3609.91467	0.05067
3607.98630	0.04628
3606.05792	0.04213
3604.12955	0.03896
3602.20118	0.03632
3600.27280	0.03324
3598.34443	0.02976
3596.41606	0.02696
3594.48768	0.02500
3592.55931	0.02297
3590.63094	0.02058
3588.70256	0.01828
3586.77419	0.01667
3584.84582	0.01546
3582.91744	0.01411
3580.98907	0.01285
3579.06070	0.01184
3577.13233	0.01098
3575.20395	0.01002
3573.27558	0.00901
3571.34721	0.00794
3569.41883	0.00694
3567.49046	0.00630
3565.56209	0.00569
3563.63371	0.00478
3561.70534	0.00393
3559.77697	0.00342
3557.84859	0.00321
3555.92022	0.00325
3553.99185	0.00342
3552.06347	0.00338
3550.13510	0.00302
3548.20673	0.00255
3546.27835	0.00232
3544.34998	0.00237
3542.42161	0.00236
3540.49323	0.00200
3538.56486	0.00140
3536.63649	0.00127
3534.70811	0.00153
3532.77974	0.00151
3530.85137	0.00135
3528.92299	0.00130
3526.99462	0.00106
3525.06625	0.00096
3523.13787	0.00090
3521.20950	0.00096
3519.28113	0.00059
3517.35276	0.00095
3515.42438	0.00104
3513.49601	0.00067
3511.56764	0.00043
3509.63926	0.00077
3507.71089	0.00076
3505.78252	0.00071
3503.85414	0.00103
3501.92577	0.00121
3499.99740	0.00069
3498.06902	0.00035
3496.14065	0.00056
3494.21228	0.00040
3492.28390	0.00044
3490.35553	0.00059
3488.42716	0.00081
3486.49878	0.00073
3484.57041	0.00059
3482.64204	0.00078
3480.71366	0.00090
3478.78529	0.00062
3476.85692	0.00053
3474.92854	0.00072
3473.00017	0.00081
3471.07180	0.00065
3469.14342	0.00089
3467.21505	0.00085
3465.28668	0.00034
3463.35831	0.00068
3461.42993	0.00107
3459.50156	0.00069
3457.57319	0.00059
3455.64481	0.00067
3453.71644	0.00091
3451.78807	0.00094
3449.85969	0.00091
3447.93132	0.00102
3446.00295	0.00085
3444.07457	0.00057
3442.14620	0.00090
3440.21783	0.00113
3438.28945	0.00100
3436.36108	0.00090
3434.43271	0.00110
3432.50433	0.00099
3430.57596	0.00094
3428.64759	0.00087
3426.71921	0.00068
3424.79084	0.00067
3422.86247	0.00073
3420.93409	0.00073
3419.00572	0.00067
3417.07735	0.00054
3415.14897	0.00046
3413.22060	0.00078
3411.29223	0.00099
3409.36385	0.00104
3407.43548	0.00095
3405.50711	0.00084
3403.57874	0.00073
3401.65036	0.00054
3399.72199	0.00049
3397.79362	0.00083
3395.86524	0.00102
3393.93687	0.00095
3392.00850	0.00088
3390.08012	0.00060
3388.15175	0.00092
3386.22338	0.00123
3384.29500	0.00118
3382.36663	0.00069
3380.43826	0.00061
3378.50988	0.00085
3376.58151	0.00085
3374.65314	0.00071
3372.72476	0.00107
3370.79639	0.00140
3368.86802	0.00143
3366.93964	0.00105
3365.01127	0.00106
3363.08290	0.00110
3361.15452	0.00104
3359.22615	0.00127
3357.29778	0.00134
3355.36940	0.00123
3353.44103	0.00110
3351.51266	0.00145
3349.58428	0.00160
3347.65591	0.00114
3345.72754	0.00077
3343.79917	0.00060
3341.87079	0.00076
3339.94242	0.00083
3338.01405	0.00074
3336.08567	0.00096
3334.15730	0.00108
3332.22893	0.00108
3330.30055	0.00092
3328.37218	0.00078
3326.44381	0.00102
3324.51543	0.00087
3322.58706	0.00058
3320.65869	0.00053
3318.73031	0.00068
3316.80194	0.00066
3314.87357	0.00081
3312.94519	0.00097
3311.01682	0.00068
3309.08845	0.00065
3307.16007	0.00091
3305.23170	0.00097
3303.30333	0.00045
3301.37495	0.00052
3299.44658	0.00067
3297.51821	0.00032
3295.58983	0.00104
3293.66146	0.00089
3291.73309	0.00058
3289.80472	0.00082
3287.87634	0.00107
3285.94797	0.00081
3284.01960	0.00044
3282.09122	0.00072
3280.16285	0.00104
3278.23448	0.00126
3276.30610	0.00124
3274.37773	0.00087
3272.44936	0.00062
3270.52098	0.00100
3268.59261	0.00073
3266.66424	0.00081
3264.73586	0.00100
3262.80749	0.00132
3260.87912	0.00117
3258.95074	0.00089
3257.02237	0.00057
3255.09400	0.00075
3253.16562	0.00069
3251.23725	0.00084
3249.30888	0.00092
3247.38050	0.00086
3245.45213	0.00063
3243.52376	0.00045
3241.59538	0.00070
3239.66701	0.00081
3237.73864	0.00062
3235.81026	0.00091
3233.88189	0.00111
3231.95352	0.00085
3230.02515	0.00054
3228.09677	0.00022
3226.16840	0.00048
3224.24003	0.00083
3222.31165	0.00093
3220.38328	0.00101
3218.45491	0.00132
3216.52653	0.00142
3214.59816	0.00138
3212.66979	0.00115
3210.74141	0.00078
3208.81304	0.00054
3206.88467	0.00049
3204.95629	0.00095
3203.02792	0.00101
3201.09955	0.00094
3199.17117	0.00050
3197.24280	0.00038
3195.31443	0.00056
3193.38605	0.00072
3191.45768	0.00070
3189.52931	0.00075
3187.60093	0.00130
3185.67256	0.00130
3183.74419	0.00114
3181.81581	0.00104
3179.88744	0.00066
3177.95907	0.00044
3176.03070	0.00078
3174.10232	0.00133
3172.17395	0.00105
3170.24558	0.00098
3168.31720	0.00143
3166.38883	0.00130
3164.46046	0.00109
3162.53208	0.00070
3160.60371	0.00077
3158.67534	0.00109
3156.74696	0.00074
3154.81859	0.00072
3152.89022	0.00122
3150.96184	0.00102
3149.03347	0.00031
3147.10510	0.00055
3145.17672	0.00056
3143.24835	0.00083
3141.31998	0.00116
3139.39160	0.00105
3137.46323	0.00066
3135.53486	0.00072
3133.60648	0.00100
3131.67811	0.00117
3129.74974	0.00103
3127.82136	0.00060
3125.89299	0.00066
3123.96462	0.00077
3122.03624	0.00085
3120.10787	0.00067
3118.17950	0.00053
3116.25113	0.00062
3114.32275	0.00085
3112.39438	0.00100
3110.46601	0.00104
3108.53763	0.00065
3106.60926	0.00049
3104.68089	0.00066
3102.75251	0.00072
3100.82414	0.00068
3098.89577	0.00019
3096.96739	0.00045
3095.03902	0.00044
3093.11065	0.00023
3091.18227	0.00049
3089.25390	0.00043
3087.32553	0.00039
3085.39715	0.00093
3083.46878	0.00116
3081.54041	0.00091
3079.61203	0.00101
3077.68366	0.00093
3075.75529	0.00085
3073.82691	0.00069
3071.89854	0.00061
3069.97017	0.00075
3068.04179	0.00090
3066.11342	0.00085
3064.18505	0.00060
3062.25668	0.00040
3060.32830	0.00076
3058.39993	0.00064
3056.47156	0.00055
3054.54318	0.00060
3052.61481	0.00051
3050.68644	0.00063
3048.75806	0.00067
3046.82969	0.00052
3044.90132	0.00068
3042.97294	0.00084
3041.04457	0.00054
3039.11620	0.00057
3037.18782	0.00056
3035.25945	0.00052
3033.33108	0.00040
3031.40270	0.00063
3029.47433	0.00108
3027.54596	0.00089
3025.61758	0.00049
3023.68921	0.00029
3021.76084	0.00046
3019.83246	0.00076
3017.90409	0.00081
3015.97572	0.00062
3014.04734	0.00043
3012.11897	0.00023
3010.19060	0.00043
3008.26222	0.00049
3006.33385	0.00057
3004.40548	0.00071
3002.47711	0.00054
3000.54873	0.00044
2998.62036	0.00089
2996.69199	0.00133
2994.76361	0.00124
2992.83524	0.00076
2990.90687	0.00076
2988.97849	0.00054
2987.05012	0.00059
2985.12175	0.00069
2983.19337	0.00057
2981.26500	0.00037
2979.33663	0.00083
2977.40825	0.00118
2975.47988	0.00077
2973.55151	0.00088
2971.62313	0.00066
2969.69476	0.00080
2967.76639	0.00121
2965.83801	0.00098
2963.90964	0.00054
2961.98127	0.00052
2960.05289	0.00081
2958.12452	0.00103
2956.19615	0.00087
2954.26777	0.00060
2952.33940	0.00058
2950.41103	0.00049
2948.48266	0.00090
2946.55428	0.00137
2944.62591	0.00101
2942.69754	0.00050
2940.76916	0.00048
2938.84079	0.00108
2936.91242	0.00125
2934.98404	0.00145
2933.05567	0.00130
2931.12730	0.00071
2929.19892	0.00072
2927.27055	0.00071
2925.34218	0.00071
2923.41380	0.00062
2921.48543	0.00047
2919.55706	0.00032
2917.62868	0.00071
2915.70031	0.00095
2913.77194	0.00087
2911.84356	0.00077
2909.91519	0.00120
2907.98682	0.00115
2906.05844	0.00112
2904.13007	0.00137
2902.20170	0.00109
2900.27332	0.00085
2898.34495	0.00138
2896.41658	0.00166
2894.48820	0.00122
2892.55983	0.00108
2890.63146	0.00120
2888.70309	0.00102
2886.77471	0.00080
2884.84634	0.00098
2882.91797	0.00128
2880.98959	0.00128
2879.06122	0.00104
2877.13285	0.00084
2875.20447	0.00084
2873.27610	0.00096
2871.34773	0.00071
2869.41935	0.00040
2867.49098	0.00060
2865.56261	0.00056
2863.63423	0.00052
2861.70586	0.00062
2859.77749	0.00046
2857.84911	0.00057
2855.92074	0.00080
2853.99237	0.00094
2852.06399	0.00092
2850.13562	0.00067
2848.20725	0.00057
2846.27887	0.00039
2844.35050	0.00018
2842.42213	0.00032
2840.49375	0.00040
2838.56538	0.00062
2836.63701	0.00093
2834.70863	0.00105
2832.78026	0.00077
2830.85189	0.00067
2828.92352	0.00064
2826.99514	0.00070
2825.06677	0.00079
2823.13840	0.00093
2821.21002	0.00101
2819.28165	0.00104
2817.35328	0.00073
2815.42490	0.00028
2813.49653	0.00038
2811.56816	0.00074
2809.63978	0.00102
2807.71141	0.00076
2805.78304	0.00024
2803.85466	0.00042
2801.92629	0.00052
2799.99792	0.00071
2798.06954	0.00080
2796.14117	0.00103
2794.21280	0.00114
2792.28442	0.00077
2790.35605	0.00048
2788.42768	0.00029
2786.49930	0.00081
2784.57093	0.00098
2782.64256	0.00080
2780.71418	0.00076
2778.78581	0.00097
2776.85744	0.00074
2774.92907	0.00033
2773.00069	0.00051
2771.07232	0.00069
2769.14395	0.00080
2767.21557	0.00074
2765.28720	0.00056
2763.35883	0.00066
2761.43045	0.00090
2759.50208	0.00106
2757.57371	0.00096
2755.64533	0.00106
2753.71696	0.00101
2751.78859	0.00092
2749.86021	0.00093
2747.93184	0.00099
2746.00347	0.00104
2744.07509	0.00104
2742.14672	0.00111
2740.21835	0.00134
2738.28997	0.00134
2736.36160	0.00119
2734.43323	0.00092
2732.50485	0.00086
2730.57648	0.00084
2728.64811	0.00097
2726.71973	0.00137
2724.79136	0.00169
2722.86299	0.00177
2720.93461	0.00165
2719.00624	0.00170
2717.07787	0.00183
2715.14950	0.00179
2713.22112	0.00175
2711.29275	0.00181
2709.36438	0.00191
2707.43600	0.00195
2705.50763	0.00211
2703.57926	0.00236
2701.65088	0.00258
2699.72251	0.00259
2697.79414	0.00242
2695.86576	0.00227
2693.93739	0.00212
2692.00902	0.00199
2690.08064	0.00183
2688.15227	0.00155
2686.22390	0.00153
2684.29552	0.00207
2682.36715	0.00277
2680.43878	0.00324
2678.51040	0.00351
2676.58203	0.00362
2674.65366	0.00344
2672.72528	0.00311
2670.79691	0.00285
2668.86854	0.00299
2666.94016	0.00348
2665.01179	0.00387
2663.08342	0.00396
2661.15505	0.00389
2659.22667	0.00389
2657.29830	0.00397
2655.36993	0.00408
2653.44155	0.00424
2651.51318	0.00468
2649.58481	0.00531
2647.65643	0.00582
2645.72806	0.00607
2643.79969	0.00601
2641.87131	0.00567
2639.94294	0.00526
2638.01457	0.00516
2636.08619	0.00540
2634.15782	0.00571
2632.22945	0.00618
2630.30107	0.00682
2628.37270	0.00738
2626.44433	0.00768
2624.51595	0.00772
2622.58758	0.00769
2620.65921	0.00777
2618.73083	0.00799
2616.80246	0.00835
2614.87409	0.00892
2612.94571	0.00953
2611.01734	0.00985
2609.08897	0.00999
2607.16059	0.01018
2605.23222	0.01037
2603.30385	0.01074
2601.37548	0.01125
2599.44710	0.01161
2597.51873	0.01210
2595.59036	0.01269
2593.66198	0.01290
2591.73361	0.01300
2589.80524	0.01360
2587.87686	0.01438
2585.94849	0.01481
2584.02012	0.01517
2582.09174	0.01569
2580.16337	0.01607
2578.23500	0.01642
2576.30662	0.01703
2574.37825	0.01775
2572.44988	0.01826
2570.52150	0.01845
2568.59313	0.01852
2566.66476	0.01882
2564.73638	0.01947
2562.80801	0.02030
2560.87964	0.02094
2558.95126	0.02124
2557.02289	0.02140
2555.09452	0.02161
2553.16614	0.02205
2551.23777	0.02280
2549.30940	0.02359
2547.38103	0.02411
2545.45265	0.02439
2543.52428	0.02483
2541.59591	0.02532
2539.66753	0.02561
2537.73916	0.02594
2535.81079	0.02649
2533.88241	0.02717
2531.95404	0.02773
2530.02567	0.02818
2528.09729	0.02871
2526.16892	0.02933
2524.24055	0.02986
2522.31217	0.03031
2520.38380	0.03092
2518.45543	0.03168
2516.52705	0.03217
2514.59868	0.03228
2512.67031	0.03267
2510.74193	0.03351
2508.81356	0.03430
2506.88519	0.03486
2504.95681	0.03528
2503.02844	0.03561
2501.10007	0.03603
2499.17169	0.03664
2497.24332	0.03730
2495.31495	0.03795
2493.38657	0.03862
2491.45820	0.03918
2489.52983	0.03944
2487.60146	0.03957
2485.67308	0.03988
2483.74471	0.04040
2481.81634	0.04084
2479.88796	0.04111
2477.95959	0.04161
2476.03122	0.04249
2474.10284	0.04333
2472.17447	0.04389
2470.24610	0.04451
2468.31772	0.04538
2466.38935	0.04630
2464.46098	0.04711
2462.53260	0.04789
2460.60423	0.04874
2458.67586	0.04956
2456.74748	0.05027
2454.81911	0.05095
2452.89074	0.05166
2450.96236	0.05262
2449.03399	0.05385
2447.10562	0.05483
2445.17724	0.05551
2443.24887	0.05639
2441.32050	0.05748
2439.39212	0.05846
2437.46375	0.05941
2435.53538	0.06039
2433.60700	0.06120
2431.67863	0.06186
2429.75026	0.06271
2427.82189	0.06383
2425.89351	0.06500
2423.96514	0.06601
2422.03677	0.06671
2420.10839	0.06722
2418.18002	0.06789
2416.25165	0.06885
2414.32327	0.06981
2412.39490	0.07075
2410.46653	0.07181
2408.53815	0.07285
2406.60978	0.07384
2404.68141	0.07484
2402.75303	0.07578
2400.82466	0.07679
2398.89629	0.07811
2396.96791	0.07954
2395.03954	0.08050
2393.11117	0.08105
2391.18279	0.08180
2389.25442	0.08300
2387.32605	0.08436
2385.39767	0.08560
2383.46930	0.08684
2381.54093	0.08826
2379.61255	0.08977
2377.68418	0.09132
2375.75581	0.09307
2373.82744	0.09510
2371.89906	0.09693
2369.97069	0.09827
2368.04232	0.10000
2366.11394	0.10241
2364.18557	0.10415
2362.25720	0.10534
2360.32882	0.10715
2358.40045	0.10822
2356.47208	0.10771
2354.54370	0.10669
2352.61533	0.10632
2350.68696	0.10700
2348.75858	0.10813
2346.83021	0.10936
2344.90184	0.11080
2342.97346	0.11231
2341.04509	0.11333
2339.11672	0.11379
2337.18834	0.11402
2335.25997	0.11455
2333.33160	0.11584
2331.40322	0.11684
2329.47485	0.11651
2327.54648	0.11596
2325.61810	0.11655
2323.68973	0.11822
2321.76136	0.12002
2319.83298	0.12111
2317.90461	0.12154
2315.97624	0.12191
2314.04787	0.12270
2312.11949	0.12397
2310.19112	0.12526
2308.26275	0.12607
2306.33437	0.12671
2304.40600	0.12765
2302.47763	0.12894
2300.54925	0.13030
2298.62088	0.13157
2296.69251	0.13287
2294.76413	0.13408
2292.83576	0.13504
2290.90739	0.13595
2288.97901	0.13689
2287.05064	0.13785
2285.12227	0.13885
2283.19389	0.13996
2281.26552	0.14133
2279.33715	0.14279
2277.40877	0.14391
2275.48040	0.14475
2273.55203	0.14568
2271.62365	0.14676
2269.69528	0.14780
2267.76691	0.14874
2265.83853	0.14983
2263.91016	0.15120
2261.98179	0.15246
2260.05342	0.15341
2258.12504	0.15434
2256.19667	0.15541
2254.26830	0.15656
2252.33992	0.15779
2250.41155	0.15904
2248.48318	0.16020
2246.55480	0.16137
2244.62643	0.16249
2242.69806	0.16345
2240.76968	0.16437
2238.84131	0.16542
2236.91294	0.16642
2234.98456	0.16697
2233.05619	0.16723
2231.12782	0.16770
2229.19944	0.16855
2227.27107	0.16963
2225.34270	0.17075
2223.41432	0.17170
2221.48595	0.17246
2219.55758	0.17326
2217.62920	0.17422
2215.70083	0.17528
2213.77246	0.17641
2211.84408	0.17745
2209.91571	0.17829
2207.98734	0.17919
2206.05896	0.18031
2204.13059	0.18136
2202.20222	0.18227
2200.27385	0.18334
2198.34547	0.18445
2196.41710	0.18541
2194.48873	0.18621
2192.56035	0.18695
2190.63198	0.18778
2188.70361	0.18885
2186.77523	0.19000
2184.84686	0.19096
2182.91849	0.19162
2180.99011	0.19210
2179.06174	0.19266
2177.13337	0.19345
2175.20499	0.19433
2173.27662	0.19513
2171.34825	0.19576
2169.41987	0.19622
2167.49150	0.19668
2165.56313	0.19721
2163.63475	0.19772
2161.70638	0.19835
2159.77801	0.19909
2157.84963	0.19963
2155.92126	0.19987
2153.99289	0.20017
2152.06451	0.20081
2150.13614	0.20167
2148.20777	0.20261
2146.27940	0.20360
2144.35102	0.20447
2142.42265	0.20515
2140.49428	0.20592
2138.56590	0.20694
2136.63753	0.20797
2134.70916	0.20883
2132.78078	0.20972
2130.85241	0.21083
2128.92404	0.21201
2126.99566	0.21312
2125.06729	0.21420
2123.13892	0.21528
2121.21054	0.21645
2119.28217	0.21767
2117.35380	0.21885
2115.42542	0.22001
2113.49705	0.22105
2111.56868	0.22203
2109.64030	0.22311
2107.71193	0.22418
2105.78356	0.22525
2103.85518	0.22655
2101.92681	0.22794
2099.99844	0.22907
2098.07006	0.22994
2096.14169	0.23074
2094.21332	0.23154
2092.28494	0.23240
2090.35657	0.23331
2088.42820	0.23410
2086.49983	0.23465
2084.57145	0.23507
2082.64308	0.23529
2080.71471	0.23546
2078.78633	0.23586
2076.85796	0.23630
2074.92959	0.23643
2073.00121	0.23628
2071.07284	0.23614
2069.14447	0.23618
2067.21609	0.23624
2065.28772	0.23598
2063.35935	0.23565
2061.43097	0.23569
2059.50260	0.23596
2057.57423	0.23620
2055.64585	0.23662
2053.71748	0.23740
2051.78911	0.23820
2049.86073	0.23890
2047.93236	0.23951
2046.00399	0.24002
2044.07561	0.24059
2042.14724	0.24132
2040.21887	0.24208
2038.29049	0.24281
2036.36212	0.24345
2034.43375	0.24392
2032.50538	0.24425
2030.57700	0.24461
2028.64863	0.24510
2026.72026	0.24564
2024.79188	0.24607
2022.86351	0.24636
2020.93514	0.24674
2019.00676	0.24734
2017.07839	0.24791
2015.15002	0.24819
2013.22164	0.24830
2011.29327	0.24847
2009.36490	0.24884
2007.43652	0.24933
2005.50815	0.24964
2003.57978	0.24988
2001.65140	0.25037
1999.72303	0.25099
1997.79466	0.25148
1995.86628	0.25196
1993.93791	0.25259
1992.00954	0.25309
1990.08116	0.25328
1988.15279	0.25343
1986.22442	0.25363
1984.29604	0.25382
1982.36767	0.25419
1980.43930	0.25470
1978.51092	0.25496
1976.58255	0.25496
1974.65418	0.25502
1972.72581	0.25534
1970.79743	0.25587
1968.86906	0.25645
1966.94069	0.25693
1965.01231	0.25722
1963.08394	0.25735
1961.15557	0.25740
1959.22719	0.25755
1957.29882	0.25801
1955.37045	0.25860
1953.44207	0.25907
1951.51370	0.25935
1949.58533	0.25940
1947.65695	0.25932
1945.72858	0.25939
1943.80021	0.25968
1941.87183	0.25968
1939.94346	0.25909
1938.01509	0.25844
1936.08671	0.25820
1934.15834	0.25810
1932.22997	0.25770
1930.30159	0.25709
1928.37322	0.25653
1926.44485	0.25600
1924.51647	0.25566
1922.58810	0.25551
1920.65973	0.25529
1918.73135	0.25498
1916.80298	0.25450
1914.87461	0.25383
1912.94624	0.25330
1911.01786	0.25310
1909.08949	0.25280
1907.16112	0.25216
1905.23274	0.25155
1903.30437	0.25108
1901.37600	0.25056
1899.44762	0.25005
1897.51925	0.24960
1895.59088	0.24897
1893.66250	0.24816
1891.73413	0.24750
1889.80576	0.24688
1887.87738	0.24589
1885.94901	0.24472
1884.02064	0.24354
1882.09226	0.24231
1880.16389	0.24104
1878.23552	0.23952
1876.30714	0.23783
1874.37877	0.23634
1872.45040	0.23519
1870.52202	0.23437
1868.59365	0.23325
1866.66528	0.23099
1864.73690	0.22837
1862.80853	0.22625
1860.88016	0.22443
1858.95179	0.22253
1857.02341	0.22058
1855.09504	0.21883
1853.16667	0.21742
1851.23829	0.21633
1849.30992	0.21544
1847.38155	0.21461
1845.45317	0.21370
1843.52480	0.21240
1841.59643	0.21080
1839.66805	0.20942
1837.73968	0.20830
1835.81131	0.20736
1833.88293	0.20665
1831.95456	0.20615
1830.02619	0.20517
1828.09781	0.20338
1826.16944	0.20160
1824.24107	0.19977
1822.31269	0.19747
1820.38432	0.19492
1818.45595	0.19216
1816.52757	0.18904
1814.59920	0.18586
1812.67083	0.18275
1810.74245	0.17899
1808.81408	0.17455
1806.88571	0.17011
1804.95733	0.16589
1803.02896	0.16175
1801.10059	0.15710
1799.17222	0.15160
1797.24384	0.14620
1795.31547	0.14170
1793.38710	0.13712
1791.45872	0.13092
1789.53035	0.12430
1787.60198	0.11864
1785.67360	0.11349
1783.74523	0.10853
1781.81686	0.10361
1779.88848	0.09843
1777.96011	0.09350
1776.03174	0.08934
1774.10336	0.08534
1772.17499	0.08021
1770.24662	0.07421
1768.31824	0.06838
1766.38987	0.06284
1764.46150	0.05770
1762.53312	0.05182
1760.60475	0.04505
1758.67638	0.03869
1756.74800	0.03217
1754.81963	0.02583
1752.89126	0.02022
1750.96288	0.01450
1749.03451	0.00905
1747.10614	0.00540
1745.17777	0.00331
1743.24939	0.00197
1741.32102	0.00117
1739.39265	0.00134
1737.46427	0.00148
1735.53590	0.00109
1733.60753	0.00029
1731.67915	0.00053
1729.75078	0.00062
1727.82241	0.00076
1725.89403	0.00059
1723.96566	0.00050
1722.03729	0.00070
1720.10891	0.00091
1718.18054	0.00144
1716.25217	0.00144
1714.32379	0.00075
1712.39542	0.00055
1710.46705	0.00040
1708.53867	0.00048
1706.61030	0.00051
1704.68193	0.00036
1702.75355	0.00071
1700.82518	0.00112
1698.89681	0.00072
1696.96843	0.00066
1695.04006	0.00074
1693.11169	0.00073
1691.18331	0.00084
1689.25494	0.00090
1687.32657	0.00086
1685.39820	0.00074
1683.46982	0.00128
1681.54145	0.00112
1679.61308	0.00064
1677.68470	0.00042
1675.75633	0.00037
1673.82796	0.00041
1671.89958	0.00058
1669.97121	0.00064
1668.04284	0.00038
1666.11446	0.00048
1664.18609	0.00051
1662.25772	0.00050
1660.32934	0.00030
1658.40097	0.00051
1656.47260	0.00056
1654.54422	0.00060
1652.61585	0.00125
1650.68748	0.00129
1648.75910	0.00156
1646.83073	0.00172
1644.90236	0.00120
1642.97398	0.00070
1641.04561	0.00064
1639.11724	0.00105
1637.18886	0.00137
1635.26049	0.00123
1633.33212	0.00079
1631.40375	0.00037
1629.47537	0.00044
1627.54700	0.00074
1625.61863	0.00072
1623.69025	0.00060
1621.76188	0.00071
1619.83351	0.00062
1617.90513	0.00067
1615.97676	0.00063
1614.04839	0.00063
1612.12001	0.00098
1610.19164	0.00079
1608.26327	0.00052
1606.33489	0.00072
1604.40652	0.00041
1602.47815	0.00036
1600.54977	0.00050
1598.62140	0.00037
1596.69303	0.00026
1594.76465	0.00048
1592.83628	0.00067
1590.90791	0.00060
1588.97953	0.00039
1587.05116	0.00035
1585.12279	0.00019
1583.19441	0.00023
1581.26604	0.00042
1579.33767	0.00076
1577.40929	0.00110
1575.48092	0.00103
1573.55255	0.00069
1571.62418	0.00062
1569.69580	0.00066
1567.76743	0.00037
1565.83906	0.00046
1563.91068	0.00040
1561.98231	0.00055
1560.05394	0.00114
1558.12556	0.00124
1556.19719	0.00092
1554.26882	0.00049
1552.34044	0.00047
1550.41207	0.00093
1548.48370	0.00096
1546.55532	0.00061
1544.62695	0.00050
1542.69858	0.00093
1540.77020	0.00172
1538.84183	0.00182
1536.91346	0.00122
1534.98508	0.00048
1533.05671	0.00035
1531.12834	0.00048
1529.19996	0.00072
1527.27159	0.00086
1525.34322	0.00085
1523.41484	0.00077
1521.48647	0.00049
1519.55810	0.00052
1517.62972	0.00051
1515.70135	0.00026
1513.77298	0.00043
1511.84461	0.00042
1509.91623	0.00035
1507.98786	0.00096
1506.05949	0.00111
1504.13111	0.00069
1502.20274	0.00051
1500.27437	0.00089
1498.34599	0.00113
1496.41762	0.00084
1494.48925	0.00048
1492.56087	0.00056
1490.63250	0.00107
1488.70413	0.00157
1486.77575	0.00160
1484.84738	0.00129
1482.91901	0.00095
1480.99063	0.00078
1479.06226	0.00091
1477.13389	0.00126
1475.20551	0.00161
1473.27714	0.00157
1471.34877	0.00110
1469.42039	0.00072
1467.49202	0.00060
1465.56365	0.00083
1463.63527	0.00059
1461.70690	0.00067
1459.77853	0.00069
1457.85016	0.00053
1455.92178	0.00102
1453.99341	0.00073
1452.06504	0.00052
1450.13666	0.00063
1448.20829	0.00067
1446.27992	0.00060
1444.35154	0.00064
1442.42317	0.00062
1440.49480	0.00073
1438.56642	0.00084
1436.63805	0.00080
1434.70968	0.00079
1432.78130	0.00090
1430.85293	0.00088
1428.92456	0.00048
1426.99618	0.00025
1425.06781	0.00024
1423.13944	0.00036
1421.21106	0.00038
1419.28269	0.00083
1417.35432	0.00074
1415.42594	0.00036
1413.49757	0.00068
1411.56920	0.00057
1409.64082	0.00031
1407.71245	0.00060
1405.78408	0.00061
1403.85570	0.00093
1401.92733	0.00081
1399.99896	0.00048
1398.07059	0.00087
1396.14221	0.00104
1394.21384	0.00082
1392.28547	0.00063
1390.35709	0.00053
1388.42872	0.00030
1386.50035	0.00015
1384.57197	0.00012
1382.64360	0.00019
1380.71523	0.00039
1378.78685	0.00065
1376.85848	0.00079
1374.93011	0.00067
1373.00173	0.00060
1371.07336	0.00064
1369.14499	0.00044
1367.21661	0.00043
1365.28824	0.00036
1363.35987	0.00052
1361.43149	0.00095
1359.50312	0.00082
1357.57475	0.00068
1355.64637	0.00095
1353.71800	0.00072
1351.78963	0.00076
1349.86125	0.00112
1347.93288	0.00111
1346.00451	0.00103
1344.07614	0.00085
1342.14776	0.00079
1340.21939	0.00083
1338.29102	0.00077
1336.36264	0.00060
1334.43427	0.00042
1332.50590	0.00051
1330.57752	0.00044
1328.64915	0.00041
1326.72078	0.00076
1324.79240	0.00076
1322.86403	0.00046
1320.93566	0.00025
1319.00728	0.00043
1317.07891	0.00090
1315.15054	0.00091
1313.22216	0.00070
1311.29379	0.00079
1309.36542	0.00120
1307.43704	0.00124
1305.50867	0.00136
1303.58030	0.00169
1301.65192	0.00175
1299.72355	0.00170
1297.79518	0.00190
1295.86680	0.00213
1293.93843	0.00186
1292.01006	0.00147
1290.08168	0.00130
1288.15331	0.00148
1286.22494	0.00188
1284.29657	0.00178
1282.36819	0.00148
1280.43982	0.00168
1278.51145	0.00218
1276.58307	0.00212
1274.65470	0.00153
1272.72633	0.00101
1270.79795	0.00086
1268.86958	0.00117
1266.94121	0.00131
1265.01283	0.00110
1263.08446	0.00110
1261.15609	0.00181
1259.22771	0.00238
1257.29934	0.00251
1255.37097	0.00242
1253.44259	0.00222
1251.51422	0.00217
1249.58585	0.00229
1247.65747	0.00221
1245.72910	0.00208
1243.80073	0.00183
1241.87235	0.00147
1239.94398	0.00145
1238.01561	0.00184
1236.08723	0.00220
1234.15886	0.00233
1232.23049	0.00215
1230.30212	0.00166
1228.37374	0.00151
1226.44537	0.00225
1224.51700	0.00332
1222.58862	0.00348
1220.66025	0.00360
1218.73188	0.00410
1216.80350	0.00393
1214.87513	0.00292
1212.94676	0.00236
1211.01838	0.00304
1209.09001	0.00422
1207.16164	0.00487
1205.23326	0.00471
1203.30489	0.00413
1201.37652	0.00410
1199.44814	0.00517
1197.51977	0.00649
1195.59140	0.00733
1193.66302	0.00827
1191.73465	0.00967
1189.80628	0.01079
1187.87790	0.01124
1185.94953	0.01096
1184.02116	0.00994
1182.09278	0.00844
1180.16441	0.00731
1178.23604	0.00697
1176.30766	0.00703
1174.37929	0.00652
1172.45092	0.00495
1170.52255	0.00337
1168.59417	0.00276
1166.66580	0.00227
1164.73743	0.00234
1162.80905	0.00273
1160.88068	0.00184
1158.95231	0.00102
1157.02393	0.00190
1155.09556	0.00195
1153.16719	0.00230
1151.23881	0.00303
1149.31044	0.00374
1147.38207	0.00431
1145.45369	0.00458
1143.52532	0.00531
1141.59695	0.00621
1139.66857	0.00630
1137.74020	0.00587
1135.81183	0.00507
1133.88345	0.00356
1131.95508	0.00210
1130.02671	0.00083
1128.09833	0.00106
1126.16996	0.00188
1124.24159	0.00194
1122.31321	0.00180
1120.38484	0.00204
1118.45647	0.00196
1116.52809	0.00219
1114.59972	0.00152
1112.67135	0.00102
1110.74298	0.00168
1108.81460	0.00236
1106.88623	0.00204
1104.95786	0.00217
1103.02948	0.00248
1101.10111	0.00249
1099.17274	0.00206
1097.24436	0.00167
1095.31599	0.00185
1093.38762	0.00207
1091.45924	0.00184
1089.53087	0.00148
1087.60250	0.00163
1085.67412	0.00160
1083.74575	0.00142
1081.81738	0.00158
1079.88900	0.00138
1077.96063	0.00098
1076.03226	0.00146
1074.10388	0.00132
1072.17551	0.00117
1070.24714	0.00190
1068.31876	0.00209
1066.39039	0.00143
1064.46202	0.00062
1062.53364	0.00158
1060.60527	0.00275
1058.67690	0.00280
1056.74853	0.00177
1054.82015	0.00106
1052.89178	0.00122
1050.96341	0.00118
1049.03503	0.00180
1047.10666	0.00226
1045.17829	0.00217
1043.24991	0.00186
1041.32154	0.00150
1039.39317	0.00281
1037.46479	0.00390
1035.53642	0.00298
1033.60805	0.00138
1031.67967	0.00081
1029.75130	0.00118
1027.82293	0.00149
1025.89455	0.00154
1023.96618	0.00103
1022.03781	0.00075
1020.10943	0.00065
1018.18106	0.00074
1016.25269	0.00128
1014.32431	0.00112
1012.39594	0.00096
1010.46757	0.00162
1008.53919	0.00202
1006.61082	0.00291
1004.68245	0.00334
1002.75407	0.00356
1000.82570	0.00389
998.89733	0.00428
996.96896	0.00503
995.04058	0.00611
993.11221	0.00664
991.18384	0.00682
989.25546	0.00744
987.32709	0.00817
985.39872	0.00854
983.47034	0.00890
981.54197	0.00944
979.61360	0.00993
977.68522	0.01039
975.75685	0.01125
973.82848	0.01295
971.90010	0.01580
969.97173	0.01934
968.04336	0.02262
966.11498	0.02494
964.18661	0.02611
962.25824	0.02628
960.32986	0.02498
958.40149	0.02176
956.47312	0.01790
954.54474	0.01565
952.61637	0.01604
950.68800	0.01837
948.75962	0.02167
946.83125	0.02518
944.90288	0.02819
942.97451	0.03061
941.04613	0.03262
939.11776	0.03416
937.18939	0.03493
935.26101	0.03483
933.33264	0.03445
931.40427	0.03427
929.47589	0.03378
927.54752	0.03250
925.61915	0.03137
923.69077	0.03100
921.76240	0.03091
919.83403	0.03072
917.90565	0.03001
915.97728	0.02860
914.04891	0.02686
912.12053	0.02536
910.19216	0.02419
908.26379	0.02270
906.33541	0.02036
904.40704	0.01771
902.47867	0.01584
900.55029	0.01464
898.62192	0.01369
896.69355	0.01308
894.76517	0.01275
892.83680	0.01230
890.90843	0.01153
888.98005	0.01063
887.05168	0.00962
885.12331	0.00840
883.19494	0.00761
881.26656	0.00735
879.33819	0.00717
877.40982	0.00738
875.48144	0.00810
873.55307	0.00810
871.62470	0.00727
869.69632	0.00646
867.76795	0.00605
865.83958	0.00594
863.91120	0.00609
861.98283	0.00645
860.05446	0.00703
858.12608	0.00711
856.19771	0.00659
854.26934	0.00626
852.34096	0.00585
850.41259	0.00520
848.48422	0.00502
846.55584	0.00566
844.62747	0.00643
842.69910	0.00639
840.77072	0.00570
838.84235	0.00534
836.91398	0.00512
834.98560	0.00421
833.05723	0.00279
831.12886	0.00156
829.20049	0.00150
827.27211	0.00160
825.34374	0.00144
823.41537	0.00159
821.48699	0.00307
819.55862	0.00395
817.63025	0.00415
815.70187	0.00421
813.77350	0.00486
811.84513	0.00549
809.91675	0.00516
807.98838	0.00333
806.06001	0.00128
804.13163	0.00133
802.20326	0.00201
800.27489	0.00163
798.34651	0.00147
796.41814	0.00212
794.48977	0.00230
792.56139	0.00282
790.63302	0.00194
788.70465	0.00243
786.77627	0.00303
784.84790	0.00203
782.91953	0.00038
780.99115	0.00223
779.06278	0.00321
777.13441	0.00204
775.20603	0.00146
773.27766	0.00223
771.34929	0.00244
769.42092	0.00227
767.49254	0.00214
765.56417	0.00170
763.63580	0.00181
761.70742	0.00313
759.77905	0.00394
757.85068	0.00421
755.92230	0.00340
753.99393	0.00248
752.06556	0.00243
750.13718	0.00232
748.20881	0.00198
746.28044	0.00116
744.35206	0.00142
742.42369	0.00200
740.49532	0.00173
738.56694	0.00212
736.63857	0.00233
734.71020	0.00146
732.78182	0.00126
730.85345	0.00275
728.92508	0.00321
726.99670	0.00347
725.06833	0.00354
723.13996	0.00349
721.21158	0.00325
719.28321	0.00173
717.35484	0.00080
715.42647	0.00058
713.49809	0.00121
711.56972	0.00177
709.64135	0.00178
707.71297	0.00162
705.78460	0.00385
703.85623	0.00546
701.92785	0.00532
699.99948	0.00397
698.07111	0.00262
696.14273	0.00301
694.21436	0.00163
692.28599	0.00433
690.35761	0.00633
688.42924	0.00460
686.50087	0.00313
684.57249	0.00422
682.64412	0.00474
680.71575	0.00317
678.78737	0.00429
676.85900	0.00672
674.93063	0.00698
673.00225	0.00695
671.07388	0.00738
669.14551	0.00697
667.21713	0.00782
665.28876	0.00806
663.36039	0.00712
661.43201	0.00503
659.50364	0.00297
657.57527	0.00341
655.64690	0.00515
653.71852	0.00731
651.79015	0.00822
649.86178	0.00824
647.93340	0.00709
646.00503	0.00709
644.07666	0.00838
642.14828	0.00753
640.21991	0.00404
638.29154	0.00322
636.36316	0.00344
634.43479	0.00265
632.50642	0.00440
630.57804	0.00442
628.64967	0.00388
626.72130	0.00461
624.79292	0.00706
622.86455	0.00576
620.93618	0.00323
619.00780	0.00411
617.07943	0.00404
615.15106	0.00328
613.22268	0.00438
611.29431	0.00571
609.36594	0.00833
607.43756	0.01026
605.50919	0.01024
603.58082	0.01118
601.65244	0.01165
599.72407	0.00989
