3997.51769	0.73555
3995.58931	0.73538
3993.66094	0.73508
3991.73257	0.73492
3989.80419	0.73530
3987.87582	0.73616
3985.94745	0.73677
3984.01907	0.73660
3982.09070	0.73614
3980.16233	0.73588
3978.23396	0.73554
3976.30558	0.73483
3974.37721	0.73439
3972.44884	0.73474
3970.52046	0.73556
3968.59209	0.73701
3966.66372	0.73883
3964.73534	0.73948
3962.80697	0.73839
3960.87860	0.73759
3958.95022	0.73845
3957.02185	0.74006
3955.09348	0.74148
3953.16510	0.74136
3951.23673	0.73876
3949.30836	0.73616
3947.37998	0.73703
3945.45161	0.73862
3943.52324	0.73767
3941.59486	0.73879
3939.66649	0.74376
3937.73812	0.74743
3935.80974	0.74676
3933.88137	0.74204
3931.95300	0.73785
3930.02462	0.73956
3928.09625	0.74350
3926.16788	0.74327
3924.23950	0.74166
3922.31113	0.74319
3920.38276	0.74394
3918.45439	0.74220
3916.52601	0.74403
3914.59764	0.75152
3912.66927	0.75865
3910.74089	0.76159
3908.81252	0.75976
3906.88415	0.75109
3904.95577	0.73728
3903.02740	0.72764
3901.09903	0.72803
3899.17065	0.73711
3897.24228	0.75078
3895.31391	0.75887
3893.38553	0.75598
3891.45716	0.75167
3889.52879	0.75532
3887.60041	0.75682
3885.67204	0.75193
3883.74367	0.74948
3881.81529	0.74878
3879.88692	0.75193
3877.95855	0.76178
3876.03017	0.76428
3874.10180	0.75655
3872.17343	0.74830
3870.24505	0.74469
3868.31668	0.74912
3866.38831	0.75352
3864.45994	0.75220
3862.53156	0.75622
3860.60319	0.76662
3858.67482	0.77019
3856.74644	0.76164
3854.81807	0.74343
3852.88970	0.73274
3850.96132	0.74942
3849.03295	0.77049
3847.10458	0.77990
3845.17620	0.77671
3843.24783	0.76612
3841.31946	0.75410
3839.39108	0.74494
3837.46271	0.74513
3835.53434	0.75435
3833.60596	0.76340
3831.67759	0.77053
3829.74922	0.77605
3827.82084	0.77712
3825.89247	0.77500
3823.96410	0.76879
3822.03572	0.75509
3820.10735	0.74849
3818.17898	0.75591
3816.25060	0.76425
3814.32223	0.77619
3812.39386	0.78861
3810.46548	0.79099
3808.53711	0.78226
3806.60874	0.77216
3804.68037	0.76700
3802.75199	0.75918
3800.82362	0.75519
3798.89525	0.76254
3796.96687	0.77055
3795.03850	0.77967
3793.11013	0.78977
3791.18175	0.79453
3789.25338	0.79403
3787.32501	0.78999
3785.39663	0.78472
3783.46826	0.78261
3781.53989	0.78022
3779.61151	0.77589
3777.68314	0.77858
3775.75477	0.78615
3773.82639	0.78736
3771.89802	0.77917
3769.96965	0.76891
3768.04127	0.76567
3766.11290	0.76741
3764.18453	0.77046
3762.25615	0.76989
3760.32778	0.76131
3758.39941	0.75361
3756.47103	0.75320
3754.54266	0.74891
3752.61429	0.73312
3750.68591	0.71751
3748.75754	0.71855
3746.82917	0.72236
3744.90080	0.72107
3742.97242	0.72663
3741.04405	0.73492
3739.11568	0.73257
3737.18730	0.71727
3735.25893	0.70139
3733.33056	0.70494
3731.40218	0.72329
3729.47381	0.73608
3727.54544	0.73520
3725.61706	0.72715
3723.68869	0.72177
3721.76032	0.72162
3719.83194	0.72504
3717.90357	0.72823
3715.97520	0.72568
3714.04682	0.71306
3712.11845	0.69405
3710.19008	0.68657
3708.26170	0.69600
3706.33333	0.70507
3704.40496	0.70290
3702.47658	0.69276
3700.54821	0.68659
3698.61984	0.68591
3696.69146	0.68185
3694.76309	0.67130
3692.83472	0.65366
3690.90635	0.63018
3688.97797	0.61310
3687.04960	0.61172
3685.12123	0.61330
3683.19285	0.60678
3681.26448	0.59058
3679.33611	0.56763
3677.40773	0.53975
3675.47936	0.51138
3673.55099	0.49650
3671.62261	0.48647
3669.69424	0.47015
3667.76587	0.45852
3665.83749	0.45131
3663.90912	0.43839
3661.98075	0.42002
3660.05237	0.39956
3658.12400	0.37712
3656.19563	0.35314
3654.26725	0.33230
3652.33888	0.31182
3650.41051	0.28483
3648.48213	0.25914
3646.55376	0.24696
3644.62539	0.24038
3642.69701	0.23057
3640.76864	0.21695
3638.84027	0.20229
3636.91189	0.18803
3634.98352	0.17404
3633.05515	0.16038
3631.12678	0.14694
3629.19840	0.13231
3627.27003	0.12073
3625.34166	0.11445
3623.41328	0.10795
3621.48491	0.09920
3619.55654	0.08916
3617.62816	0.08063
3615.69979	0.07447
3613.77142	0.06858
3611.84304	0.06266
3609.91467	0.05727
3607.98630	0.05233
3606.05792	0.04810
3604.12955	0.04447
3602.20118	0.04060
3600.27280	0.03657
3598.34443	0.03299
3596.41606	0.02978
3594.48768	0.02673
3592.55931	0.02402
3590.63094	0.02175
3588.70256	0.01939
3586.77419	0.01725
3584.84582	0.01577
3582.91744	0.01437
3580.98907	0.01285
3579.06070	0.01144
3577.13233	0.01016
3575.20395	0.00890
3573.27558	0.00793
3571.34721	0.00722
3569.41883	0.00644
3567.49046	0.00545
3565.56209	0.00440
3563.63371	0.00368
3561.70534	0.00320
3559.77697	0.00289
3557.84859	0.00269
3555.92022	0.00246
3553.99185	0.00217
3552.06347	0.00177
3550.13510	0.00122
3548.20673	0.00070
3546.27835	0.00051
3544.34998	0.00051
3542.42161	0.00050
3540.49323	0.00057
3538.56486	0.00068
3536.63649	0.00068
3534.70811	0.00048
3532.77974	0.00054
3530.85137	0.00092
3528.92299	0.00119
3526.99462	0.00126
3525.06625	0.00107
3523.13787	0.00081
3521.20950	0.00087
3519.28113	0.00108
3517.35276	0.00116
3515.42438	0.00107
3513.49601	0.00107
3511.56764	0.00121
3509.63926	0.00116
3507.71089	0.00090
3505.78252	0.00075
3503.85414	0.00088
3501.92577	0.00094
3499.99740	0.00091
3498.06902	0.00099
3496.14065	0.00115
3494.21228	0.00125
3492.28390	0.00112
3490.35553	0.00100
3488.42716	0.00095
3486.49878	0.00084
3484.57041	0.00090
3482.64204	0.00099
3480.71366	0.00114
3478.78529	0.00147
3476.85692	0.00175
3474.92854	0.00164
3473.00017	0.00119
3471.07180	0.00096
3469.14342	0.00098
3467.21505	0.00108
3465.28668	0.00121
3463.35831	0.00112
3461.42993	0.00086
3459.50156	0.00066
3457.57319	0.00073
3455.64481	0.00085
3453.71644	0.00096
3451.78807	0.00116
3449.85969	0.00136
3447.93132	0.00134
3446.00295	0.00112
3444.07457	0.00091
3442.14620	0.00089
3440.21783	0.00104
3438.28945	0.00102
3436.36108	0.00089
3434.43271	0.00081
3432.50433	0.00084
3430.57596	0.00087
3428.64759	0.00093
3426.71921	0.00108
3424.79084	0.00121
3422.86247	0.00127
3420.93409	0.00127
3419.00572	0.00119
3417.07735	0.00106
3415.14897	0.00089
3413.22060	0.00080
3411.29223	0.00080
3409.36385	0.00089
3407.43548	0.00108
3405.50711	0.00124
3403.57874	0.00122
3401.65036	0.00105
3399.72199	0.00102
3397.79362	0.00119
3395.86524	0.00125
3393.93687	0.00106
3392.00850	0.00088
3390.08012	0.00104
3388.15175	0.00125
3386.22338	0.00126
3384.29500	0.00119
3382.36663	0.00100
3380.43826	0.00081
3378.50988	0.00099
3376.58151	0.00132
3374.65314	0.00136
3372.72476	0.00111
3370.79639	0.00083
3368.86802	0.00075
3366.93964	0.00086
3365.01127	0.00094
3363.08290	0.00088
3361.15452	0.00071
3359.22615	0.00105
3357.29778	0.00129
3355.36940	0.00128
3353.44103	0.00115
3351.51266	0.00106
3349.58428	0.00108
3347.65591	0.00114
3345.72754	0.00110
3343.79917	0.00092
3341.87079	0.00086
3339.94242	0.00094
3338.01405	0.00109
3336.08567	0.00128
3334.15730	0.00127
3332.22893	0.00101
3330.30055	0.00080
3328.37218	0.00088
3326.44381	0.00087
3324.51543	0.00069
3322.58706	0.00061
3320.65869	0.00067
3318.73031	0.00073
3316.80194	0.00079
3314.87357	0.00087
3312.94519	0.00093
3311.01682	0.00091
3309.08845	0.00082
3307.16007	0.00082
3305.23170	0.00084
3303.30333	0.00071
3301.37495	0.00068
3299.44658	0.00082
3297.51821	0.00087
3295.58983	0.00087
3293.66146	0.00102
3291.73309	0.00121
3289.80472	0.00118
3287.87634	0.00104
3285.94797	0.00094
3284.01960	0.00091
3282.09122	0.00084
3280.16285	0.00086
3278.23448	0.00100
3276.30610	0.00100
3274.37773	0.00095
3272.44936	0.00085
3270.52098	0.00077
3268.59261	0.00083
3266.66424	0.00093
3264.73586	0.00101
3262.80749	0.00110
3260.87912	0.00128
3258.95074	0.00136
3257.02237	0.00115
3255.09400	0.00093
3253.16562	0.00086
3251.23725	0.00105
3249.30888	0.00137
3247.38050	0.00143
3245.45213	0.00119
3243.52376	0.00105
3241.59538	0.00111
3239.66701	0.00123
3237.73864	0.00128
3235.81026	0.00121
3233.88189	0.00114
3231.95352	0.00114
3230.02515	0.00113
3228.09677	0.00103
3226.16840	0.00095
3224.24003	0.00102
3222.31165	0.00106
3220.38328	0.00100
3218.45491	0.00097
3216.52653	0.00094
3214.59816	0.00096
3212.66979	0.00107
3210.74141	0.00121
3208.81304	0.00127
3206.88467	0.00115
3204.95629	0.00096
3203.02792	0.00081
3201.09955	0.00070
3199.17117	0.00081
3197.24280	0.00087
3195.31443	0.00086
3193.38605	0.00081
3191.45768	0.00087
3189.52931	0.00110
3187.60093	0.00120
3185.67256	0.00104
3183.74419	0.00086
3181.81581	0.00080
3179.88744	0.00090
3177.95907	0.00118
3176.03070	0.00138
3174.10232	0.00138
3172.17395	0.00141
3170.24558	0.00144
3168.31720	0.00139
3166.38883	0.00136
3164.46046	0.00129
3162.53208	0.00101
3160.60371	0.00073
3158.67534	0.00080
3156.74696	0.00092
3154.81859	0.00088
3152.89022	0.00088
3150.96184	0.00114
3149.03347	0.00138
3147.10510	0.00129
3145.17672	0.00108
3143.24835	0.00094
3141.31998	0.00098
3139.39160	0.00102
3137.46323	0.00097
3135.53486	0.00094
3133.60648	0.00096
3131.67811	0.00097
3129.74974	0.00101
3127.82136	0.00118
3125.89299	0.00138
3123.96462	0.00134
3122.03624	0.00119
3120.10787	0.00102
3118.17950	0.00085
3116.25113	0.00065
3114.32275	0.00050
3112.39438	0.00052
3110.46601	0.00081
3108.53763	0.00115
3106.60926	0.00131
3104.68089	0.00109
3102.75251	0.00083
3100.82414	0.00081
3098.89577	0.00074
3096.96739	0.00072
3095.03902	0.00088
3093.11065	0.00112
3091.18227	0.00122
3089.25390	0.00106
3087.32553	0.00094
3085.39715	0.00104
3083.46878	0.00103
3081.54041	0.00090
3079.61203	0.00096
3077.68366	0.00113
3075.75529	0.00106
3073.82691	0.00080
3071.89854	0.00069
3069.97017	0.00080
3068.04179	0.00102
3066.11342	0.00109
3064.18505	0.00087
3062.25668	0.00072
3060.32830	0.00086
3058.39993	0.00096
3056.47156	0.00088
3054.54318	0.00086
3052.61481	0.00105
3050.68644	0.00122
3048.75806	0.00115
3046.82969	0.00102
3044.90132	0.00102
3042.97294	0.00105
3041.04457	0.00102
3039.11620	0.00106
3037.18782	0.00112
3035.25945	0.00102
3033.33108	0.00090
3031.40270	0.00095
3029.47433	0.00113
3027.54596	0.00124
3025.61758	0.00119
3023.68921	0.00115
3021.76084	0.00124
3019.83246	0.00138
3017.90409	0.00140
3015.97572	0.00131
3014.04734	0.00120
3012.11897	0.00102
3010.19060	0.00100
3008.26222	0.00121
3006.33385	0.00130
3004.40548	0.00123
3002.47711	0.00123
3000.54873	0.00126
2998.62036	0.00136
2996.69199	0.00146
2994.76361	0.00149
2992.83524	0.00151
2990.90687	0.00147
2988.97849	0.00139
2987.05012	0.00136
2985.12175	0.00130
2983.19337	0.00121
2981.26500	0.00121
2979.33663	0.00124
2977.40825	0.00123
2975.47988	0.00118
2973.55151	0.00110
2971.62313	0.00119
2969.69476	0.00116
2967.76639	0.00116
2965.83801	0.00128
2963.90964	0.00147
2961.98127	0.00175
2960.05289	0.00196
2958.12452	0.00194
2956.19615	0.00175
2954.26777	0.00153
2952.33940	0.00137
2950.41103	0.00147
2948.48266	0.00168
2946.55428	0.00169
2944.62591	0.00152
2942.69754	0.00147
2940.76916	0.00149
2938.84079	0.00150
2936.91242	0.00150
2934.98404	0.00165
2933.05567	0.00169
2931.12730	0.00150
2929.19892	0.00130
2927.27055	0.00142
2925.34218	0.00154
2923.41380	0.00161
2921.48543	0.00173
2919.55706	0.00171
2917.62868	0.00156
2915.70031	0.00148
2913.77194	0.00156
2911.84356	0.00166
2909.91519	0.00166
2907.98682	0.00160
2906.05844	0.00152
2904.13007	0.00132
2902.20170	0.00111
2900.27332	0.00100
2898.34495	0.00099
2896.41658	0.00099
2894.48820	0.00112
2892.55983	0.00132
2890.63146	0.00139
2888.70309	0.00128
2886.77471	0.00110
2884.84634	0.00123
2882.91797	0.00156
2880.98959	0.00173
2879.06122	0.00167
2877.13285	0.00153
2875.20447	0.00140
2873.27610	0.00135
2871.34773	0.00127
2869.41935	0.00115
2867.49098	0.00116
2865.56261	0.00131
2863.63423	0.00150
2861.70586	0.00166
2859.77749	0.00170
2857.84911	0.00147
2855.92074	0.00115
2853.99237	0.00115
2852.06399	0.00132
2850.13562	0.00130
2848.20725	0.00117
2846.27887	0.00100
2844.35050	0.00087
2842.42213	0.00086
2840.49375	0.00093
2838.56538	0.00097
2836.63701	0.00093
2834.70863	0.00088
2832.78026	0.00080
2830.85189	0.00077
2828.92352	0.00088
2826.99514	0.00096
2825.06677	0.00098
2823.13840	0.00106
2821.21002	0.00120
2819.28165	0.00120
2817.35328	0.00105
2815.42490	0.00093
2813.49653	0.00088
2811.56816	0.00095
2809.63978	0.00106
2807.71141	0.00113
2805.78304	0.00110
2803.85466	0.00100
2801.92629	0.00094
2799.99792	0.00093
2798.06954	0.00087
2796.14117	0.00078
2794.21280	0.00074
2792.28442	0.00079
2790.35605	0.00081
2788.42768	0.00072
2786.49930	0.00066
2784.57093	0.00065
2782.64256	0.00057
2780.71418	0.00053
2778.78581	0.00064
2776.85744	0.00071
2774.92907	0.00078
2773.00069	0.00086
2771.07232	0.00082
2769.14395	0.00066
2767.21557	0.00059
2765.28720	0.00052
2763.35883	0.00046
2761.43045	0.00043
2759.50208	0.00040
2757.57371	0.00032
2755.64533	0.00017
2753.71696	0.00024
2751.78859	0.00039
2749.86021	0.00046
2747.93184	0.00036
2746.00347	0.00033
2744.07509	0.00036
2742.14672	0.00035
2740.21835	0.00024
2738.28997	0.00013
2736.36160	0.00031
2734.43323	0.00033
2732.50485	0.00039
2730.57648	0.00044
2728.64811	0.00056
2726.71973	0.00060
2724.79136	0.00046
2722.86299	0.00045
2720.93461	0.00056
2719.00624	0.00077
2717.07787	0.00082
2715.14950	0.00075
2713.22112	0.00070
2711.29275	0.00067
2709.36438	0.00070
2707.43600	0.00079
2705.50763	0.00088
2703.57926	0.00098
2701.65088	0.00106
2699.72251	0.00115
2697.79414	0.00125
2695.86576	0.00129
2693.93739	0.00128
2692.00902	0.00128
2690.08064	0.00137
2688.15227	0.00148
2686.22390	0.00152
2684.29552	0.00148
2682.36715	0.00146
2680.43878	0.00158
2678.51040	0.00173
2676.58203	0.00179
2674.65366	0.00184
2672.72528	0.00209
2670.79691	0.00238
2668.86854	0.00244
2666.94016	0.00236
2665.01179	0.00239
2663.08342	0.00257
2661.15505	0.00279
2659.22667	0.00297
2657.29830	0.00311
2655.36993	0.00319
2653.44155	0.00333
2651.51318	0.00361
2649.58481	0.00393
2647.65643	0.00420
2645.72806	0.00441
2643.79969	0.00453
2641.87131	0.00462
2639.94294	0.00471
2638.01457	0.00486
2636.08619	0.00513
2634.15782	0.00543
2632.22945	0.00567
2630.30107	0.00593
2628.37270	0.00636
2626.44433	0.00689
2624.51595	0.00733
2622.58758	0.00767
2620.65921	0.00799
2618.73083	0.00826
2616.80246	0.00855
2614.87409	0.00896
2612.94571	0.00950
2611.01734	0.01002
2609.08897	0.01038
2607.16059	0.01073
2605.23222	0.01126
2603.30385	0.01185
2601.37548	0.01239
2599.44710	0.01295
2597.51873	0.01355
2595.59036	0.01415
2593.66198	0.01468
2591.73361	0.01508
2589.80524	0.01549
2587.87686	0.01600
2585.94849	0.01662
2584.02012	0.01730
2582.09174	0.01790
2580.16337	0.01847
2578.23500	0.01912
2576.30662	0.01974
2574.37825	0.02031
2572.44988	0.02091
2570.52150	0.02155
2568.59313	0.02221
2566.66476	0.02288
2564.73638	0.02357
2562.80801	0.02423
2560.87964	0.02490
2558.95126	0.02565
2557.02289	0.02646
2555.09452	0.02717
2553.16614	0.02781
2551.23777	0.02851
2549.30940	0.02924
2547.38103	0.02987
2545.45265	0.03048
2543.52428	0.03113
2541.59591	0.03177
2539.66753	0.03241
2537.73916	0.03311
2535.81079	0.03386
2533.88241	0.03460
2531.95404	0.03531
2530.02567	0.03611
2528.09729	0.03694
2526.16892	0.03766
2524.24055	0.03834
2522.31217	0.03917
2520.38380	0.04013
2518.45543	0.04109
2516.52705	0.04208
2514.59868	0.04299
2512.67031	0.04371
2510.74193	0.04441
2508.81356	0.04525
2506.88519	0.04609
2504.95681	0.04688
2503.02844	0.04768
2501.10007	0.04852
2499.17169	0.04936
2497.24332	0.05014
2495.31495	0.05074
2493.38657	0.05127
2491.45820	0.05192
2489.52983	0.05268
2487.60146	0.05347
2485.67308	0.05423
2483.74471	0.05503
2481.81634	0.05591
2479.88796	0.05678
2477.95959	0.05766
2476.03122	0.05856
2474.10284	0.05947
2472.17447	0.06046
2470.24610	0.06162
2468.31772	0.06285
2466.38935	0.06411
2464.46098	0.06538
2462.53260	0.06657
2460.60423	0.06785
2458.67586	0.06935
2456.74748	0.07087
2454.81911	0.07229
2452.89074	0.07366
2450.96236	0.07504
2449.03399	0.07645
2447.10562	0.07787
2445.17724	0.07924
2443.24887	0.08062
2441.32050	0.08205
2439.39212	0.08344
2437.46375	0.08474
2435.53538	0.08603
2433.60700	0.08742
2431.67863	0.08884
2429.75026	0.09033
2427.82189	0.09184
2425.89351	0.09326
2423.96514	0.09455
2422.03677	0.09580
2420.10839	0.09707
2418.18002	0.09839
2416.25165	0.09977
2414.32327	0.10121
2412.39490	0.10269
2410.46653	0.10425
2408.53815	0.10587
2406.60978	0.10750
2404.68141	0.10915
2402.75303	0.11075
2400.82466	0.11234
2398.89629	0.11411
2396.96791	0.11610
2395.03954	0.11815
2393.11117	0.12001
2391.18279	0.12164
2389.25442	0.12327
2387.32605	0.12499
2385.39767	0.12654
2383.46930	0.12780
2381.54093	0.12892
2379.61255	0.13003
2377.68418	0.13107
2375.75581	0.13194
2373.82744	0.13263
2371.89906	0.13320
2369.97069	0.13385
2368.04232	0.13453
2366.11394	0.13494
2364.18557	0.13545
2362.25720	0.13669
2360.32882	0.13848
2358.40045	0.14061
2356.47208	0.14317
2354.54370	0.14599
2352.61533	0.14891
2350.68696	0.15138
2348.75858	0.15291
2346.83021	0.15355
2344.90184	0.15382
2342.97346	0.15441
2341.04509	0.15537
2339.11672	0.15641
2337.18834	0.15751
2335.25997	0.15868
2333.33160	0.16007
2331.40322	0.16170
2329.47485	0.16324
2327.54648	0.16457
2325.61810	0.16590
2323.68973	0.16747
2321.76136	0.16942
2319.83298	0.17159
2317.90461	0.17378
2315.97624	0.17603
2314.04787	0.17837
2312.11949	0.18072
2310.19112	0.18312
2308.26275	0.18568
2306.33437	0.18831
2304.40600	0.19088
2302.47763	0.19335
2300.54925	0.19573
2298.62088	0.19805
2296.69251	0.20035
2294.76413	0.20257
2292.83576	0.20469
2290.90739	0.20674
2288.97901	0.20878
2287.05064	0.21078
2285.12227	0.21269
2283.19389	0.21452
2281.26552	0.21629
2279.33715	0.21793
2277.40877	0.21947
2275.48040	0.22102
2273.55203	0.22260
2271.62365	0.22420
2269.69528	0.22585
2267.76691	0.22746
2265.83853	0.22888
2263.91016	0.23027
2261.98179	0.23175
2260.05342	0.23331
2258.12504	0.23488
2256.19667	0.23649
2254.26830	0.23821
2252.33992	0.23996
2250.41155	0.24164
2248.48318	0.24323
2246.55480	0.24474
2244.62643	0.24624
2242.69806	0.24773
2240.76968	0.24909
2238.84131	0.25031
2236.91294	0.25148
2234.98456	0.25265
2233.05619	0.25382
2231.12782	0.25502
2229.19944	0.25620
2227.27107	0.25736
2225.34270	0.25862
2223.41432	0.25996
2221.48595	0.26127
2219.55758	0.26251
2217.62920	0.26375
2215.70083	0.26508
2213.77246	0.26651
2211.84408	0.26802
2209.91571	0.26947
2207.98734	0.27080
2206.05896	0.27212
2204.13059	0.27358
2202.20222	0.27510
2200.27385	0.27645
2198.34547	0.27761
2196.41710	0.27880
2194.48873	0.28014
2192.56035	0.28145
2190.63198	0.28257
2188.70361	0.28357
2186.77523	0.28458
2184.84686	0.28565
2182.91849	0.28665
2180.99011	0.28751
2179.06174	0.28829
2177.13337	0.28902
2175.20499	0.28965
2173.27662	0.29012
2171.34825	0.29060
2169.41987	0.29116
2167.49150	0.29175
2165.56313	0.29233
2163.63475	0.29282
2161.70638	0.29321
2159.77801	0.29363
2157.84963	0.29424
2155.92126	0.29508
2153.99289	0.29604
2152.06451	0.29697
2150.13614	0.29787
2148.20777	0.29887
2146.27940	0.30003
2144.35102	0.30130
2142.42265	0.30256
2140.49428	0.30376
2138.56590	0.30495
2136.63753	0.30626
2134.70916	0.30771
2132.78078	0.30928
2130.85241	0.31088
2128.92404	0.31254
2126.99566	0.31430
2125.06729	0.31611
2123.13892	0.31794
2121.21054	0.31985
2119.28217	0.32182
2117.35380	0.32369
2115.42542	0.32543
2113.49705	0.32717
2111.56868	0.32895
2109.64030	0.33070
2107.71193	0.33237
2105.78356	0.33391
2103.85518	0.33532
2101.92681	0.33659
2099.99844	0.33783
2098.07006	0.33912
2096.14169	0.34039
2094.21332	0.34147
2092.28494	0.34228
2090.35657	0.34294
2088.42820	0.34365
2086.49983	0.34448
2084.57145	0.34521
2082.64308	0.34569
2080.71471	0.34598
2078.78633	0.34620
2076.85796	0.34636
2074.92959	0.34640
2073.00121	0.34637
2071.07284	0.34628
2069.14447	0.34607
2067.21609	0.34563
2065.28772	0.34532
2063.35935	0.34555
2061.43097	0.34611
2059.50260	0.34672
2057.57423	0.34742
2055.64585	0.34820
2053.71748	0.34908
2051.78911	0.35008
2049.86073	0.35118
2047.93236	0.35231
2046.00399	0.35341
2044.07561	0.35441
2042.14724	0.35543
2040.21887	0.35676
2038.29049	0.35822
2036.36212	0.35940
2034.43375	0.36033
2032.50538	0.36111
2030.57700	0.36171
2028.64863	0.36222
2026.72026	0.36264
2024.79188	0.36293
2022.86351	0.36308
2020.93514	0.36290
2019.00676	0.36224
2017.07839	0.36196
2015.15002	0.36280
2013.22164	0.36401
2011.29327	0.36484
2009.36490	0.36553
2007.43652	0.36631
2005.50815	0.36718
2003.57978	0.36810
2001.65140	0.36904
1999.72303	0.37001
1997.79466	0.37103
1995.86628	0.37161
1993.93791	0.37115
1992.00954	0.37078
1990.08116	0.37203
1988.15279	0.37414
1986.22442	0.37593
1984.29604	0.37720
1982.36767	0.37794
1980.43930	0.37843
1978.51092	0.37890
1976.58255	0.37935
1974.65418	0.37978
1972.72581	0.38020
1970.79743	0.38020
1968.86906	0.37941
1966.94069	0.37904
1965.01231	0.38018
1963.08394	0.38156
1961.15557	0.38213
1959.22719	0.38232
1957.29882	0.38236
1955.37045	0.38236
1953.44207	0.38269
1951.51370	0.38315
1949.58533	0.38316
1947.65695	0.38241
1945.72858	0.38059
1943.80021	0.37815
1941.87183	0.37755
1939.94346	0.37957
1938.01509	0.38133
1936.08671	0.38147
1934.15834	0.38091
1932.22997	0.38035
1930.30159	0.37996
1928.37322	0.37950
1926.44485	0.37820
1924.51647	0.37562
1922.58810	0.37351
1920.65973	0.37275
1918.73135	0.37196
1916.80298	0.37242
1914.87461	0.37442
1912.94624	0.37491
1911.01786	0.37323
1909.08949	0.37165
1907.16112	0.37160
1905.23274	0.37198
1903.30437	0.37168
1901.37600	0.37085
1899.44762	0.36948
1897.51925	0.36721
1895.59088	0.36470
1893.66250	0.36281
1891.73413	0.36012
1889.80576	0.35671
1887.87738	0.35539
1885.94901	0.35527
1884.02064	0.35406
1882.09226	0.35210
1880.16389	0.34980
1878.23552	0.34716
1876.30714	0.34452
1874.37877	0.34151
1872.45040	0.33670
1870.52202	0.32914
1868.59365	0.32245
1866.66528	0.32166
1864.73690	0.32369
1862.80853	0.32359
1860.88016	0.32126
1858.95179	0.31849
1857.02341	0.31612
1855.09504	0.31389
1853.16667	0.31151
1851.23829	0.30872
1849.30992	0.30496
1847.38155	0.29989
1845.45317	0.29420
1843.52480	0.29175
1841.59643	0.29384
1839.66805	0.29525
1837.73968	0.29394
1835.81131	0.29208
1833.88293	0.28979
1831.95456	0.28487
1830.02619	0.27894
1828.09781	0.27623
1826.16944	0.27508
1824.24107	0.27370
1822.31269	0.27297
1820.38432	0.27114
1818.45595	0.26723
1816.52757	0.26257
1814.59920	0.25729
1812.67083	0.25043
1810.74245	0.24302
1808.81408	0.23711
1806.88571	0.23186
1804.95733	0.22512
1803.02896	0.21628
1801.10059	0.20666
1799.17222	0.19857
1797.24384	0.19171
1795.31547	0.18370
1793.38710	0.17355
1791.45872	0.16421
1789.53035	0.15870
1787.60198	0.15374
1785.67360	0.14671
1783.74523	0.13886
1781.81686	0.13137
1779.88848	0.12435
1777.96011	0.11788
1776.03174	0.11098
1774.10336	0.10250
1772.17499	0.09336
1770.24662	0.08633
1768.31824	0.08084
1766.38987	0.07472
1764.46150	0.06755
1762.53312	0.05875
1760.60475	0.04941
1758.67638	0.04116
1756.74800	0.03291
1754.81963	0.02508
1752.89126	0.01836
1750.96288	0.01205
1749.03451	0.00677
1747.10614	0.00345
1745.17777	0.00148
1743.24939	0.00029
1741.32102	0.00066
1739.39265	0.00110
1737.46427	0.00124
1735.53590	0.00145
1733.60753	0.00164
1731.67915	0.00143
1729.75078	0.00122
1727.82241	0.00122
1725.89403	0.00131
1723.96566	0.00139
1722.03729	0.00146
1720.10891	0.00155
1718.18054	0.00161
1716.25217	0.00155
1714.32379	0.00139
1712.39542	0.00133
1710.46705	0.00132
1708.53867	0.00137
1706.61030	0.00146
1704.68193	0.00150
1702.75355	0.00150
1700.82518	0.00143
1698.89681	0.00132
1696.96843	0.00132
1695.04006	0.00138
1693.11169	0.00139
1691.18331	0.00137
1689.25494	0.00137
1687.32657	0.00140
1685.39820	0.00155
1683.46982	0.00159
1681.54145	0.00143
1679.61308	0.00124
1677.68470	0.00120
1675.75633	0.00128
1673.82796	0.00128
1671.89958	0.00127
1669.97121	0.00131
1668.04284	0.00123
1666.11446	0.00111
1664.18609	0.00117
1662.25772	0.00128
1660.32934	0.00124
1658.40097	0.00112
1656.47260	0.00116
1654.54422	0.00151
1652.61585	0.00171
1650.68748	0.00142
1648.75910	0.00133
1646.83073	0.00142
1644.90236	0.00126
1642.97398	0.00101
1641.04561	0.00095
1639.11724	0.00103
1637.18886	0.00117
1635.26049	0.00124
1633.33212	0.00111
1631.40375	0.00100
1629.47537	0.00096
1627.54700	0.00093
1625.61863	0.00099
1623.69025	0.00113
1621.76188	0.00117
1619.83351	0.00116
1617.90513	0.00125
1615.97676	0.00131
1614.04839	0.00126
1612.12001	0.00123
1610.19164	0.00125
1608.26327	0.00130
1606.33489	0.00131
1604.40652	0.00125
1602.47815	0.00117
1600.54977	0.00119
1598.62140	0.00122
1596.69303	0.00117
1594.76465	0.00106
1592.83628	0.00100
1590.90791	0.00100
1588.97953	0.00102
1587.05116	0.00099
1585.12279	0.00094
1583.19441	0.00094
1581.26604	0.00095
1579.33767	0.00094
1577.40929	0.00106
1575.48092	0.00114
1573.55255	0.00103
1571.62418	0.00106
1569.69580	0.00125
1567.76743	0.00130
1565.83906	0.00123
1563.91068	0.00114
1561.98231	0.00120
1560.05394	0.00138
1558.12556	0.00134
1556.19719	0.00122
1554.26882	0.00130
1552.34044	0.00139
1550.41207	0.00133
1548.48370	0.00118
1546.55532	0.00115
1544.62695	0.00134
1542.69858	0.00165
1540.77020	0.00187
1538.84183	0.00177
1536.91346	0.00151
1534.98508	0.00141
1533.05671	0.00141
1531.12834	0.00136
1529.19996	0.00128
1527.27159	0.00132
1525.34322	0.00155
1523.41484	0.00184
1521.48647	0.00188
1519.55810	0.00159
1517.62972	0.00134
1515.70135	0.00129
1513.77298	0.00138
1511.84461	0.00149
1509.91623	0.00161
1507.98786	0.00174
1506.05949	0.00171
1504.13111	0.00146
1502.20274	0.00133
1500.27437	0.00132
1498.34599	0.00136
1496.41762	0.00134
1494.48925	0.00121
1492.56087	0.00119
1490.63250	0.00142
1488.70413	0.00156
1486.77575	0.00137
1484.84738	0.00115
1482.91901	0.00099
1480.99063	0.00089
1479.06226	0.00094
1477.13389	0.00113
1475.20551	0.00135
1473.27714	0.00156
1471.34877	0.00168
1469.42039	0.00157
1467.49202	0.00144
1465.56365	0.00147
1463.63527	0.00152
1461.70690	0.00157
1459.77853	0.00181
1457.85016	0.00214
1455.92178	0.00203
1453.99341	0.00172
1452.06504	0.00158
1450.13666	0.00151
1448.20829	0.00147
1446.27992	0.00143
1444.35154	0.00145
1442.42317	0.00159
1440.49480	0.00179
1438.56642	0.00191
1436.63805	0.00190
1434.70968	0.00183
1432.78130	0.00183
1430.85293	0.00180
1428.92456	0.00175
1426.99618	0.00181
1425.06781	0.00178
1423.13944	0.00168
1421.21106	0.00174
1419.28269	0.00191
1417.35432	0.00193
1415.42594	0.00179
1413.49757	0.00168
1411.56920	0.00163
1409.64082	0.00164
1407.71245	0.00175
1405.78408	0.00182
1403.85570	0.00177
1401.92733	0.00176
1399.99896	0.00186
1398.07059	0.00189
1396.14221	0.00184
1394.21384	0.00195
1392.28547	0.00212
1390.35709	0.00223
1388.42872	0.00231
1386.50035	0.00241
1384.57197	0.00246
1382.64360	0.00233
1380.71523	0.00209
1378.78685	0.00192
1376.85848	0.00188
1374.93011	0.00195
1373.00173	0.00198
1371.07336	0.00195
1369.14499	0.00199
1367.21661	0.00206
1365.28824	0.00202
1363.35987	0.00199
1361.43149	0.00208
1359.50312	0.00221
1357.57475	0.00219
1355.64637	0.00198
1353.71800	0.00181
1351.78963	0.00176
1349.86125	0.00166
1347.93288	0.00155
1346.00451	0.00158
1344.07614	0.00167
1342.14776	0.00178
1340.21939	0.00192
1338.29102	0.00190
1336.36264	0.00169
1334.43427	0.00161
1332.50590	0.00172
1330.57752	0.00178
1328.64915	0.00165
1326.72078	0.00148
1324.79240	0.00150
1322.86403	0.00165
1320.93566	0.00172
1319.00728	0.00175
1317.07891	0.00184
1315.15054	0.00201
1313.22216	0.00224
1311.29379	0.00232
1309.36542	0.00218
1307.43704	0.00204
1305.50867	0.00206
1303.58030	0.00206
1301.65192	0.00190
1299.72355	0.00182
1297.79518	0.00191
1295.86680	0.00193
1293.93843	0.00196
1292.01006	0.00209
1290.08168	0.00209
1288.15331	0.00207
1286.22494	0.00228
1284.29657	0.00249
1282.36819	0.00245
1280.43982	0.00231
1278.51145	0.00228
1276.58307	0.00242
1274.65470	0.00248
1272.72633	0.00240
1270.79795	0.00242
1268.86958	0.00255
1266.94121	0.00266
1265.01283	0.00278
1263.08446	0.00283
1261.15609	0.00270
1259.22771	0.00253
1257.29934	0.00262
1255.37097	0.00289
1253.44259	0.00294
1251.51422	0.00263
1249.58585	0.00235
1247.65747	0.00237
1245.72910	0.00260
1243.80073	0.00278
1241.87235	0.00280
1239.94398	0.00287
1238.01561	0.00302
1236.08723	0.00303
1234.15886	0.00296
1232.23049	0.00298
1230.30212	0.00308
1228.37374	0.00309
1226.44537	0.00305
1224.51700	0.00319
1222.58862	0.00339
1220.66025	0.00348
1218.73188	0.00356
1216.80350	0.00364
1214.87513	0.00364
1212.94676	0.00374
1211.01838	0.00399
1209.09001	0.00425
1207.16164	0.00438
1205.23326	0.00441
1203.30489	0.00437
1201.37652	0.00444
1199.44814	0.00483
1197.51977	0.00553
1195.59140	0.00618
1193.66302	0.00650
1191.73465	0.00685
1189.80628	0.00734
1187.87790	0.00739
1185.94953	0.00694
1184.02116	0.00637
1182.09278	0.00602
1180.16441	0.00588
1178.23604	0.00555
1176.30766	0.00482
1174.37929	0.00413
1172.45092	0.00383
1170.52255	0.00378
1168.59417	0.00380
1166.66580	0.00385
1164.73743	0.00385
1162.80905	0.00382
1160.88068	0.00387
1158.95231	0.00401
1157.02393	0.00407
1155.09556	0.00396
1153.16719	0.00374
1151.23881	0.00364
1149.31044	0.00381
1147.38207	0.00418
1145.45369	0.00440
1143.52532	0.00448
1141.59695	0.00457
1139.66857	0.00450
1137.74020	0.00428
1135.81183	0.00410
1133.88345	0.00396
1131.95508	0.00387
1130.02671	0.00402
1128.09833	0.00450
1126.16996	0.00492
1124.24159	0.00493
1122.31321	0.00461
1120.38484	0.00446
1118.45647	0.00479
1116.52809	0.00512
1114.59972	0.00490
1112.67135	0.00439
1110.74298	0.00411
1108.81460	0.00419
1106.88623	0.00459
1104.95786	0.00496
1103.02948	0.00485
1101.10111	0.00443
1099.17274	0.00414
1097.24436	0.00422
1095.31599	0.00458
1093.38762	0.00467
1091.45924	0.00433
1089.53087	0.00418
1087.60250	0.00454
1085.67412	0.00496
1083.74575	0.00501
1081.81738	0.00482
1079.88900	0.00465
1077.96063	0.00456
1076.03226	0.00464
1074.10388	0.00490
1072.17551	0.00495
1070.24714	0.00456
1068.31876	0.00414
1066.39039	0.00422
1064.46202	0.00460
1062.53364	0.00466
1060.60527	0.00442
1058.67690	0.00419
1056.74853	0.00401
1054.82015	0.00396
1052.89178	0.00420
1050.96341	0.00457
1049.03503	0.00473
1047.10666	0.00462
1045.17829	0.00453
1043.24991	0.00449
1041.32154	0.00428
1039.39317	0.00407
1037.46479	0.00420
1035.53642	0.00457
1033.60805	0.00484
1031.67967	0.00483
1029.75130	0.00460
1027.82293	0.00437
1025.89455	0.00425
1023.96618	0.00405
1022.03781	0.00390
1020.10943	0.00382
1018.18106	0.00379
1016.25269	0.00385
1014.32431	0.00399
1012.39594	0.00397
1010.46757	0.00373
1008.53919	0.00355
1006.61082	0.00364
1004.68245	0.00365
1002.75407	0.00354
1000.82570	0.00359
998.89733	0.00375
996.96896	0.00382
995.04058	0.00385
993.11221	0.00410
991.18384	0.00472
989.25546	0.00550
987.32709	0.00611
985.39872	0.00643
983.47034	0.00656
981.54197	0.00663
979.61360	0.00682
977.68522	0.00724
975.75685	0.00801
973.82848	0.00928
971.90010	0.01125
969.97173	0.01403
968.04336	0.01721
966.11498	0.02014
964.18661	0.02224
962.25824	0.02238
960.32986	0.01965
958.40149	0.01502
956.47312	0.01098
954.54474	0.00919
952.61637	0.00968
950.68800	0.01207
948.75962	0.01593
946.83125	0.02028
944.90288	0.02391
942.97451	0.02656
941.04613	0.02876
939.11776	0.03078
937.18939	0.03247
935.26101	0.03367
933.33264	0.03436
931.40427	0.03469
929.47589	0.03473
927.54752	0.03419
925.61915	0.03296
923.69077	0.03143
921.76240	0.03004
919.83403	0.02918
917.90565	0.02894
915.97728	0.02886
914.04891	0.02840
912.12053	0.02733
910.19216	0.02581
908.26379	0.02381
906.33541	0.02092
904.40704	0.01735
902.47867	0.01431
900.55029	0.01248
898.62192	0.01145
896.69355	0.01071
894.76517	0.01001
892.83680	0.00920
890.90843	0.00859
888.98005	0.00858
887.05168	0.00874
885.12331	0.00852
883.19494	0.00816
881.26656	0.00804
879.33819	0.00810
877.40982	0.00812
875.48144	0.00810
873.55307	0.00795
871.62470	0.00781
869.69632	0.00796
867.76795	0.00819
865.83958	0.00807
863.91120	0.00791
861.98283	0.00790
860.05446	0.00776
858.12608	0.00754
856.19771	0.00758
854.26934	0.00772
852.34096	0.00768
850.41259	0.00751
848.48422	0.00714
846.55584	0.00675
844.62747	0.00671
842.69910	0.00694
840.77072	0.00696
838.84235	0.00667
836.91398	0.00643
834.98560	0.00656
833.05723	0.00682
831.12886	0.00675
829.20049	0.00635
827.27211	0.00607
825.34374	0.00624
823.41537	0.00671
821.48699	0.00716
819.55862	0.00763
817.63025	0.00782
815.70187	0.00752
813.77350	0.00715
811.84513	0.00708
809.91675	0.00716
807.98838	0.00703
806.06001	0.00682
804.13163	0.00682
802.20326	0.00698
800.27489	0.00707
798.34651	0.00705
796.41814	0.00692
794.48977	0.00653
792.56139	0.00597
790.63302	0.00587
788.70465	0.00629
786.77627	0.00689
784.84790	0.00737
782.91953	0.00742
780.99115	0.00693
779.06278	0.00642
777.13441	0.00638
775.20603	0.00650
773.27766	0.00645
771.34929	0.00673
769.42092	0.00741
767.49254	0.00753
765.56417	0.00708
763.63580	0.00696
761.70742	0.00738
759.77905	0.00786
757.85068	0.00801
755.92230	0.00761
753.99393	0.00695
752.06556	0.00683
750.13718	0.00730
748.20881	0.00771
746.28044	0.00784
744.35206	0.00791
742.42369	0.00791
740.49532	0.00768
738.56694	0.00736
736.63857	0.00748
734.71020	0.00797
732.78182	0.00814
730.85345	0.00803
728.92508	0.00820
726.99670	0.00849
725.06833	0.00843
723.13996	0.00822
721.21158	0.00846
719.28321	0.00871
717.35484	0.00836
715.42647	0.00804
713.49809	0.00844
711.56972	0.00917
709.64135	0.00940
707.71297	0.00930
705.78460	0.00928
703.85623	0.00937
701.92785	0.00960
699.99948	0.00990
698.07111	0.00993
696.14273	0.00995
694.21436	0.01003
692.28599	0.00988
690.35761	0.01003
688.42924	0.01070
686.50087	0.01103
684.57249	0.01126
682.64412	0.01209
680.71575	0.01284
678.78737	0.01276
676.85900	0.01234
674.93063	0.01231
673.00225	0.01220
671.07388	0.01283
669.14551	0.01541
667.21713	0.01658
665.28876	0.01467
663.36039	0.01316
661.43201	0.01302
659.50364	0.01400
657.57527	0.01474
655.64690	0.01467
653.71852	0.01473
651.79015	0.01542
649.86178	0.01623
647.93340	0.01641
646.00503	0.01565
644.07666	0.01483
642.14828	0.01549
640.21991	0.01719
638.29154	0.01809
636.36316	0.01807
634.43479	0.01765
632.50642	0.01697
630.57804	0.01691
628.64967	0.01835
626.72130	0.02061
624.79292	0.02192
622.86455	0.02170
620.93618	0.02167
619.00780	0.02292
617.07943	0.02440
615.15106	0.02545
613.22268	0.02683
611.29431	0.02937
609.36594	0.03184
607.43756	0.03151
605.50919	0.02971
603.58082	0.03160
601.65244	0.03882
599.72407	0.04805
