3997.51769	0.12456
3995.58931	0.12499
3993.66094	0.12564
3991.73257	0.12584
3989.80419	0.12560
3987.87582	0.12526
3985.94745	0.12517
3984.01907	0.12523
3982.09070	0.12501
3980.16233	0.12486
3978.23396	0.12531
3976.30558	0.12589
3974.37721	0.12594
3972.44884	0.12584
3970.52046	0.12605
3968.59209	0.12616
3966.66372	0.12594
3964.73534	0.12580
3962.80697	0.12593
3960.87860	0.12623
3958.95022	0.12664
3957.02185	0.12710
3955.09348	0.12753
3953.16510	0.12795
3951.23673	0.12841
3949.30836	0.12873
3947.37998	0.12870
3945.45161	0.12864
3943.52324	0.12900
3941.59486	0.12969
3939.66649	0.13034
3937.73812	0.13067
3935.80974	0.13077
3933.88137	0.13098
3931.95300	0.13130
3930.02462	0.13145
3928.09625	0.13158
3926.16788	0.13184
3924.23950	0.13204
3922.31113	0.13224
3920.38276	0.13267
3918.45439	0.13296
3916.52601	0.13284
3914.59764	0.13288
3912.66927	0.13335
3910.74089	0.13394
3908.81252	0.13447
3906.88415	0.13544
3904.95577	0.13682
3903.02740	0.13759
3901.09903	0.13791
3899.17065	0.13845
3897.24228	0.13849
3895.31391	0.13813
3893.38553	0.13826
3891.45716	0.13864
3889.52879	0.13834
3887.60041	0.13822
3885.67204	0.13900
3883.74367	0.14002
3881.81529	0.14106
3879.88692	0.14156
3877.95855	0.14100
3876.03017	0.14075
3874.10180	0.14145
3872.17343	0.14241
3870.24505	0.14324
3868.31668	0.14365
3866.38831	0.14349
3864.45994	0.14325
3862.53156	0.14315
3860.60319	0.14313
3858.67482	0.14346
3856.74644	0.14452
3854.81807	0.14621
3852.88970	0.14691
3850.96132	0.14569
3849.03295	0.14477
3847.10458	0.14473
3845.17620	0.14543
3843.24783	0.14659
3841.31946	0.14774
3839.39108	0.14864
3837.46271	0.14894
3835.53434	0.14842
3833.60596	0.14783
3831.67759	0.14727
3829.74922	0.14663
3827.82084	0.14645
3825.89247	0.14683
3823.96410	0.14732
3822.03572	0.14798
3820.10735	0.14821
3818.17898	0.14750
3816.25060	0.14655
3814.32223	0.14569
3812.39386	0.14528
3810.46548	0.14549
3808.53711	0.14625
3806.60874	0.14715
3804.68037	0.14765
3802.75199	0.14781
3800.82362	0.14748
3798.89525	0.14694
3796.96687	0.14673
3795.03850	0.14652
3793.11013	0.14633
3791.18175	0.14636
3789.25338	0.14620
3787.32501	0.14583
3785.39663	0.14571
3783.46826	0.14563
3781.53989	0.14532
3779.61151	0.14509
3777.68314	0.14500
3775.75477	0.14490
3773.82639	0.14481
3771.89802	0.14471
3769.96965	0.14459
3768.04127	0.14427
3766.11290	0.14386
3764.18453	0.14353
3762.25615	0.14341
3760.32778	0.14364
3758.39941	0.14385
3756.47103	0.14355
3754.54266	0.14311
3752.61429	0.14311
3750.68591	0.14336
3748.75754	0.14311
3746.82917	0.14272
3744.90080	0.14220
3742.97242	0.14139
3741.04405	0.14097
3739.11568	0.14110
3737.18730	0.14153
3735.25893	0.14144
3733.33056	0.14047
3731.40218	0.13945
3729.47381	0.13859
3727.54544	0.13772
3725.61706	0.13677
3723.68869	0.13565
3721.76032	0.13427
3719.83194	0.13280
3717.90357	0.13194
3715.97520	0.13183
3714.04682	0.13186
3712.11845	0.13140
3710.19008	0.12975
3708.26170	0.12752
3706.33333	0.12574
3704.40496	0.12443
3702.47658	0.12330
3700.54821	0.12184
3698.61984	0.11983
3696.69146	0.11760
3694.76309	0.11557
3692.83472	0.11370
3690.90635	0.11134
3688.97797	0.10791
3687.04960	0.10423
3685.12123	0.10108
3683.19285	0.09787
3681.26448	0.09426
3679.33611	0.09073
3677.40773	0.08767
3675.47936	0.08379
3673.55099	0.07909
3671.62261	0.07542
3669.69424	0.07127
3667.76587	0.06592
3665.83749	0.06113
3663.90912	0.05717
3661.98075	0.05363
3660.05237	0.05018
3658.12400	0.04654
3656.19563	0.04256
3654.26725	0.03937
3652.33888	0.03749
3650.41051	0.03568
3648.48213	0.03231
3646.55376	0.02818
3644.62539	0.02528
3642.69701	0.02326
3640.76864	0.02129
3638.84027	0.01935
3636.91189	0.01759
3634.98352	0.01593
3633.05515	0.01448
3631.12678	0.01332
3629.19840	0.01187
3627.27003	0.01022
3625.34166	0.00911
3623.41328	0.00810
3621.48491	0.00717
3619.55654	0.00655
3617.62816	0.00594
3615.69979	0.00528
3613.77142	0.00492
3611.84304	0.00446
3609.91467	0.00347
3607.98630	0.00284
3606.05792	0.00308
3604.12955	0.00338
3602.20118	0.00323
3600.27280	0.00286
3598.34443	0.00245
3596.41606	0.00186
3594.48768	0.00138
3592.55931	0.00159
3590.63094	0.00160
3588.70256	0.00135
3586.77419	0.00130
3584.84582	0.00097
3582.91744	0.00045
3580.98907	0.00044
3579.06070	0.00068
3577.13233	0.00074
3575.20395	0.00055
3573.27558	0.00060
3571.34721	0.00094
3569.41883	0.00093
3567.49046	0.00066
3565.56209	0.00071
3563.63371	0.00056
3561.70534	0.00105
3559.77697	0.00101
3557.84859	0.00091
3555.92022	0.00086
3553.99185	0.00076
3552.06347	0.00080
3550.13510	0.00104
3548.20673	0.00092
3546.27835	0.00041
3544.34998	0.00064
3542.42161	0.00064
3540.49323	0.00074
3538.56486	0.00100
3536.63649	0.00123
3534.70811	0.00104
3532.77974	0.00103
3530.85137	0.00086
3528.92299	0.00062
3526.99462	0.00067
3525.06625	0.00092
3523.13787	0.00118
3521.20950	0.00077
3519.28113	0.00079
3517.35276	0.00081
3515.42438	0.00068
3513.49601	0.00061
3511.56764	0.00040
3509.63926	0.00031
3507.71089	0.00072
3505.78252	0.00093
3503.85414	0.00115
3501.92577	0.00114
3499.99740	0.00067
3498.06902	0.00053
3496.14065	0.00058
3494.21228	0.00061
3492.28390	0.00073
3490.35553	0.00095
3488.42716	0.00083
3486.49878	0.00086
3484.57041	0.00106
3482.64204	0.00106
3480.71366	0.00084
3478.78529	0.00079
3476.85692	0.00090
3474.92854	0.00106
3473.00017	0.00112
3471.07180	0.00091
3469.14342	0.00039
3467.21505	0.00065
3465.28668	0.00119
3463.35831	0.00141
3461.42993	0.00087
3459.50156	0.00074
3457.57319	0.00054
3455.64481	0.00086
3453.71644	0.00085
3451.78807	0.00086
3449.85969	0.00062
3447.93132	0.00039
3446.00295	0.00065
3444.07457	0.00076
3442.14620	0.00080
3440.21783	0.00065
3438.28945	0.00046
3436.36108	0.00050
3434.43271	0.00046
3432.50433	0.00060
3430.57596	0.00083
3428.64759	0.00055
3426.71921	0.00053
3424.79084	0.00092
3422.86247	0.00112
3420.93409	0.00157
3419.00572	0.00143
3417.07735	0.00081
3415.14897	0.00080
3413.22060	0.00096
3411.29223	0.00083
3409.36385	0.00080
3407.43548	0.00093
3405.50711	0.00069
3403.57874	0.00053
3401.65036	0.00063
3399.72199	0.00069
3397.79362	0.00064
3395.86524	0.00039
3393.93687	0.00032
3392.00850	0.00051
3390.08012	0.00043
3388.15175	0.00073
3386.22338	0.00079
3384.29500	0.00077
3382.36663	0.00065
3380.43826	0.00075
3378.50988	0.00090
3376.58151	0.00074
3374.65314	0.00058
3372.72476	0.00114
3370.79639	0.00110
3368.86802	0.00065
3366.93964	0.00080
3365.01127	0.00121
3363.08290	0.00117
3361.15452	0.00055
3359.22615	0.00028
3357.29778	0.00053
3355.36940	0.00068
3353.44103	0.00072
3351.51266	0.00092
3349.58428	0.00074
3347.65591	0.00038
3345.72754	0.00071
3343.79917	0.00078
3341.87079	0.00102
3339.94242	0.00120
3338.01405	0.00120
3336.08567	0.00079
3334.15730	0.00108
3332.22893	0.00118
3330.30055	0.00082
3328.37218	0.00054
3326.44381	0.00057
3324.51543	0.00094
3322.58706	0.00086
3320.65869	0.00044
3318.73031	0.00066
3316.80194	0.00112
3314.87357	0.00127
3312.94519	0.00120
3311.01682	0.00101
3309.08845	0.00092
3307.16007	0.00092
3305.23170	0.00086
3303.30333	0.00085
3301.37495	0.00063
3299.44658	0.00060
3297.51821	0.00042
3295.58983	0.00006
3293.66146	0.00056
3291.73309	0.00100
3289.80472	0.00103
3287.87634	0.00085
3285.94797	0.00069
3284.01960	0.00046
3282.09122	0.00050
3280.16285	0.00100
3278.23448	0.00103
3276.30610	0.00060
3274.37773	0.00083
3272.44936	0.00116
3270.52098	0.00094
3268.59261	0.00024
3266.66424	0.00053
3264.73586	0.00105
3262.80749	0.00112
3260.87912	0.00080
3258.95074	0.00069
3257.02237	0.00107
3255.09400	0.00148
3253.16562	0.00153
3251.23725	0.00112
3249.30888	0.00077
3247.38050	0.00079
3245.45213	0.00085
3243.52376	0.00057
3241.59538	0.00047
3239.66701	0.00028
3237.73864	0.00044
3235.81026	0.00049
3233.88189	0.00041
3231.95352	0.00055
3230.02515	0.00054
3228.09677	0.00040
3226.16840	0.00054
3224.24003	0.00049
3222.31165	0.00064
3220.38328	0.00070
3218.45491	0.00059
3216.52653	0.00052
3214.59816	0.00042
3212.66979	0.00024
3210.74141	0.00027
3208.81304	0.00062
3206.88467	0.00047
3204.95629	0.00046
3203.02792	0.00088
3201.09955	0.00105
3199.17117	0.00111
3197.24280	0.00074
3195.31443	0.00050
3193.38605	0.00071
3191.45768	0.00050
3189.52931	0.00087
3187.60093	0.00119
3185.67256	0.00121
3183.74419	0.00104
3181.81581	0.00103
3179.88744	0.00100
3177.95907	0.00070
3176.03070	0.00059
3174.10232	0.00072
3172.17395	0.00076
3170.24558	0.00110
3168.31720	0.00117
3166.38883	0.00107
3164.46046	0.00069
3162.53208	0.00072
3160.60371	0.00071
3158.67534	0.00066
3156.74696	0.00072
3154.81859	0.00064
3152.89022	0.00058
3150.96184	0.00092
3149.03347	0.00077
3147.10510	0.00095
3145.17672	0.00143
3143.24835	0.00125
3141.31998	0.00101
3139.39160	0.00078
3137.46323	0.00051
3135.53486	0.00055
3133.60648	0.00092
3131.67811	0.00086
3129.74974	0.00073
3127.82136	0.00071
3125.89299	0.00064
3123.96462	0.00097
3122.03624	0.00115
3120.10787	0.00137
3118.17950	0.00138
3116.25113	0.00100
3114.32275	0.00124
3112.39438	0.00140
3110.46601	0.00123
3108.53763	0.00072
3106.60926	0.00039
3104.68089	0.00051
3102.75251	0.00078
3100.82414	0.00051
3098.89577	0.00046
3096.96739	0.00072
3095.03902	0.00083
3093.11065	0.00076
3091.18227	0.00058
3089.25390	0.00066
3087.32553	0.00061
3085.39715	0.00043
3083.46878	0.00053
3081.54041	0.00057
3079.61203	0.00043
3077.68366	0.00056
3075.75529	0.00090
3073.82691	0.00091
3071.89854	0.00071
3069.97017	0.00055
3068.04179	0.00031
3066.11342	0.00053
3064.18505	0.00081
3062.25668	0.00079
3060.32830	0.00069
3058.39993	0.00076
3056.47156	0.00066
3054.54318	0.00088
3052.61481	0.00123
3050.68644	0.00093
3048.75806	0.00110
3046.82969	0.00068
3044.90132	0.00058
3042.97294	0.00089
3041.04457	0.00076
3039.11620	0.00089
3037.18782	0.00093
3035.25945	0.00078
3033.33108	0.00081
3031.40270	0.00088
3029.47433	0.00056
3027.54596	0.00075
3025.61758	0.00044
3023.68921	0.00073
3021.76084	0.00085
3019.83246	0.00067
3017.90409	0.00081
3015.97572	0.00088
3014.04734	0.00062
3012.11897	0.00061
3010.19060	0.00098
3008.26222	0.00081
3006.33385	0.00071
3004.40548	0.00072
3002.47711	0.00064
3000.54873	0.00117
2998.62036	0.00127
2996.69199	0.00098
2994.76361	0.00090
2992.83524	0.00121
2990.90687	0.00115
2988.97849	0.00086
2987.05012	0.00065
2985.12175	0.00087
2983.19337	0.00094
2981.26500	0.00123
2979.33663	0.00109
2977.40825	0.00050
2975.47988	0.00064
2973.55151	0.00076
2971.62313	0.00060
2969.69476	0.00055
2967.76639	0.00079
2965.83801	0.00171
2963.90964	0.00216
2961.98127	0.00205
2960.05289	0.00143
2958.12452	0.00058
2956.19615	0.00109
2954.26777	0.00103
2952.33940	0.00049
2950.41103	0.00057
2948.48266	0.00038
2946.55428	0.00101
2944.62591	0.00122
2942.69754	0.00101
2940.76916	0.00076
2938.84079	0.00058
2936.91242	0.00039
2934.98404	0.00063
2933.05567	0.00074
2931.12730	0.00073
2929.19892	0.00080
2927.27055	0.00080
2925.34218	0.00031
2923.41380	0.00048
2921.48543	0.00089
2919.55706	0.00097
2917.62868	0.00092
2915.70031	0.00073
2913.77194	0.00104
2911.84356	0.00115
2909.91519	0.00136
2907.98682	0.00125
2906.05844	0.00090
2904.13007	0.00049
2902.20170	0.00039
2900.27332	0.00041
2898.34495	0.00043
2896.41658	0.00059
2894.48820	0.00061
2892.55983	0.00060
2890.63146	0.00093
2888.70309	0.00145
2886.77471	0.00202
2884.84634	0.00202
2882.91797	0.00108
2880.98959	0.00043
2879.06122	0.00083
2877.13285	0.00100
2875.20447	0.00107
2873.27610	0.00062
2871.34773	0.00058
2869.41935	0.00090
2867.49098	0.00072
2865.56261	0.00059
2863.63423	0.00073
2861.70586	0.00093
2859.77749	0.00071
2857.84911	0.00033
2855.92074	0.00073
2853.99237	0.00121
2852.06399	0.00129
2850.13562	0.00098
2848.20725	0.00086
2846.27887	0.00117
2844.35050	0.00154
2842.42213	0.00129
2840.49375	0.00073
2838.56538	0.00050
2836.63701	0.00065
2834.70863	0.00084
2832.78026	0.00073
2830.85189	0.00050
2828.92352	0.00032
2826.99514	0.00057
2825.06677	0.00062
2823.13840	0.00045
2821.21002	0.00048
2819.28165	0.00057
2817.35328	0.00065
2815.42490	0.00058
2813.49653	0.00032
2811.56816	0.00045
2809.63978	0.00048
2807.71141	0.00071
2805.78304	0.00075
2803.85466	0.00074
2801.92629	0.00071
2799.99792	0.00033
2798.06954	0.00036
2796.14117	0.00044
2794.21280	0.00038
2792.28442	0.00044
2790.35605	0.00072
2788.42768	0.00071
2786.49930	0.00058
2784.57093	0.00070
2782.64256	0.00101
2780.71418	0.00120
2778.78581	0.00079
2776.85744	0.00070
2774.92907	0.00059
2773.00069	0.00057
2771.07232	0.00056
2769.14395	0.00047
2767.21557	0.00054
2765.28720	0.00053
2763.35883	0.00055
2761.43045	0.00067
2759.50208	0.00087
2757.57371	0.00091
2755.64533	0.00075
2753.71696	0.00071
2751.78859	0.00063
2749.86021	0.00059
2747.93184	0.00060
2746.00347	0.00035
2744.07509	0.00048
2742.14672	0.00058
2740.21835	0.00041
2738.28997	0.00056
2736.36160	0.00047
2734.43323	0.00055
2732.50485	0.00032
2730.57648	0.00039
2728.64811	0.00062
2726.71973	0.00068
2724.79136	0.00061
2722.86299	0.00051
2720.93461	0.00036
2719.00624	0.00046
2717.07787	0.00068
2715.14950	0.00048
2713.22112	0.00059
2711.29275	0.00082
2709.36438	0.00054
2707.43600	0.00042
2705.50763	0.00061
2703.57926	0.00075
2701.65088	0.00066
2699.72251	0.00091
2697.79414	0.00092
2695.86576	0.00089
2693.93739	0.00088
2692.00902	0.00070
2690.08064	0.00076
2688.15227	0.00077
2686.22390	0.00086
2684.29552	0.00108
2682.36715	0.00088
2680.43878	0.00057
2678.51040	0.00053
2676.58203	0.00068
2674.65366	0.00074
2672.72528	0.00093
2670.79691	0.00102
2668.86854	0.00080
2666.94016	0.00045
2665.01179	0.00045
2663.08342	0.00043
2661.15505	0.00056
2659.22667	0.00097
2657.29830	0.00106
2655.36993	0.00074
2653.44155	0.00063
2651.51318	0.00089
2649.58481	0.00096
2647.65643	0.00071
2645.72806	0.00064
2643.79969	0.00101
2641.87131	0.00097
2639.94294	0.00075
2638.01457	0.00060
2636.08619	0.00050
2634.15782	0.00064
2632.22945	0.00084
2630.30107	0.00087
2628.37270	0.00099
2626.44433	0.00124
2624.51595	0.00114
2622.58758	0.00101
2620.65921	0.00107
2618.73083	0.00105
2616.80246	0.00119
2614.87409	0.00131
2612.94571	0.00121
2611.01734	0.00114
2609.08897	0.00124
2607.16059	0.00118
2605.23222	0.00090
2603.30385	0.00065
2601.37548	0.00072
2599.44710	0.00100
2597.51873	0.00118
2595.59036	0.00120
2593.66198	0.00126
2591.73361	0.00143
2589.80524	0.00165
2587.87686	0.00183
2585.94849	0.00187
2584.02012	0.00176
2582.09174	0.00181
2580.16337	0.00202
2578.23500	0.00226
2576.30662	0.00240
2574.37825	0.00234
2572.44988	0.00219
2570.52150	0.00222
2568.59313	0.00242
2566.66476	0.00249
2564.73638	0.00230
2562.80801	0.00222
2560.87964	0.00254
2558.95126	0.00287
2557.02289	0.00286
2555.09452	0.00284
2553.16614	0.00301
2551.23777	0.00331
2549.30940	0.00345
2547.38103	0.00347
2545.45265	0.00362
2543.52428	0.00389
2541.59591	0.00399
2539.66753	0.00380
2537.73916	0.00370
2535.81079	0.00387
2533.88241	0.00415
2531.95404	0.00424
2530.02567	0.00410
2528.09729	0.00408
2526.16892	0.00440
2524.24055	0.00474
2522.31217	0.00478
2520.38380	0.00467
2518.45543	0.00472
2516.52705	0.00514
2514.59868	0.00563
2512.67031	0.00569
2510.74193	0.00543
2508.81356	0.00532
2506.88519	0.00541
2504.95681	0.00546
2503.02844	0.00548
2501.10007	0.00556
2499.17169	0.00576
2497.24332	0.00609
2495.31495	0.00639
2493.38657	0.00654
2491.45820	0.00651
2489.52983	0.00641
2487.60146	0.00653
2485.67308	0.00682
2483.74471	0.00694
2481.81634	0.00699
2479.88796	0.00720
2477.95959	0.00745
2476.03122	0.00762
2474.10284	0.00773
2472.17447	0.00780
2470.24610	0.00785
2468.31772	0.00795
2466.38935	0.00813
2464.46098	0.00843
2462.53260	0.00882
2460.60423	0.00904
2458.67586	0.00905
2456.74748	0.00903
2454.81911	0.00918
2452.89074	0.00950
2450.96236	0.00985
2449.03399	0.01016
2447.10562	0.01036
2445.17724	0.01048
2443.24887	0.01077
2441.32050	0.01119
2439.39212	0.01135
2437.46375	0.01130
2435.53538	0.01138
2433.60700	0.01163
2431.67863	0.01204
2429.75026	0.01249
2427.82189	0.01267
2425.89351	0.01244
2423.96514	0.01226
2422.03677	0.01247
2420.10839	0.01292
2418.18002	0.01349
2416.25165	0.01401
2414.32327	0.01414
2412.39490	0.01413
2410.46653	0.01444
2408.53815	0.01486
2406.60978	0.01513
2404.68141	0.01549
2402.75303	0.01590
2400.82466	0.01606
2398.89629	0.01620
2396.96791	0.01665
2395.03954	0.01715
2393.11117	0.01749
2391.18279	0.01776
2389.25442	0.01801
2387.32605	0.01832
2385.39767	0.01884
2383.46930	0.01932
2381.54093	0.01952
2379.61255	0.01972
2377.68418	0.02018
2375.75581	0.02060
2373.82744	0.02071
2371.89906	0.02088
2369.97069	0.02117
2368.04232	0.02107
2366.11394	0.02111
2364.18557	0.02199
2362.25720	0.02305
2360.32882	0.02408
2358.40045	0.02473
2356.47208	0.02470
2354.54370	0.02482
2352.61533	0.02501
2350.68696	0.02482
2348.75858	0.02461
2346.83021	0.02469
2344.90184	0.02484
2342.97346	0.02465
2341.04509	0.02490
2339.11672	0.02595
2337.18834	0.02643
2335.25997	0.02590
2333.33160	0.02605
2331.40322	0.02714
2329.47485	0.02784
2327.54648	0.02787
2325.61810	0.02737
2323.68973	0.02663
2321.76136	0.02646
2319.83298	0.02685
2317.90461	0.02715
2315.97624	0.02722
2314.04787	0.02728
2312.11949	0.02771
2310.19112	0.02832
2308.26275	0.02865
2306.33437	0.02892
2304.40600	0.02954
2302.47763	0.03024
2300.54925	0.03062
2298.62088	0.03092
2296.69251	0.03150
2294.76413	0.03207
2292.83576	0.03224
2290.90739	0.03229
2288.97901	0.03271
2287.05064	0.03325
2285.12227	0.03355
2283.19389	0.03375
2281.26552	0.03400
2279.33715	0.03427
2277.40877	0.03449
2275.48040	0.03466
2273.55203	0.03492
2271.62365	0.03521
2269.69528	0.03534
2267.76691	0.03542
2265.83853	0.03570
2263.91016	0.03602
2261.98179	0.03612
2260.05342	0.03622
2258.12504	0.03657
2256.19667	0.03697
2254.26830	0.03721
2252.33992	0.03742
2250.41155	0.03773
2248.48318	0.03817
2246.55480	0.03860
2244.62643	0.03883
2242.69806	0.03892
2240.76968	0.03913
2238.84131	0.03941
2236.91294	0.03965
2234.98456	0.03997
2233.05619	0.04033
2231.12782	0.04044
2229.19944	0.04035
2227.27107	0.04026
2225.34270	0.04033
2223.41432	0.04054
2221.48595	0.04077
2219.55758	0.04101
2217.62920	0.04122
2215.70083	0.04147
2213.77246	0.04186
2211.84408	0.04225
2209.91571	0.04241
2207.98734	0.04237
2206.05896	0.04235
2204.13059	0.04248
2202.20222	0.04281
2200.27385	0.04326
2198.34547	0.04355
2196.41710	0.04366
2194.48873	0.04385
2192.56035	0.04414
2190.63198	0.04429
2188.70361	0.04418
2186.77523	0.04402
2184.84686	0.04410
2182.91849	0.04429
2180.99011	0.04445
2179.06174	0.04474
2177.13337	0.04506
2175.20499	0.04505
2173.27662	0.04481
2171.34825	0.04482
2169.41987	0.04513
2167.49150	0.04539
2165.56313	0.04551
2163.63475	0.04557
2161.70638	0.04558
2159.77801	0.04559
2157.84963	0.04582
2155.92126	0.04606
2153.99289	0.04604
2152.06451	0.04588
2150.13614	0.04591
2148.20777	0.04620
2146.27940	0.04655
2144.35102	0.04681
2142.42265	0.04703
2140.49428	0.04730
2138.56590	0.04766
2136.63753	0.04796
2134.70916	0.04809
2132.78078	0.04819
2130.85241	0.04844
2128.92404	0.04880
2126.99566	0.04914
2125.06729	0.04944
2123.13892	0.04965
2121.21054	0.04985
2119.28217	0.05014
2117.35380	0.05058
2115.42542	0.05120
2113.49705	0.05185
2111.56868	0.05228
2109.64030	0.05237
2107.71193	0.05232
2105.78356	0.05248
2103.85518	0.05283
2101.92681	0.05311
2099.99844	0.05348
2098.07006	0.05416
2096.14169	0.05467
2094.21332	0.05465
2092.28494	0.05454
2090.35657	0.05466
2088.42820	0.05495
2086.49983	0.05524
2084.57145	0.05533
2082.64308	0.05532
2080.71471	0.05541
2078.78633	0.05535
2076.85796	0.05506
2074.92959	0.05491
2073.00121	0.05503
2071.07284	0.05524
2069.14447	0.05535
2067.21609	0.05526
2065.28772	0.05509
2063.35935	0.05511
2061.43097	0.05528
2059.50260	0.05540
2057.57423	0.05551
2055.64585	0.05571
2053.71748	0.05592
2051.78911	0.05614
2049.86073	0.05645
2047.93236	0.05662
2046.00399	0.05673
2044.07561	0.05707
2042.14724	0.05750
2040.21887	0.05786
2038.29049	0.05821
2036.36212	0.05850
2034.43375	0.05868
2032.50538	0.05888
2030.57700	0.05907
2028.64863	0.05911
2026.72026	0.05908
2024.79188	0.05918
2022.86351	0.05933
2020.93514	0.05951
2019.00676	0.05982
2017.07839	0.06006
2015.15002	0.05993
2013.22164	0.05964
2011.29327	0.05949
2009.36490	0.05971
2007.43652	0.06021
2005.50815	0.06060
2003.57978	0.06086
2001.65140	0.06118
1999.72303	0.06142
1997.79466	0.06147
1995.86628	0.06141
1993.93791	0.06141
1992.00954	0.06165
1990.08116	0.06198
1988.15279	0.06214
1986.22442	0.06217
1984.29604	0.06233
1982.36767	0.06257
1980.43930	0.06270
1978.51092	0.06280
1976.58255	0.06292
1974.65418	0.06305
1972.72581	0.06317
1970.79743	0.06312
1968.86906	0.06303
1966.94069	0.06313
1965.01231	0.06335
1963.08394	0.06352
1961.15557	0.06364
1959.22719	0.06370
1957.29882	0.06374
1955.37045	0.06380
1953.44207	0.06390
1951.51370	0.06404
1949.58533	0.06416
1947.65695	0.06430
1945.72858	0.06445
1943.80021	0.06447
1941.87183	0.06439
1939.94346	0.06433
1938.01509	0.06433
1936.08671	0.06431
1934.15834	0.06418
1932.22997	0.06395
1930.30159	0.06382
1928.37322	0.06386
1926.44485	0.06389
1924.51647	0.06396
1922.58810	0.06417
1920.65973	0.06428
1918.73135	0.06412
1916.80298	0.06387
1914.87461	0.06370
1912.94624	0.06361
1911.01786	0.06349
1909.08949	0.06335
1907.16112	0.06324
1905.23274	0.06321
1903.30437	0.06316
1901.37600	0.06285
1899.44762	0.06243
1897.51925	0.06219
1895.59088	0.06199
1893.66250	0.06163
1891.73413	0.06110
1889.80576	0.06050
1887.87738	0.06012
1885.94901	0.05992
1884.02064	0.05958
1882.09226	0.05904
1880.16389	0.05849
1878.23552	0.05802
1876.30714	0.05762
1874.37877	0.05734
1872.45040	0.05725
1870.52202	0.05736
1868.59365	0.05727
1866.66528	0.05648
1864.73690	0.05531
1862.80853	0.05441
1860.88016	0.05389
1858.95179	0.05355
1857.02341	0.05319
1855.09504	0.05274
1853.16667	0.05223
1851.23829	0.05179
1849.30992	0.05158
1847.38155	0.05150
1845.45317	0.05130
1843.52480	0.05090
1841.59643	0.05048
1839.66805	0.05022
1837.73968	0.04995
1835.81131	0.04949
1833.88293	0.04900
1831.95456	0.04866
1830.02619	0.04837
1828.09781	0.04790
1826.16944	0.04717
1824.24107	0.04631
1822.31269	0.04554
1820.38432	0.04476
1818.45595	0.04396
1816.52757	0.04322
1814.59920	0.04243
1812.67083	0.04155
1810.74245	0.04043
1808.81408	0.03898
1806.88571	0.03759
1804.95733	0.03643
1803.02896	0.03524
1801.10059	0.03373
1799.17222	0.03207
1797.24384	0.03048
1795.31547	0.02906
1793.38710	0.02779
1791.45872	0.02634
1789.53035	0.02473
1787.60198	0.02330
1785.67360	0.02199
1783.74523	0.02063
1781.81686	0.01929
1779.88848	0.01819
1777.96011	0.01732
1776.03174	0.01638
1774.10336	0.01523
1772.17499	0.01387
1770.24662	0.01255
1768.31824	0.01118
1766.38987	0.00958
1764.46150	0.00826
1762.53312	0.00719
1760.60475	0.00603
1758.67638	0.00484
1756.74800	0.00367
1754.81963	0.00270
1752.89126	0.00192
1750.96288	0.00113
1749.03451	0.00049
1747.10614	0.00041
1745.17777	0.00046
1743.24939	0.00049
1741.32102	0.00050
1739.39265	0.00054
1737.46427	0.00076
1735.53590	0.00083
1733.60753	0.00078
1731.67915	0.00067
1729.75078	0.00063
1727.82241	0.00062
1725.89403	0.00050
1723.96566	0.00044
1722.03729	0.00043
1720.10891	0.00058
1718.18054	0.00061
1716.25217	0.00044
1714.32379	0.00073
1712.39542	0.00057
1710.46705	0.00086
1708.53867	0.00094
1706.61030	0.00058
1704.68193	0.00025
1702.75355	0.00098
1700.82518	0.00167
1698.89681	0.00158
1696.96843	0.00127
1695.04006	0.00107
1693.11169	0.00057
1691.18331	0.00022
1689.25494	0.00044
1687.32657	0.00073
1685.39820	0.00143
1683.46982	0.00198
1681.54145	0.00136
1679.61308	0.00076
1677.68470	0.00049
1675.75633	0.00052
1673.82796	0.00044
1671.89958	0.00054
1669.97121	0.00055
1668.04284	0.00091
1666.11446	0.00095
1664.18609	0.00117
1662.25772	0.00128
1660.32934	0.00089
1658.40097	0.00054
1656.47260	0.00050
1654.54422	0.00086
1652.61585	0.00076
1650.68748	0.00074
1648.75910	0.00066
1646.83073	0.00049
1644.90236	0.00031
1642.97398	0.00035
1641.04561	0.00033
1639.11724	0.00056
1637.18886	0.00054
1635.26049	0.00064
1633.33212	0.00084
1631.40375	0.00077
1629.47537	0.00066
1627.54700	0.00067
1625.61863	0.00056
1623.69025	0.00051
1621.76188	0.00054
1619.83351	0.00057
1617.90513	0.00040
1615.97676	0.00054
1614.04839	0.00065
1612.12001	0.00048
1610.19164	0.00052
1608.26327	0.00058
1606.33489	0.00049
1604.40652	0.00032
1602.47815	0.00034
1600.54977	0.00026
1598.62140	0.00041
1596.69303	0.00044
1594.76465	0.00018
1592.83628	0.00050
1590.90791	0.00075
1588.97953	0.00076
1587.05116	0.00054
1585.12279	0.00016
1583.19441	0.00042
1581.26604	0.00068
1579.33767	0.00059
1577.40929	0.00038
1575.48092	0.00047
1573.55255	0.00066
1571.62418	0.00053
1569.69580	0.00049
1567.76743	0.00065
1565.83906	0.00051
1563.91068	0.00050
1561.98231	0.00063
1560.05394	0.00040
1558.12556	0.00079
1556.19719	0.00071
1554.26882	0.00061
1552.34044	0.00057
1550.41207	0.00036
1548.48370	0.00033
1546.55532	0.00036
1544.62695	0.00063
1542.69858	0.00089
1540.77020	0.00102
1538.84183	0.00069
1536.91346	0.00059
1534.98508	0.00028
1533.05671	0.00045
1531.12834	0.00032
1529.19996	0.00041
1527.27159	0.00070
1525.34322	0.00089
1523.41484	0.00096
1521.48647	0.00082
1519.55810	0.00097
1517.62972	0.00078
1515.70135	0.00059
1513.77298	0.00025
1511.84461	0.00059
1509.91623	0.00053
1507.98786	0.00062
1506.05949	0.00099
1504.13111	0.00094
1502.20274	0.00064
1500.27437	0.00044
1498.34599	0.00093
1496.41762	0.00100
1494.48925	0.00066
1492.56087	0.00047
1490.63250	0.00020
1488.70413	0.00045
1486.77575	0.00039
1484.84738	0.00036
1482.91901	0.00082
1480.99063	0.00075
1479.06226	0.00033
1477.13389	0.00031
1475.20551	0.00035
1473.27714	0.00026
1471.34877	0.00077
1469.42039	0.00096
1467.49202	0.00091
1465.56365	0.00066
1463.63527	0.00055
1461.70690	0.00050
1459.77853	0.00046
1457.85016	0.00037
1455.92178	0.00033
1453.99341	0.00048
1452.06504	0.00053
1450.13666	0.00055
1448.20829	0.00065
1446.27992	0.00092
1444.35154	0.00104
1442.42317	0.00072
1440.49480	0.00052
1438.56642	0.00063
1436.63805	0.00062
1434.70968	0.00060
1432.78130	0.00062
1430.85293	0.00065
1428.92456	0.00077
1426.99618	0.00087
1425.06781	0.00088
1423.13944	0.00077
1421.21106	0.00072
1419.28269	0.00077
1417.35432	0.00077
1415.42594	0.00069
1413.49757	0.00066
1411.56920	0.00050
1409.64082	0.00036
1407.71245	0.00038
1405.78408	0.00052
1403.85570	0.00075
1401.92733	0.00082
1399.99896	0.00086
1398.07059	0.00075
1396.14221	0.00049
1394.21384	0.00047
1392.28547	0.00057
1390.35709	0.00068
1388.42872	0.00072
1386.50035	0.00083
1384.57197	0.00114
1382.64360	0.00114
1380.71523	0.00050
1378.78685	0.00040
1376.85848	0.00112
1374.93011	0.00158
1373.00173	0.00141
1371.07336	0.00110
1369.14499	0.00082
1367.21661	0.00076
1365.28824	0.00091
1363.35987	0.00100
1361.43149	0.00078
1359.50312	0.00087
1357.57475	0.00079
1355.64637	0.00060
1353.71800	0.00072
1351.78963	0.00088
1349.86125	0.00099
1347.93288	0.00108
1346.00451	0.00060
1344.07614	0.00015
1342.14776	0.00044
1340.21939	0.00056
1338.29102	0.00040
1336.36264	0.00046
1334.43427	0.00071
1332.50590	0.00064
1330.57752	0.00082
1328.64915	0.00072
1326.72078	0.00075
1324.79240	0.00062
1322.86403	0.00030
1320.93566	0.00039
1319.00728	0.00070
1317.07891	0.00084
1315.15054	0.00084
1313.22216	0.00065
1311.29379	0.00032
1309.36542	0.00073
1307.43704	0.00113
1305.50867	0.00130
1303.58030	0.00104
1301.65192	0.00046
1299.72355	0.00023
1297.79518	0.00026
1295.86680	0.00048
1293.93843	0.00062
1292.01006	0.00104
1290.08168	0.00102
1288.15331	0.00058
1286.22494	0.00069
1284.29657	0.00060
1282.36819	0.00063
1280.43982	0.00105
1278.51145	0.00128
1276.58307	0.00134
1274.65470	0.00122
1272.72633	0.00095
1270.79795	0.00158
1268.86958	0.00197
1266.94121	0.00154
1265.01283	0.00089
1263.08446	0.00085
1261.15609	0.00146
1259.22771	0.00188
1257.29934	0.00161
1255.37097	0.00097
1253.44259	0.00074
1251.51422	0.00078
1249.58585	0.00065
1247.65747	0.00062
1245.72910	0.00065
1243.80073	0.00039
1241.87235	0.00096
1239.94398	0.00161
1238.01561	0.00184
1236.08723	0.00149
1234.15886	0.00139
1232.23049	0.00150
1230.30212	0.00137
1228.37374	0.00145
1226.44537	0.00130
1224.51700	0.00135
1222.58862	0.00207
1220.66025	0.00253
1218.73188	0.00190
1216.80350	0.00102
1214.87513	0.00168
1212.94676	0.00134
1211.01838	0.00106
1209.09001	0.00129
1207.16164	0.00091
1205.23326	0.00113
1203.30489	0.00128
1201.37652	0.00123
1199.44814	0.00147
1197.51977	0.00125
1195.59140	0.00109
1193.66302	0.00111
1191.73465	0.00144
1189.80628	0.00044
1187.87790	0.00127
1185.94953	0.00146
1184.02116	0.00107
1182.09278	0.00116
1180.16441	0.00125
1178.23604	0.00088
1176.30766	0.00083
1174.37929	0.00041
1172.45092	0.00116
1170.52255	0.00144
1168.59417	0.00135
1166.66580	0.00141
1164.73743	0.00159
1162.80905	0.00135
1160.88068	0.00088
1158.95231	0.00053
1157.02393	0.00070
1155.09556	0.00091
1153.16719	0.00101
1151.23881	0.00100
1149.31044	0.00080
1147.38207	0.00048
1145.45369	0.00054
1143.52532	0.00110
1141.59695	0.00163
1139.66857	0.00155
1137.74020	0.00138
1135.81183	0.00241
1133.88345	0.00245
1131.95508	0.00229
1130.02671	0.00200
1128.09833	0.00125
1126.16996	0.00031
1124.24159	0.00126
1122.31321	0.00157
1120.38484	0.00142
1118.45647	0.00170
1116.52809	0.00261
1114.59972	0.00276
1112.67135	0.00247
1110.74298	0.00198
1108.81460	0.00164
1106.88623	0.00169
1104.95786	0.00154
1103.02948	0.00101
1101.10111	0.00134
1099.17274	0.00083
1097.24436	0.00109
1095.31599	0.00146
1093.38762	0.00112
1091.45924	0.00098
1089.53087	0.00122
1087.60250	0.00054
1085.67412	0.00105
1083.74575	0.00108
1081.81738	0.00170
1079.88900	0.00201
1077.96063	0.00179
1076.03226	0.00165
1074.10388	0.00113
1072.17551	0.00081
1070.24714	0.00070
1068.31876	0.00105
1066.39039	0.00086
1064.46202	0.00047
1062.53364	0.00115
1060.60527	0.00174
1058.67690	0.00165
1056.74853	0.00144
1054.82015	0.00175
1052.89178	0.00259
1050.96341	0.00265
1049.03503	0.00150
1047.10666	0.00120
1045.17829	0.00050
1043.24991	0.00143
1041.32154	0.00151
1039.39317	0.00148
1037.46479	0.00117
1035.53642	0.00073
1033.60805	0.00047
1031.67967	0.00060
1029.75130	0.00104
1027.82293	0.00063
1025.89455	0.00084
1023.96618	0.00142
1022.03781	0.00102
1020.10943	0.00110
1018.18106	0.00180
1016.25269	0.00237
1014.32431	0.00140
1012.39594	0.00107
1010.46757	0.00135
1008.53919	0.00118
1006.61082	0.00084
1004.68245	0.00078
1002.75407	0.00121
1000.82570	0.00150
998.89733	0.00182
996.96896	0.00161
995.04058	0.00126
993.11221	0.00132
991.18384	0.00112
989.25546	0.00079
987.32709	0.00086
985.39872	0.00110
983.47034	0.00107
981.54197	0.00092
979.61360	0.00088
977.68522	0.00098
975.75685	0.00165
973.82848	0.00208
971.90010	0.00157
969.97173	0.00077
968.04336	0.00071
966.11498	0.00117
964.18661	0.00191
962.25824	0.00248
960.32986	0.00267
958.40149	0.00269
956.47312	0.00264
954.54474	0.00199
952.61637	0.00118
950.68800	0.00104
948.75962	0.00117
946.83125	0.00161
944.90288	0.00185
942.97451	0.00220
941.04613	0.00245
939.11776	0.00266
937.18939	0.00282
935.26101	0.00307
933.33264	0.00341
931.40427	0.00334
929.47589	0.00321
927.54752	0.00333
925.61915	0.00337
923.69077	0.00338
921.76240	0.00355
919.83403	0.00368
917.90565	0.00384
915.97728	0.00458
914.04891	0.00554
912.12053	0.00520
910.19216	0.00367
908.26379	0.00253
906.33541	0.00196
904.40704	0.00140
902.47867	0.00142
900.55029	0.00238
898.62192	0.00248
896.69355	0.00156
894.76517	0.00143
892.83680	0.00173
890.90843	0.00198
888.98005	0.00135
887.05168	0.00129
885.12331	0.00199
883.19494	0.00268
881.26656	0.00344
879.33819	0.00334
877.40982	0.00219
875.48144	0.00118
873.55307	0.00105
871.62470	0.00079
869.69632	0.00053
867.76795	0.00037
865.83958	0.00044
863.91120	0.00158
861.98283	0.00268
860.05446	0.00279
858.12608	0.00237
856.19771	0.00189
854.26934	0.00158
852.34096	0.00108
850.41259	0.00135
848.48422	0.00126
846.55584	0.00230
844.62747	0.00332
842.69910	0.00388
840.77072	0.00371
838.84235	0.00337
836.91398	0.00346
834.98560	0.00359
833.05723	0.00300
831.12886	0.00256
829.20049	0.00282
827.27211	0.00253
825.34374	0.00189
823.41537	0.00143
821.48699	0.00080
819.55862	0.00119
817.63025	0.00098
815.70187	0.00190
813.77350	0.00254
811.84513	0.00288
809.91675	0.00341
807.98838	0.00295
806.06001	0.00257
804.13163	0.00270
802.20326	0.00251
800.27489	0.00273
798.34651	0.00282
796.41814	0.00166
794.48977	0.00138
792.56139	0.00226
790.63302	0.00180
788.70465	0.00114
786.77627	0.00237
784.84790	0.00277
782.91953	0.00303
780.99115	0.00258
779.06278	0.00179
777.13441	0.00201
775.20603	0.00208
773.27766	0.00262
771.34929	0.00291
769.42092	0.00266
767.49254	0.00231
765.56417	0.00239
763.63580	0.00189
761.70742	0.00125
759.77905	0.00167
757.85068	0.00220
755.92230	0.00234
753.99393	0.00256
752.06556	0.00247
750.13718	0.00282
748.20881	0.00255
746.28044	0.00208
744.35206	0.00154
742.42369	0.00226
740.49532	0.00294
738.56694	0.00307
736.63857	0.00191
734.71020	0.00209
732.78182	0.00310
730.85345	0.00348
728.92508	0.00225
726.99670	0.00122
725.06833	0.00102
723.13996	0.00069
721.21158	0.00107
719.28321	0.00189
717.35484	0.00195
715.42647	0.00164
713.49809	0.00153
711.56972	0.00186
709.64135	0.00185
707.71297	0.00240
705.78460	0.00208
703.85623	0.00094
701.92785	0.00138
699.99948	0.00232
698.07111	0.00270
696.14273	0.00261
694.21436	0.00240
692.28599	0.00167
690.35761	0.00126
688.42924	0.00116
686.50087	0.00132
684.57249	0.00263
682.64412	0.00354
680.71575	0.00361
678.78737	0.00354
676.85900	0.00332
674.93063	0.00386
673.00225	0.00229
671.07388	0.00501
669.14551	0.00697
667.21713	0.00544
665.28876	0.00518
663.36039	0.00469
661.43201	0.00325
659.50364	0.00411
657.57527	0.00623
655.64690	0.00667
653.71852	0.00600
651.79015	0.00488
649.86178	0.00398
647.93340	0.00404
646.00503	0.00496
644.07666	0.00500
642.14828	0.00513
640.21991	0.00567
638.29154	0.00515
636.36316	0.00439
634.43479	0.00504
632.50642	0.00450
630.57804	0.00372
628.64967	0.00237
626.72130	0.00337
624.79292	0.00472
622.86455	0.00496
620.93618	0.00568
619.00780	0.00490
617.07943	0.00438
615.15106	0.00380
613.22268	0.00502
611.29431	0.00567
609.36594	0.00279
607.43756	0.00701
605.50919	0.00599
603.58082	0.01032
601.65244	0.01318
599.72407	0.01369
