3997.51769	0.58743
3995.58931	0.58739
3993.66094	0.58731
3991.73257	0.58743
3989.80419	0.58798
3987.87582	0.58890
3985.94745	0.58940
3984.01907	0.58926
3982.09070	0.58922
3980.16233	0.58962
3978.23396	0.58986
3976.30558	0.58945
3974.37721	0.58890
3972.44884	0.58896
3970.52046	0.58972
3968.59209	0.59105
3966.66372	0.59251
3964.73534	0.59302
3962.80697	0.59232
3960.87860	0.59207
3958.95022	0.59311
3957.02185	0.59444
3955.09348	0.59544
3953.16510	0.59530
3951.23673	0.59335
3949.30836	0.59153
3947.37998	0.59261
3945.45161	0.59445
3943.52324	0.59418
3941.59486	0.59509
3939.66649	0.59881
3937.73812	0.60166
3935.80974	0.60138
3933.88137	0.59783
3931.95300	0.59428
3930.02462	0.59549
3928.09625	0.59903
3926.16788	0.59932
3924.23950	0.59813
3922.31113	0.59927
3920.38276	0.60008
3918.45439	0.59922
3916.52601	0.60111
3914.59764	0.60716
3912.66927	0.61274
3910.74089	0.61505
3908.81252	0.61369
3906.88415	0.60681
3904.95577	0.59577
3903.02740	0.58836
3901.09903	0.58916
3899.17065	0.59673
3897.24228	0.60798
3895.31391	0.61477
3893.38553	0.61243
3891.45716	0.60884
3889.52879	0.61195
3887.60041	0.61339
3885.67204	0.60951
3883.74367	0.60772
3881.81529	0.60740
3879.88692	0.60992
3877.95855	0.61795
3876.03017	0.62035
3874.10180	0.61444
3872.17343	0.60798
3870.24505	0.60511
3868.31668	0.60879
3866.38831	0.61283
3864.45994	0.61196
3862.53156	0.61460
3860.60319	0.62245
3858.67482	0.62557
3856.74644	0.61940
3854.81807	0.60534
3852.88970	0.59659
3850.96132	0.60925
3849.03295	0.62582
3847.10458	0.63345
3845.17620	0.63094
3843.24783	0.62234
3841.31946	0.61270
3839.39108	0.60549
3837.46271	0.60579
3835.53434	0.61326
3833.60596	0.62045
3831.67759	0.62600
3829.74922	0.63025
3827.82084	0.63097
3825.89247	0.62935
3823.96410	0.62478
3822.03572	0.61409
3820.10735	0.60880
3818.17898	0.61470
3816.25060	0.62093
3814.32223	0.62997
3812.39386	0.63992
3810.46548	0.64180
3808.53711	0.63444
3806.60874	0.62612
3804.68037	0.62223
3802.75199	0.61621
3800.82362	0.61306
3798.89525	0.61912
3796.96687	0.62571
3795.03850	0.63321
3793.11013	0.64165
3791.18175	0.64572
3789.25338	0.64528
3787.32501	0.64196
3785.39663	0.63774
3783.46826	0.63607
3781.53989	0.63418
3779.61151	0.63072
3777.68314	0.63297
3775.75477	0.63926
3773.82639	0.64032
3771.89802	0.63347
3769.96965	0.62483
3768.04127	0.62212
3766.11290	0.62367
3764.18453	0.62628
3762.25615	0.62608
3760.32778	0.61950
3758.39941	0.61340
3756.47103	0.61293
3754.54266	0.60935
3752.61429	0.59669
3750.68591	0.58433
3748.75754	0.58559
3746.82917	0.58925
3744.90080	0.58813
3742.97242	0.59172
3741.04405	0.59807
3739.11568	0.59642
3737.18730	0.58440
3735.25893	0.57193
3733.33056	0.57486
3731.40218	0.58939
3729.47381	0.59972
3727.54544	0.59934
3725.61706	0.59317
3723.68869	0.58919
3721.76032	0.58930
3719.83194	0.59184
3717.90357	0.59413
3715.97520	0.59201
3714.04682	0.58169
3712.11845	0.56596
3710.19008	0.55965
3708.26170	0.56737
3706.33333	0.57469
3704.40496	0.57269
3702.47658	0.56424
3700.54821	0.55902
3698.61984	0.55816
3696.69146	0.55437
3694.76309	0.54530
3692.83472	0.53064
3690.90635	0.51124
3688.97797	0.49674
3687.04960	0.49483
3685.12123	0.49550
3683.19285	0.48976
3681.26448	0.47614
3679.33611	0.45693
3677.40773	0.43360
3675.47936	0.40959
3673.55099	0.39653
3671.62261	0.38774
3669.69424	0.37360
3667.76587	0.36308
3665.83749	0.35643
3663.90912	0.34530
3661.98075	0.32989
3660.05237	0.31307
3658.12400	0.29485
3656.19563	0.27524
3654.26725	0.25782
3652.33888	0.24077
3650.41051	0.21879
3648.48213	0.19818
3646.55376	0.18850
3644.62539	0.18322
3642.69701	0.17535
3640.76864	0.16453
3638.84027	0.15300
3636.91189	0.14175
3634.98352	0.13063
3633.05515	0.11987
3631.12678	0.10953
3629.19840	0.09825
3627.27003	0.08909
3625.34166	0.08416
3623.41328	0.07924
3621.48491	0.07259
3619.55654	0.06487
3617.62816	0.05837
3615.69979	0.05381
3613.77142	0.04960
3611.84304	0.04536
3609.91467	0.04135
3607.98630	0.03753
3606.05792	0.03426
3604.12955	0.03155
3602.20118	0.02865
3600.27280	0.02567
3598.34443	0.02311
3596.41606	0.02088
3594.48768	0.01881
3592.55931	0.01696
3590.63094	0.01538
3588.70256	0.01370
3586.77419	0.01194
3584.84582	0.01063
3582.91744	0.00965
3580.98907	0.00865
3579.06070	0.00761
3577.13233	0.00674
3575.20395	0.00610
3573.27558	0.00561
3571.34721	0.00505
3569.41883	0.00423
3567.49046	0.00340
3565.56209	0.00287
3563.63371	0.00261
3561.70534	0.00230
3559.77697	0.00185
3557.84859	0.00152
3555.92022	0.00135
3553.99185	0.00128
3552.06347	0.00122
3550.13510	0.00112
3548.20673	0.00083
3546.27835	0.00056
3544.34998	0.00042
3542.42161	0.00035
3540.49323	0.00036
3538.56486	0.00039
3536.63649	0.00064
3534.70811	0.00068
3532.77974	0.00050
3530.85137	0.00048
3528.92299	0.00070
3526.99462	0.00096
3525.06625	0.00112
3523.13787	0.00110
3521.20950	0.00105
3519.28113	0.00116
3517.35276	0.00120
3515.42438	0.00100
3513.49601	0.00083
3511.56764	0.00085
3509.63926	0.00086
3507.71089	0.00088
3505.78252	0.00096
3503.85414	0.00117
3501.92577	0.00114
3499.99740	0.00102
3498.06902	0.00080
3496.14065	0.00047
3494.21228	0.00045
3492.28390	0.00082
3490.35553	0.00119
3488.42716	0.00128
3486.49878	0.00106
3484.57041	0.00083
3482.64204	0.00089
3480.71366	0.00098
3478.78529	0.00096
3476.85692	0.00088
3474.92854	0.00080
3473.00017	0.00066
3471.07180	0.00043
3469.14342	0.00033
3467.21505	0.00045
3465.28668	0.00049
3463.35831	0.00053
3461.42993	0.00063
3459.50156	0.00100
3457.57319	0.00113
3455.64481	0.00092
3453.71644	0.00062
3451.78807	0.00039
3449.85969	0.00045
3447.93132	0.00059
3446.00295	0.00085
3444.07457	0.00110
3442.14620	0.00114
3440.21783	0.00079
3438.28945	0.00036
3436.36108	0.00038
3434.43271	0.00075
3432.50433	0.00086
3430.57596	0.00080
3428.64759	0.00097
3426.71921	0.00123
3424.79084	0.00127
3422.86247	0.00117
3420.93409	0.00104
3419.00572	0.00106
3417.07735	0.00120
3415.14897	0.00108
3413.22060	0.00069
3411.29223	0.00041
3409.36385	0.00065
3407.43548	0.00084
3405.50711	0.00075
3403.57874	0.00058
3401.65036	0.00054
3399.72199	0.00063
3397.79362	0.00075
3395.86524	0.00072
3393.93687	0.00055
3392.00850	0.00056
3390.08012	0.00074
3388.15175	0.00087
3386.22338	0.00075
3384.29500	0.00059
3382.36663	0.00054
3380.43826	0.00062
3378.50988	0.00080
3376.58151	0.00101
3374.65314	0.00112
3372.72476	0.00102
3370.79639	0.00085
3368.86802	0.00060
3366.93964	0.00035
3365.01127	0.00038
3363.08290	0.00070
3361.15452	0.00080
3359.22615	0.00075
3357.29778	0.00088
3355.36940	0.00097
3353.44103	0.00078
3351.51266	0.00059
3349.58428	0.00068
3347.65591	0.00057
3345.72754	0.00029
3343.79917	0.00031
3341.87079	0.00064
3339.94242	0.00084
3338.01405	0.00087
3336.08567	0.00080
3334.15730	0.00083
3332.22893	0.00104
3330.30055	0.00113
3328.37218	0.00094
3326.44381	0.00083
3324.51543	0.00092
3322.58706	0.00099
3320.65869	0.00095
3318.73031	0.00079
3316.80194	0.00054
3314.87357	0.00041
3312.94519	0.00053
3311.01682	0.00077
3309.08845	0.00093
3307.16007	0.00098
3305.23170	0.00096
3303.30333	0.00094
3301.37495	0.00102
3299.44658	0.00105
3297.51821	0.00096
3295.58983	0.00089
3293.66146	0.00096
3291.73309	0.00104
3289.80472	0.00103
3287.87634	0.00110
3285.94797	0.00121
3284.01960	0.00126
3282.09122	0.00118
3280.16285	0.00109
3278.23448	0.00102
3276.30610	0.00097
3274.37773	0.00096
3272.44936	0.00101
3270.52098	0.00099
3268.59261	0.00079
3266.66424	0.00058
3264.73586	0.00070
3262.80749	0.00089
3260.87912	0.00100
3258.95074	0.00093
3257.02237	0.00078
3255.09400	0.00064
3253.16562	0.00072
3251.23725	0.00090
3249.30888	0.00091
3247.38050	0.00079
3245.45213	0.00066
3243.52376	0.00063
3241.59538	0.00078
3239.66701	0.00084
3237.73864	0.00062
3235.81026	0.00044
3233.88189	0.00050
3231.95352	0.00072
3230.02515	0.00085
3228.09677	0.00084
3226.16840	0.00084
3224.24003	0.00097
3222.31165	0.00101
3220.38328	0.00090
3218.45491	0.00083
3216.52653	0.00074
3214.59816	0.00083
3212.66979	0.00097
3210.74141	0.00081
3208.81304	0.00059
3206.88467	0.00064
3204.95629	0.00067
3203.02792	0.00079
3201.09955	0.00111
3199.17117	0.00118
3197.24280	0.00101
3195.31443	0.00081
3193.38605	0.00066
3191.45768	0.00055
3189.52931	0.00054
3187.60093	0.00057
3185.67256	0.00068
3183.74419	0.00084
3181.81581	0.00098
3179.88744	0.00113
3177.95907	0.00116
3176.03070	0.00110
3174.10232	0.00106
3172.17395	0.00108
3170.24558	0.00110
3168.31720	0.00098
3166.38883	0.00091
3164.46046	0.00089
3162.53208	0.00086
3160.60371	0.00079
3158.67534	0.00084
3156.74696	0.00086
3154.81859	0.00081
3152.89022	0.00076
3150.96184	0.00088
3149.03347	0.00112
3147.10510	0.00122
3145.17672	0.00117
3143.24835	0.00105
3141.31998	0.00083
3139.39160	0.00073
3137.46323	0.00084
3135.53486	0.00091
3133.60648	0.00081
3131.67811	0.00066
3129.74974	0.00069
3127.82136	0.00073
3125.89299	0.00100
3123.96462	0.00123
3122.03624	0.00126
3120.10787	0.00126
3118.17950	0.00127
3116.25113	0.00117
3114.32275	0.00096
3112.39438	0.00082
3110.46601	0.00072
3108.53763	0.00065
3106.60926	0.00069
3104.68089	0.00078
3102.75251	0.00078
3100.82414	0.00088
3098.89577	0.00105
3096.96739	0.00104
3095.03902	0.00088
3093.11065	0.00081
3091.18227	0.00091
3089.25390	0.00101
3087.32553	0.00108
3085.39715	0.00102
3083.46878	0.00086
3081.54041	0.00071
3079.61203	0.00068
3077.68366	0.00083
3075.75529	0.00106
3073.82691	0.00128
3071.89854	0.00141
3069.97017	0.00137
3068.04179	0.00115
3066.11342	0.00102
3064.18505	0.00105
3062.25668	0.00102
3060.32830	0.00093
3058.39993	0.00087
3056.47156	0.00087
3054.54318	0.00093
3052.61481	0.00097
3050.68644	0.00092
3048.75806	0.00091
3046.82969	0.00098
3044.90132	0.00099
3042.97294	0.00081
3041.04457	0.00077
3039.11620	0.00096
3037.18782	0.00119
3035.25945	0.00125
3033.33108	0.00111
3031.40270	0.00082
3029.47433	0.00069
3027.54596	0.00081
3025.61758	0.00092
3023.68921	0.00089
3021.76084	0.00088
3019.83246	0.00093
3017.90409	0.00083
3015.97572	0.00062
3014.04734	0.00055
3012.11897	0.00066
3010.19060	0.00078
3008.26222	0.00086
3006.33385	0.00097
3004.40548	0.00121
3002.47711	0.00129
3000.54873	0.00116
2998.62036	0.00097
2996.69199	0.00080
2994.76361	0.00067
2992.83524	0.00061
2990.90687	0.00064
2988.97849	0.00072
2987.05012	0.00077
2985.12175	0.00078
2983.19337	0.00090
2981.26500	0.00118
2979.33663	0.00136
2977.40825	0.00135
2975.47988	0.00126
2973.55151	0.00126
2971.62313	0.00130
2969.69476	0.00128
2967.76639	0.00124
2965.83801	0.00116
2963.90964	0.00109
2961.98127	0.00110
2960.05289	0.00117
2958.12452	0.00111
2956.19615	0.00102
2954.26777	0.00118
2952.33940	0.00131
2950.41103	0.00120
2948.48266	0.00110
2946.55428	0.00122
2944.62591	0.00128
2942.69754	0.00115
2940.76916	0.00106
2938.84079	0.00112
2936.91242	0.00127
2934.98404	0.00133
2933.05567	0.00136
2931.12730	0.00130
2929.19892	0.00105
2927.27055	0.00098
2925.34218	0.00105
2923.41380	0.00120
2921.48543	0.00117
2919.55706	0.00107
2917.62868	0.00119
2915.70031	0.00132
2913.77194	0.00113
2911.84356	0.00085
2909.91519	0.00087
2907.98682	0.00102
2906.05844	0.00098
2904.13007	0.00088
2902.20170	0.00092
2900.27332	0.00104
2898.34495	0.00111
2896.41658	0.00112
2894.48820	0.00103
2892.55983	0.00090
2890.63146	0.00093
2888.70309	0.00102
2886.77471	0.00093
2884.84634	0.00086
2882.91797	0.00107
2880.98959	0.00125
2879.06122	0.00119
2877.13285	0.00101
2875.20447	0.00083
2873.27610	0.00071
2871.34773	0.00073
2869.41935	0.00073
2867.49098	0.00071
2865.56261	0.00075
2863.63423	0.00085
2861.70586	0.00079
2859.77749	0.00063
2857.84911	0.00061
2855.92074	0.00077
2853.99237	0.00090
2852.06399	0.00083
2850.13562	0.00069
2848.20725	0.00064
2846.27887	0.00068
2844.35050	0.00074
2842.42213	0.00069
2840.49375	0.00060
2838.56538	0.00055
2836.63701	0.00064
2834.70863	0.00079
2832.78026	0.00080
2830.85189	0.00072
2828.92352	0.00068
2826.99514	0.00076
2825.06677	0.00089
2823.13840	0.00090
2821.21002	0.00085
2819.28165	0.00088
2817.35328	0.00094
2815.42490	0.00103
2813.49653	0.00102
2811.56816	0.00090
2809.63978	0.00083
2807.71141	0.00076
2805.78304	0.00061
2803.85466	0.00055
2801.92629	0.00065
2799.99792	0.00083
2798.06954	0.00089
2796.14117	0.00082
2794.21280	0.00079
2792.28442	0.00080
2790.35605	0.00070
2788.42768	0.00065
2786.49930	0.00071
2784.57093	0.00066
2782.64256	0.00044
2780.71418	0.00043
2778.78581	0.00064
2776.85744	0.00082
2774.92907	0.00085
2773.00069	0.00073
2771.07232	0.00060
2769.14395	0.00055
2767.21557	0.00048
2765.28720	0.00041
2763.35883	0.00034
2761.43045	0.00039
2759.50208	0.00044
2757.57371	0.00044
2755.64533	0.00050
2753.71696	0.00054
2751.78859	0.00051
2749.86021	0.00049
2747.93184	0.00039
2746.00347	0.00036
2744.07509	0.00039
2742.14672	0.00036
2740.21835	0.00038
2738.28997	0.00027
2736.36160	0.00029
2734.43323	0.00035
2732.50485	0.00035
2730.57648	0.00040
2728.64811	0.00044
2726.71973	0.00038
2724.79136	0.00037
2722.86299	0.00035
2720.93461	0.00027
2719.00624	0.00028
2717.07787	0.00051
2715.14950	0.00066
2713.22112	0.00063
2711.29275	0.00064
2709.36438	0.00071
2707.43600	0.00074
2705.50763	0.00068
2703.57926	0.00071
2701.65088	0.00086
2699.72251	0.00101
2697.79414	0.00109
2695.86576	0.00109
2693.93739	0.00103
2692.00902	0.00097
2690.08064	0.00099
2688.15227	0.00109
2686.22390	0.00119
2684.29552	0.00125
2682.36715	0.00120
2680.43878	0.00117
2678.51040	0.00129
2676.58203	0.00148
2674.65366	0.00166
2672.72528	0.00174
2670.79691	0.00174
2668.86854	0.00180
2666.94016	0.00193
2665.01179	0.00200
2663.08342	0.00201
2661.15505	0.00205
2659.22667	0.00215
2657.29830	0.00224
2655.36993	0.00229
2653.44155	0.00247
2651.51318	0.00277
2649.58481	0.00298
2647.65643	0.00314
2645.72806	0.00333
2643.79969	0.00350
2641.87131	0.00369
2639.94294	0.00390
2638.01457	0.00409
2636.08619	0.00429
2634.15782	0.00455
2632.22945	0.00478
2630.30107	0.00497
2628.37270	0.00517
2626.44433	0.00537
2624.51595	0.00554
2622.58758	0.00574
2620.65921	0.00600
2618.73083	0.00635
2616.80246	0.00678
2614.87409	0.00724
2612.94571	0.00763
2611.01734	0.00799
2609.08897	0.00842
2607.16059	0.00888
2605.23222	0.00929
2603.30385	0.00967
2601.37548	0.01007
2599.44710	0.01047
2597.51873	0.01089
2595.59036	0.01135
2593.66198	0.01181
2591.73361	0.01223
2589.80524	0.01268
2587.87686	0.01319
2585.94849	0.01365
2584.02012	0.01402
2582.09174	0.01444
2580.16337	0.01495
2578.23500	0.01549
2576.30662	0.01598
2574.37825	0.01648
2572.44988	0.01706
2570.52150	0.01767
2568.59313	0.01823
2566.66476	0.01882
2564.73638	0.01945
2562.80801	0.02005
2560.87964	0.02058
2558.95126	0.02106
2557.02289	0.02158
2555.09452	0.02220
2553.16614	0.02280
2551.23777	0.02329
2549.30940	0.02381
2547.38103	0.02439
2545.45265	0.02490
2543.52428	0.02532
2541.59591	0.02583
2539.66753	0.02653
2537.73916	0.02731
2535.81079	0.02801
2533.88241	0.02862
2531.95404	0.02915
2530.02567	0.02968
2528.09729	0.03032
2526.16892	0.03105
2524.24055	0.03174
2522.31217	0.03236
2520.38380	0.03304
2518.45543	0.03377
2516.52705	0.03445
2514.59868	0.03510
2512.67031	0.03576
2510.74193	0.03647
2508.81356	0.03725
2506.88519	0.03803
2504.95681	0.03876
2503.02844	0.03946
2501.10007	0.04011
2499.17169	0.04074
2497.24332	0.04134
2495.31495	0.04186
2493.38657	0.04246
2491.45820	0.04321
2489.52983	0.04388
2487.60146	0.04436
2485.67308	0.04489
2483.74471	0.04556
2481.81634	0.04622
2479.88796	0.04687
2477.95959	0.04762
2476.03122	0.04849
2474.10284	0.04945
2472.17447	0.05044
2470.24610	0.05137
2468.31772	0.05226
2466.38935	0.05320
2464.46098	0.05426
2462.53260	0.05539
2460.60423	0.05655
2458.67586	0.05777
2456.74748	0.05902
2454.81911	0.06023
2452.89074	0.06140
2450.96236	0.06257
2449.03399	0.06375
2447.10562	0.06496
2445.17724	0.06620
2443.24887	0.06742
2441.32050	0.06855
2439.39212	0.06971
2437.46375	0.07096
2435.53538	0.07210
2433.60700	0.07317
2431.67863	0.07437
2429.75026	0.07564
2427.82189	0.07686
2425.89351	0.07803
2423.96514	0.07914
2422.03677	0.08021
2420.10839	0.08141
2418.18002	0.08274
2416.25165	0.08402
2414.32327	0.08530
2412.39490	0.08666
2410.46653	0.08801
2408.53815	0.08928
2406.60978	0.09062
2404.68141	0.09212
2402.75303	0.09369
2400.82466	0.09522
2398.89629	0.09677
2396.96791	0.09835
2395.03954	0.09995
2393.11117	0.10153
2391.18279	0.10307
2389.25442	0.10458
2387.32605	0.10610
2385.39767	0.10753
2383.46930	0.10872
2381.54093	0.10973
2379.61255	0.11070
2377.68418	0.11163
2375.75581	0.11247
2373.82744	0.11320
2371.89906	0.11392
2369.97069	0.11463
2368.04232	0.11516
2366.11394	0.11558
2364.18557	0.11636
2362.25720	0.11770
2360.32882	0.11936
2358.40045	0.12099
2356.47208	0.12260
2354.54370	0.12452
2352.61533	0.12695
2350.68696	0.12932
2348.75858	0.13093
2346.83021	0.13174
2344.90184	0.13188
2342.97346	0.13171
2341.04509	0.13188
2339.11672	0.13277
2337.18834	0.13393
2335.25997	0.13486
2333.33160	0.13581
2331.40322	0.13708
2329.47485	0.13849
2327.54648	0.13986
2325.61810	0.14112
2323.68973	0.14233
2321.76136	0.14395
2319.83298	0.14601
2317.90461	0.14805
2315.97624	0.14999
2314.04787	0.15202
2312.11949	0.15411
2310.19112	0.15620
2308.26275	0.15840
2306.33437	0.16072
2304.40600	0.16298
2302.47763	0.16513
2300.54925	0.16724
2298.62088	0.16922
2296.69251	0.17108
2294.76413	0.17290
2292.83576	0.17479
2290.90739	0.17666
2288.97901	0.17841
2287.05064	0.18008
2285.12227	0.18172
2283.19389	0.18327
2281.26552	0.18466
2279.33715	0.18594
2277.40877	0.18715
2275.48040	0.18840
2273.55203	0.18968
2271.62365	0.19088
2269.69528	0.19211
2267.76691	0.19344
2265.83853	0.19474
2263.91016	0.19594
2261.98179	0.19707
2260.05342	0.19822
2258.12504	0.19950
2256.19667	0.20088
2254.26830	0.20226
2252.33992	0.20360
2250.41155	0.20494
2248.48318	0.20632
2246.55480	0.20765
2244.62643	0.20885
2242.69806	0.21001
2240.76968	0.21119
2238.84131	0.21228
2236.91294	0.21322
2234.98456	0.21411
2233.05619	0.21508
2231.12782	0.21609
2229.19944	0.21709
2227.27107	0.21809
2225.34270	0.21911
2223.41432	0.22006
2221.48595	0.22090
2219.55758	0.22185
2217.62920	0.22299
2215.70083	0.22413
2213.77246	0.22517
2211.84408	0.22621
2209.91571	0.22733
2207.98734	0.22844
2206.05896	0.22951
2204.13059	0.23059
2202.20222	0.23173
2200.27385	0.23284
2198.34547	0.23387
2196.41710	0.23487
2194.48873	0.23593
2192.56035	0.23698
2190.63198	0.23791
2188.70361	0.23877
2186.77523	0.23969
2184.84686	0.24069
2182.91849	0.24165
2180.99011	0.24251
2179.06174	0.24331
2177.13337	0.24404
2175.20499	0.24460
2173.27662	0.24505
2171.34825	0.24554
2169.41987	0.24601
2167.49150	0.24640
2165.56313	0.24685
2163.63475	0.24734
2161.70638	0.24779
2159.77801	0.24832
2157.84963	0.24906
2155.92126	0.24990
2153.99289	0.25066
2152.06451	0.25136
2150.13614	0.25208
2148.20777	0.25291
2146.27940	0.25382
2144.35102	0.25475
2142.42265	0.25576
2140.49428	0.25684
2138.56590	0.25793
2136.63753	0.25911
2134.70916	0.26047
2132.78078	0.26185
2130.85241	0.26320
2128.92404	0.26466
2126.99566	0.26631
2125.06729	0.26804
2123.13892	0.26977
2121.21054	0.27153
2119.28217	0.27328
2117.35380	0.27494
2115.42542	0.27655
2113.49705	0.27823
2111.56868	0.28002
2109.64030	0.28177
2107.71193	0.28334
2105.78356	0.28477
2103.85518	0.28616
2101.92681	0.28750
2099.99844	0.28877
2098.07006	0.28991
2096.14169	0.29095
2094.21332	0.29188
2092.28494	0.29269
2090.35657	0.29340
2088.42820	0.29410
2086.49983	0.29482
2084.57145	0.29542
2082.64308	0.29585
2080.71471	0.29616
2078.78633	0.29640
2076.85796	0.29661
2074.92959	0.29663
2073.00121	0.29648
2071.07284	0.29636
2069.14447	0.29630
2067.21609	0.29605
2065.28772	0.29575
2063.35935	0.29586
2061.43097	0.29634
2059.50260	0.29692
2057.57423	0.29760
2055.64585	0.29838
2053.71748	0.29920
2051.78911	0.30007
2049.86073	0.30098
2047.93236	0.30199
2046.00399	0.30303
2044.07561	0.30402
2042.14724	0.30500
2040.21887	0.30618
2038.29049	0.30747
2036.36212	0.30860
2034.43375	0.30951
2032.50538	0.31020
2030.57700	0.31070
2028.64863	0.31111
2026.72026	0.31150
2024.79188	0.31177
2022.86351	0.31190
2020.93514	0.31182
2019.00676	0.31139
2017.07839	0.31119
2015.15002	0.31180
2013.22164	0.31265
2011.29327	0.31321
2009.36490	0.31369
2007.43652	0.31428
2005.50815	0.31493
2003.57978	0.31563
2001.65140	0.31635
1999.72303	0.31707
1997.79466	0.31781
1995.86628	0.31815
1993.93791	0.31760
1992.00954	0.31717
1990.08116	0.31808
1988.15279	0.31968
1986.22442	0.32106
1984.29604	0.32206
1982.36767	0.32265
1980.43930	0.32313
1978.51092	0.32368
1976.58255	0.32417
1974.65418	0.32456
1972.72581	0.32497
1970.79743	0.32507
1968.86906	0.32445
1966.94069	0.32411
1965.01231	0.32511
1963.08394	0.32636
1961.15557	0.32688
1959.22719	0.32710
1957.29882	0.32723
1955.37045	0.32725
1953.44207	0.32737
1951.51370	0.32757
1949.58533	0.32749
1947.65695	0.32683
1945.72858	0.32520
1943.80021	0.32297
1941.87183	0.32235
1939.94346	0.32399
1938.01509	0.32533
1936.08671	0.32521
1934.15834	0.32450
1932.22997	0.32382
1930.30159	0.32324
1928.37322	0.32261
1926.44485	0.32143
1924.51647	0.31927
1922.58810	0.31755
1920.65973	0.31698
1918.73135	0.31630
1916.80298	0.31662
1914.87461	0.31831
1912.94624	0.31886
1911.01786	0.31766
1909.08949	0.31659
1907.16112	0.31677
1905.23274	0.31721
1903.30437	0.31702
1901.37600	0.31646
1899.44762	0.31557
1897.51925	0.31386
1895.59088	0.31177
1893.66250	0.31015
1891.73413	0.30789
1889.80576	0.30504
1887.87738	0.30401
1885.94901	0.30407
1884.02064	0.30317
1882.09226	0.30150
1880.16389	0.29955
1878.23552	0.29739
1876.30714	0.29520
1874.37877	0.29275
1872.45040	0.28879
1870.52202	0.28239
1868.59365	0.27669
1866.66528	0.27611
1864.73690	0.27791
1862.80853	0.27783
1860.88016	0.27596
1858.95179	0.27386
1857.02341	0.27211
1855.09504	0.27049
1853.16667	0.26873
1851.23829	0.26661
1849.30992	0.26366
1847.38155	0.25950
1845.45317	0.25475
1843.52480	0.25277
1841.59643	0.25469
1839.66805	0.25599
1837.73968	0.25499
1835.81131	0.25347
1833.88293	0.25146
1831.95456	0.24714
1830.02619	0.24207
1828.09781	0.23984
1826.16944	0.23886
1824.24107	0.23758
1822.31269	0.23686
1820.38432	0.23521
1818.45595	0.23176
1816.52757	0.22767
1814.59920	0.22303
1812.67083	0.21703
1810.74245	0.21057
1808.81408	0.20548
1806.88571	0.20093
1804.95733	0.19501
1803.02896	0.18716
1801.10059	0.17857
1799.17222	0.17133
1797.24384	0.16520
1795.31547	0.15810
1793.38710	0.14925
1791.45872	0.14116
1789.53035	0.13618
1787.60198	0.13156
1785.67360	0.12528
1783.74523	0.11841
1781.81686	0.11186
1779.88848	0.10575
1777.96011	0.10028
1776.03174	0.09458
1774.10336	0.08746
1772.17499	0.07951
1770.24662	0.07320
1768.31824	0.06832
1766.38987	0.06304
1764.46150	0.05694
1762.53312	0.04945
1760.60475	0.04140
1758.67638	0.03428
1756.74800	0.02737
1754.81963	0.02102
1752.89126	0.01556
1750.96288	0.01027
1749.03451	0.00579
1747.10614	0.00301
1745.17777	0.00139
1743.24939	0.00046
1741.32102	0.00041
1739.39265	0.00071
1737.46427	0.00088
1735.53590	0.00110
1733.60753	0.00132
1731.67915	0.00137
1729.75078	0.00133
1727.82241	0.00123
1725.89403	0.00119
1723.96566	0.00114
1722.03729	0.00111
1720.10891	0.00119
1718.18054	0.00137
1716.25217	0.00144
1714.32379	0.00135
1712.39542	0.00126
1710.46705	0.00111
1708.53867	0.00101
1706.61030	0.00095
1704.68193	0.00090
1702.75355	0.00093
1700.82518	0.00095
1698.89681	0.00094
1696.96843	0.00104
1695.04006	0.00112
1693.11169	0.00102
1691.18331	0.00092
1689.25494	0.00089
1687.32657	0.00092
1685.39820	0.00104
1683.46982	0.00105
1681.54145	0.00105
1679.61308	0.00108
1677.68470	0.00106
1675.75633	0.00100
1673.82796	0.00087
1671.89958	0.00077
1669.97121	0.00082
1668.04284	0.00088
1666.11446	0.00094
1664.18609	0.00095
1662.25772	0.00092
1660.32934	0.00085
1658.40097	0.00082
1656.47260	0.00091
1654.54422	0.00113
1652.61585	0.00130
1650.68748	0.00123
1648.75910	0.00121
1646.83073	0.00126
1644.90236	0.00106
1642.97398	0.00075
1641.04561	0.00066
1639.11724	0.00072
1637.18886	0.00089
1635.26049	0.00099
1633.33212	0.00096
1631.40375	0.00096
1629.47537	0.00099
1627.54700	0.00106
1625.61863	0.00112
1623.69025	0.00106
1621.76188	0.00095
1619.83351	0.00087
1617.90513	0.00087
1615.97676	0.00091
1614.04839	0.00094
1612.12001	0.00093
1610.19164	0.00091
1608.26327	0.00088
1606.33489	0.00084
1604.40652	0.00087
1602.47815	0.00093
1600.54977	0.00096
1598.62140	0.00099
1596.69303	0.00102
1594.76465	0.00094
1592.83628	0.00086
1590.90791	0.00083
1588.97953	0.00084
1587.05116	0.00084
1585.12279	0.00082
1583.19441	0.00081
1581.26604	0.00078
1579.33767	0.00077
1577.40929	0.00094
1575.48092	0.00103
1573.55255	0.00095
1571.62418	0.00095
1569.69580	0.00102
1567.76743	0.00104
1565.83906	0.00107
1563.91068	0.00110
1561.98231	0.00115
1560.05394	0.00122
1558.12556	0.00106
1556.19719	0.00082
1554.26882	0.00079
1552.34044	0.00094
1550.41207	0.00109
1548.48370	0.00106
1546.55532	0.00095
1544.62695	0.00096
1542.69858	0.00116
1540.77020	0.00135
1538.84183	0.00110
1536.91346	0.00082
1534.98508	0.00083
1533.05671	0.00090
1531.12834	0.00088
1529.19996	0.00087
1527.27159	0.00092
1525.34322	0.00094
1523.41484	0.00098
1521.48647	0.00104
1519.55810	0.00107
1517.62972	0.00103
1515.70135	0.00096
1513.77298	0.00091
1511.84461	0.00095
1509.91623	0.00107
1507.98786	0.00114
1506.05949	0.00105
1504.13111	0.00094
1502.20274	0.00093
1500.27437	0.00099
1498.34599	0.00108
1496.41762	0.00108
1494.48925	0.00094
1492.56087	0.00085
1490.63250	0.00089
1488.70413	0.00094
1486.77575	0.00086
1484.84738	0.00075
1482.91901	0.00078
1480.99063	0.00091
1479.06226	0.00101
1477.13389	0.00112
1475.20551	0.00123
1473.27714	0.00121
1471.34877	0.00105
1469.42039	0.00094
1467.49202	0.00107
1465.56365	0.00131
1463.63527	0.00135
1461.70690	0.00125
1459.77853	0.00131
1457.85016	0.00152
1455.92178	0.00138
1453.99341	0.00108
1452.06504	0.00103
1450.13666	0.00113
1448.20829	0.00111
1446.27992	0.00099
1444.35154	0.00096
1442.42317	0.00106
1440.49480	0.00124
1438.56642	0.00141
1436.63805	0.00151
1434.70968	0.00147
1432.78130	0.00136
1430.85293	0.00130
1428.92456	0.00129
1426.99618	0.00128
1425.06781	0.00133
1423.13944	0.00142
1421.21106	0.00147
1419.28269	0.00141
1417.35432	0.00119
1415.42594	0.00101
1413.49757	0.00100
1411.56920	0.00109
1409.64082	0.00113
1407.71245	0.00114
1405.78408	0.00127
1403.85570	0.00151
1401.92733	0.00171
1399.99896	0.00179
1398.07059	0.00173
1396.14221	0.00166
1394.21384	0.00164
1392.28547	0.00155
1390.35709	0.00148
1388.42872	0.00157
1386.50035	0.00166
1384.57197	0.00160
1382.64360	0.00154
1380.71523	0.00150
1378.78685	0.00149
1376.85848	0.00159
1374.93011	0.00171
1373.00173	0.00173
1371.07336	0.00168
1369.14499	0.00167
1367.21661	0.00171
1365.28824	0.00172
1363.35987	0.00170
1361.43149	0.00164
1359.50312	0.00156
1357.57475	0.00148
1355.64637	0.00145
1353.71800	0.00141
1351.78963	0.00133
1349.86125	0.00134
1347.93288	0.00143
1346.00451	0.00140
1344.07614	0.00132
1342.14776	0.00142
1340.21939	0.00161
1338.29102	0.00160
1336.36264	0.00141
1334.43427	0.00132
1332.50590	0.00136
1330.57752	0.00135
1328.64915	0.00130
1326.72078	0.00127
1324.79240	0.00126
1322.86403	0.00135
1320.93566	0.00152
1319.00728	0.00166
1317.07891	0.00173
1315.15054	0.00175
1313.22216	0.00172
1311.29379	0.00167
1309.36542	0.00161
1307.43704	0.00154
1305.50867	0.00146
1303.58030	0.00144
1301.65192	0.00153
1299.72355	0.00165
1297.79518	0.00168
1295.86680	0.00166
1293.93843	0.00165
1292.01006	0.00160
1290.08168	0.00152
1288.15331	0.00149
1286.22494	0.00150
1284.29657	0.00150
1282.36819	0.00157
1280.43982	0.00169
1278.51145	0.00173
1276.58307	0.00172
1274.65470	0.00178
1272.72633	0.00190
1270.79795	0.00189
1268.86958	0.00181
1266.94121	0.00181
1265.01283	0.00196
1263.08446	0.00224
1261.15609	0.00240
1259.22771	0.00232
1257.29934	0.00218
1255.37097	0.00204
1253.44259	0.00192
1251.51422	0.00199
1249.58585	0.00224
1247.65747	0.00247
1245.72910	0.00255
1243.80073	0.00244
1241.87235	0.00224
1239.94398	0.00209
1238.01561	0.00202
1236.08723	0.00206
1234.15886	0.00216
1232.23049	0.00230
1230.30212	0.00247
1228.37374	0.00260
1226.44537	0.00254
1224.51700	0.00242
1222.58862	0.00253
1220.66025	0.00270
1218.73188	0.00271
1216.80350	0.00287
1214.87513	0.00321
1212.94676	0.00325
1211.01838	0.00302
1209.09001	0.00302
1207.16164	0.00320
1205.23326	0.00317
1203.30489	0.00307
1201.37652	0.00312
1199.44814	0.00334
1197.51977	0.00367
1195.59140	0.00399
1193.66302	0.00435
1191.73465	0.00481
1189.80628	0.00507
1187.87790	0.00510
1185.94953	0.00509
1184.02116	0.00499
1182.09278	0.00486
1180.16441	0.00487
1178.23604	0.00474
1176.30766	0.00418
1174.37929	0.00345
1172.45092	0.00297
1170.52255	0.00286
1168.59417	0.00289
1166.66580	0.00299
1164.73743	0.00312
1162.80905	0.00319
1160.88068	0.00322
1158.95231	0.00337
1157.02393	0.00346
1155.09556	0.00328
1153.16719	0.00291
1151.23881	0.00274
1149.31044	0.00296
1147.38207	0.00320
1145.45369	0.00323
1143.52532	0.00323
1141.59695	0.00344
1139.66857	0.00356
1137.74020	0.00338
1135.81183	0.00305
1133.88345	0.00286
1131.95508	0.00281
1130.02671	0.00279
1128.09833	0.00294
1126.16996	0.00321
1124.24159	0.00338
1122.31321	0.00341
1120.38484	0.00337
1118.45647	0.00344
1116.52809	0.00356
1114.59972	0.00343
1112.67135	0.00324
1110.74298	0.00324
1108.81460	0.00313
1106.88623	0.00298
1104.95786	0.00310
1103.02948	0.00336
1101.10111	0.00348
1099.17274	0.00351
1097.24436	0.00365
1095.31599	0.00383
1093.38762	0.00370
1091.45924	0.00339
1089.53087	0.00328
1087.60250	0.00339
1085.67412	0.00357
1083.74575	0.00366
1081.81738	0.00357
1079.88900	0.00364
1077.96063	0.00392
1076.03226	0.00399
1074.10388	0.00395
1072.17551	0.00405
1070.24714	0.00404
1068.31876	0.00377
1066.39039	0.00354
1064.46202	0.00368
1062.53364	0.00386
1060.60527	0.00362
1058.67690	0.00319
1056.74853	0.00315
1054.82015	0.00347
1052.89178	0.00372
1050.96341	0.00366
1049.03503	0.00360
1047.10666	0.00373
1045.17829	0.00383
1043.24991	0.00374
1041.32154	0.00355
1039.39317	0.00349
1037.46479	0.00358
1035.53642	0.00356
1033.60805	0.00332
1031.67967	0.00307
1029.75130	0.00299
1027.82293	0.00297
1025.89455	0.00295
1023.96618	0.00306
1022.03781	0.00329
1020.10943	0.00336
1018.18106	0.00310
1016.25269	0.00269
1014.32431	0.00242
1012.39594	0.00244
1010.46757	0.00269
1008.53919	0.00301
1006.61082	0.00325
1004.68245	0.00326
1002.75407	0.00304
1000.82570	0.00290
998.89733	0.00305
996.96896	0.00318
995.04058	0.00309
993.11221	0.00311
991.18384	0.00345
989.25546	0.00395
987.32709	0.00434
985.39872	0.00446
983.47034	0.00457
981.54197	0.00488
979.61360	0.00515
977.68522	0.00526
975.75685	0.00551
973.82848	0.00629
971.90010	0.00773
969.97173	0.00988
968.04336	0.01256
966.11498	0.01519
964.18661	0.01687
962.25824	0.01667
960.32986	0.01431
958.40149	0.01078
956.47312	0.00780
954.54474	0.00658
952.61637	0.00710
950.68800	0.00889
948.75962	0.01159
946.83125	0.01453
944.90288	0.01721
942.97451	0.01963
941.04613	0.02184
939.11776	0.02380
937.18939	0.02536
935.26101	0.02634
933.33264	0.02680
931.40427	0.02698
929.47589	0.02690
927.54752	0.02641
925.61915	0.02550
923.69077	0.02432
921.76240	0.02316
919.83403	0.02240
917.90565	0.02214
915.97728	0.02219
914.04891	0.02198
912.12053	0.02090
910.19216	0.01903
908.26379	0.01716
906.33541	0.01553
904.40704	0.01376
902.47867	0.01193
900.55029	0.01024
898.62192	0.00879
896.69355	0.00774
894.76517	0.00713
892.83680	0.00692
890.90843	0.00690
888.98005	0.00688
887.05168	0.00686
885.12331	0.00688
883.19494	0.00691
881.26656	0.00677
879.33819	0.00651
877.40982	0.00639
875.48144	0.00628
873.55307	0.00611
871.62470	0.00609
869.69632	0.00610
867.76795	0.00610
865.83958	0.00647
863.91120	0.00694
861.98283	0.00680
860.05446	0.00630
858.12608	0.00612
856.19771	0.00626
854.26934	0.00619
852.34096	0.00574
850.41259	0.00516
848.48422	0.00471
846.55584	0.00464
844.62747	0.00493
842.69910	0.00533
840.77072	0.00554
838.84235	0.00533
836.91398	0.00513
834.98560	0.00526
833.05723	0.00530
831.12886	0.00520
829.20049	0.00519
827.27211	0.00524
825.34374	0.00529
823.41537	0.00552
821.48699	0.00572
819.55862	0.00561
817.63025	0.00541
815.70187	0.00545
813.77350	0.00551
811.84513	0.00572
809.91675	0.00601
807.98838	0.00597
806.06001	0.00578
804.13163	0.00571
802.20326	0.00558
800.27489	0.00562
798.34651	0.00604
796.41814	0.00632
794.48977	0.00618
792.56139	0.00591
790.63302	0.00564
788.70465	0.00532
786.77627	0.00531
784.84790	0.00564
782.91953	0.00576
780.99115	0.00553
779.06278	0.00530
777.13441	0.00524
775.20603	0.00531
773.27766	0.00535
771.34929	0.00528
769.42092	0.00523
767.49254	0.00541
765.56417	0.00563
763.63580	0.00571
761.70742	0.00594
759.77905	0.00626
757.85068	0.00618
755.92230	0.00567
753.99393	0.00532
752.06556	0.00538
750.13718	0.00552
748.20881	0.00554
746.28044	0.00542
744.35206	0.00539
742.42369	0.00559
740.49532	0.00580
738.56694	0.00574
736.63857	0.00566
734.71020	0.00601
732.78182	0.00636
730.85345	0.00638
728.92508	0.00654
726.99670	0.00672
725.06833	0.00651
723.13996	0.00626
721.21158	0.00622
719.28321	0.00604
717.35484	0.00582
715.42647	0.00610
713.49809	0.00661
711.56972	0.00680
709.64135	0.00677
707.71297	0.00690
705.78460	0.00696
703.85623	0.00688
701.92785	0.00711
699.99948	0.00751
698.07111	0.00760
696.14273	0.00735
694.21436	0.00741
692.28599	0.00790
690.35761	0.00833
688.42924	0.00885
686.50087	0.00971
684.57249	0.01011
682.64412	0.00966
680.71575	0.00938
678.78737	0.00955
676.85900	0.00972
674.93063	0.00998
673.00225	0.01018
671.07388	0.01111
669.14551	0.01378
667.21713	0.01476
665.28876	0.01252
663.36039	0.01119
661.43201	0.01126
659.50364	0.01151
657.57527	0.01166
655.64690	0.01221
653.71852	0.01278
651.79015	0.01256
649.86178	0.01270
647.93340	0.01383
646.00503	0.01460
644.07666	0.01458
642.14828	0.01452
640.21991	0.01452
638.29154	0.01481
636.36316	0.01514
634.43479	0.01467
632.50642	0.01415
630.57804	0.01466
628.64967	0.01563
626.72130	0.01639
624.79292	0.01690
622.86455	0.01710
620.93618	0.01747
619.00780	0.01894
617.07943	0.02011
615.15106	0.02007
613.22268	0.02086
611.29431	0.02245
609.36594	0.02349
607.43756	0.02572
605.50919	0.02921
603.58082	0.03093
601.65244	0.03042
599.72407	0.03012
