3997.51769	0.45008
3995.58931	0.45042
3993.66094	0.45079
3991.73257	0.45128
3989.80419	0.45190
3987.87582	0.45218
3985.94745	0.45226
3984.01907	0.45223
3982.09070	0.45185
3980.16233	0.45144
3978.23396	0.45149
3976.30558	0.45179
3974.37721	0.45177
3972.44884	0.45143
3970.52046	0.45123
3968.59209	0.45162
3966.66372	0.45239
3964.73534	0.45307
3962.80697	0.45389
3960.87860	0.45496
3958.95022	0.45583
3957.02185	0.45637
3955.09348	0.45685
3953.16510	0.45775
3951.23673	0.45904
3949.30836	0.45961
3947.37998	0.45932
3945.45161	0.45943
3943.52324	0.46012
3941.59486	0.46042
3939.66649	0.46058
3937.73812	0.46121
3935.80974	0.46217
3933.88137	0.46366
3931.95300	0.46521
3930.02462	0.46556
3928.09625	0.46529
3926.16788	0.46581
3924.23950	0.46687
3922.31113	0.46749
3920.38276	0.46807
3918.45439	0.46897
3916.52601	0.46907
3914.59764	0.46828
3912.66927	0.46817
3910.74089	0.46894
3908.81252	0.46994
3906.88415	0.47205
3904.95577	0.47581
3903.02740	0.47898
3901.09903	0.47999
3899.17065	0.47911
3897.24228	0.47703
3895.31391	0.47621
3893.38553	0.47756
3891.45716	0.47859
3889.52879	0.47816
3887.60041	0.47898
3885.67204	0.48087
3883.74367	0.48216
3881.81529	0.48366
3879.88692	0.48402
3877.95855	0.48236
3876.03017	0.48215
3874.10180	0.48444
3872.17343	0.48792
3870.24505	0.49067
3868.31668	0.49066
3866.38831	0.49043
3864.45994	0.49180
3862.53156	0.49170
3860.60319	0.48981
3858.67482	0.48902
3856.74644	0.49047
3854.81807	0.49492
3852.88970	0.49910
3850.96132	0.49645
3849.03295	0.49226
3847.10458	0.49041
3845.17620	0.49121
3843.24783	0.49353
3841.31946	0.49612
3839.39108	0.49832
3837.46271	0.49828
3835.53434	0.49577
3833.60596	0.49344
3831.67759	0.49201
3829.74922	0.49137
3827.82084	0.49162
3825.89247	0.49235
3823.96410	0.49442
3822.03572	0.49850
3820.10735	0.50018
3818.17898	0.49799
3816.25060	0.49534
3814.32223	0.49236
3812.39386	0.49053
3810.46548	0.49108
3808.53711	0.49302
3806.60874	0.49380
3804.68037	0.49347
3802.75199	0.49483
3800.82362	0.49594
3798.89525	0.49447
3796.96687	0.49264
3795.03850	0.49061
3793.11013	0.48856
3791.18175	0.48738
3789.25338	0.48716
3787.32501	0.48774
3785.39663	0.48839
3783.46826	0.48833
3781.53989	0.48819
3779.61151	0.48816
3777.68314	0.48704
3775.75477	0.48553
3773.82639	0.48524
3771.89802	0.48638
3769.96965	0.48741
3768.04127	0.48660
3766.11290	0.48495
3764.18453	0.48356
3762.25615	0.48340
3760.32778	0.48469
3758.39941	0.48534
3756.47103	0.48489
3754.54266	0.48552
3752.61429	0.48819
3750.68591	0.49021
3748.75754	0.48865
3746.82917	0.48721
3744.90080	0.48589
3742.97242	0.48199
3741.04405	0.47868
3739.11568	0.47868
3737.18730	0.48150
3735.25893	0.48326
3733.33056	0.47967
3731.40218	0.47380
3729.47381	0.47006
3727.54544	0.46896
3725.61706	0.46889
3723.68869	0.46762
3721.76032	0.46486
3719.83194	0.46175
3717.90357	0.45887
3715.97520	0.45718
3714.04682	0.45767
3712.11845	0.45925
3710.19008	0.45712
3708.26170	0.45086
3706.33333	0.44516
3704.40496	0.44175
3702.47658	0.43933
3700.54821	0.43543
3698.61984	0.43026
3696.69146	0.42504
3694.76309	0.42060
3692.83472	0.41777
3690.90635	0.41527
3688.97797	0.40896
3687.04960	0.39819
3685.12123	0.38816
3683.19285	0.37996
3681.26448	0.37235
3679.33611	0.36559
3677.40773	0.35966
3675.47936	0.34998
3673.55099	0.33661
3671.62261	0.32542
3669.69424	0.31234
3667.76587	0.29732
3665.83749	0.28466
3663.90912	0.27311
3661.98075	0.26167
3660.05237	0.25033
3658.12400	0.23878
3656.19563	0.22561
3654.26725	0.21307
3652.33888	0.20389
3650.41051	0.19490
3648.48213	0.18162
3646.55376	0.16685
3644.62539	0.15514
3642.69701	0.14550
3640.76864	0.13624
3638.84027	0.12683
3636.91189	0.11767
3634.98352	0.10922
3633.05515	0.10187
3631.12678	0.09569
3629.19840	0.08846
3627.27003	0.08004
3625.34166	0.07360
3623.41328	0.06841
3621.48491	0.06356
3619.55654	0.05830
3617.62816	0.05291
3615.69979	0.04837
3613.77142	0.04408
3611.84304	0.03992
3609.91467	0.03620
3607.98630	0.03276
3606.05792	0.02987
3604.12955	0.02759
3602.20118	0.02537
3600.27280	0.02314
3598.34443	0.02105
3596.41606	0.01907
3594.48768	0.01702
3592.55931	0.01509
3590.63094	0.01395
3588.70256	0.01318
3586.77419	0.01203
3584.84582	0.01098
3582.91744	0.01011
3580.98907	0.00901
3579.06070	0.00778
3577.13233	0.00649
3575.20395	0.00507
3573.27558	0.00418
3571.34721	0.00412
3569.41883	0.00436
3567.49046	0.00393
3565.56209	0.00336
3563.63371	0.00324
3561.70534	0.00304
3559.77697	0.00267
3557.84859	0.00240
3555.92022	0.00233
3553.99185	0.00216
3552.06347	0.00182
3550.13510	0.00171
3548.20673	0.00150
3546.27835	0.00111
3544.34998	0.00085
3542.42161	0.00081
3540.49323	0.00102
3538.56486	0.00111
3536.63649	0.00061
3534.70811	0.00062
3532.77974	0.00120
3530.85137	0.00144
3528.92299	0.00129
3526.99462	0.00079
3525.06625	0.00062
3523.13787	0.00069
3521.20950	0.00110
3519.28113	0.00113
3517.35276	0.00095
3515.42438	0.00112
3513.49601	0.00092
3511.56764	0.00033
3509.63926	0.00052
3507.71089	0.00033
3505.78252	0.00068
3503.85414	0.00091
3501.92577	0.00102
3499.99740	0.00130
3498.06902	0.00140
3496.14065	0.00136
3494.21228	0.00114
3492.28390	0.00106
3490.35553	0.00080
3488.42716	0.00032
3486.49878	0.00061
3484.57041	0.00087
3482.64204	0.00110
3480.71366	0.00100
3478.78529	0.00063
3476.85692	0.00036
3474.92854	0.00060
3473.00017	0.00058
3471.07180	0.00069
3469.14342	0.00123
3467.21505	0.00111
3465.28668	0.00093
3463.35831	0.00109
3461.42993	0.00088
3459.50156	0.00051
3457.57319	0.00061
3455.64481	0.00054
3453.71644	0.00066
3451.78807	0.00103
3449.85969	0.00109
3447.93132	0.00100
3446.00295	0.00106
3444.07457	0.00108
3442.14620	0.00106
3440.21783	0.00117
3438.28945	0.00118
3436.36108	0.00119
3434.43271	0.00108
3432.50433	0.00111
3430.57596	0.00117
3428.64759	0.00108
3426.71921	0.00080
3424.79084	0.00074
3422.86247	0.00079
3420.93409	0.00092
3419.00572	0.00149
3417.07735	0.00159
3415.14897	0.00092
3413.22060	0.00079
3411.29223	0.00083
3409.36385	0.00099
3407.43548	0.00077
3405.50711	0.00047
3403.57874	0.00045
3401.65036	0.00038
3399.72199	0.00028
3397.79362	0.00036
3395.86524	0.00068
3393.93687	0.00096
3392.00850	0.00091
3390.08012	0.00074
3388.15175	0.00049
3386.22338	0.00043
3384.29500	0.00050
3382.36663	0.00057
3380.43826	0.00063
3378.50988	0.00054
3376.58151	0.00065
3374.65314	0.00089
3372.72476	0.00063
3370.79639	0.00088
3368.86802	0.00123
3366.93964	0.00099
3365.01127	0.00061
3363.08290	0.00040
3361.15452	0.00077
3359.22615	0.00119
3357.29778	0.00107
3355.36940	0.00048
3353.44103	0.00041
3351.51266	0.00073
3349.58428	0.00093
3347.65591	0.00077
3345.72754	0.00101
3343.79917	0.00108
3341.87079	0.00103
3339.94242	0.00102
3338.01405	0.00079
3336.08567	0.00056
3334.15730	0.00071
3332.22893	0.00123
3330.30055	0.00107
3328.37218	0.00110
3326.44381	0.00122
3324.51543	0.00085
3322.58706	0.00046
3320.65869	0.00085
3318.73031	0.00136
3316.80194	0.00176
3314.87357	0.00182
3312.94519	0.00162
3311.01682	0.00117
3309.08845	0.00040
3307.16007	0.00035
3305.23170	0.00055
3303.30333	0.00048
3301.37495	0.00061
3299.44658	0.00064
3297.51821	0.00069
3295.58983	0.00063
3293.66146	0.00034
3291.73309	0.00038
3289.80472	0.00057
3287.87634	0.00084
3285.94797	0.00112
3284.01960	0.00127
3282.09122	0.00135
3280.16285	0.00090
3278.23448	0.00088
3276.30610	0.00075
3274.37773	0.00056
3272.44936	0.00064
3270.52098	0.00102
3268.59261	0.00099
3266.66424	0.00107
3264.73586	0.00116
3262.80749	0.00083
3260.87912	0.00057
3258.95074	0.00070
3257.02237	0.00092
3255.09400	0.00105
3253.16562	0.00096
3251.23725	0.00091
3249.30888	0.00130
3247.38050	0.00131
3245.45213	0.00080
3243.52376	0.00057
3241.59538	0.00053
3239.66701	0.00029
3237.73864	0.00047
3235.81026	0.00059
3233.88189	0.00036
3231.95352	0.00041
3230.02515	0.00082
3228.09677	0.00092
3226.16840	0.00081
3224.24003	0.00069
3222.31165	0.00052
3220.38328	0.00065
3218.45491	0.00073
3216.52653	0.00052
3214.59816	0.00060
3212.66979	0.00080
3210.74141	0.00060
3208.81304	0.00067
3206.88467	0.00105
3204.95629	0.00093
3203.02792	0.00065
3201.09955	0.00079
3199.17117	0.00071
3197.24280	0.00101
3195.31443	0.00152
3193.38605	0.00147
3191.45768	0.00113
3189.52931	0.00116
3187.60093	0.00116
3185.67256	0.00097
3183.74419	0.00041
3181.81581	0.00069
3179.88744	0.00112
3177.95907	0.00113
3176.03070	0.00147
3174.10232	0.00152
3172.17395	0.00123
3170.24558	0.00124
3168.31720	0.00126
3166.38883	0.00102
3164.46046	0.00065
3162.53208	0.00078
3160.60371	0.00078
3158.67534	0.00072
3156.74696	0.00056
3154.81859	0.00049
3152.89022	0.00052
3150.96184	0.00055
3149.03347	0.00056
3147.10510	0.00066
3145.17672	0.00091
3143.24835	0.00075
3141.31998	0.00103
3139.39160	0.00146
3137.46323	0.00138
3135.53486	0.00150
3133.60648	0.00138
3131.67811	0.00086
3129.74974	0.00083
3127.82136	0.00082
3125.89299	0.00070
3123.96462	0.00063
3122.03624	0.00083
3120.10787	0.00076
3118.17950	0.00049
3116.25113	0.00058
3114.32275	0.00103
3112.39438	0.00114
3110.46601	0.00102
3108.53763	0.00069
3106.60926	0.00097
3104.68089	0.00071
3102.75251	0.00088
3100.82414	0.00086
3098.89577	0.00071
3096.96739	0.00045
3095.03902	0.00032
3093.11065	0.00069
3091.18227	0.00058
3089.25390	0.00055
3087.32553	0.00077
3085.39715	0.00103
3083.46878	0.00091
3081.54041	0.00048
3079.61203	0.00048
3077.68366	0.00062
3075.75529	0.00064
3073.82691	0.00052
3071.89854	0.00032
3069.97017	0.00065
3068.04179	0.00083
3066.11342	0.00128
3064.18505	0.00131
3062.25668	0.00080
3060.32830	0.00035
3058.39993	0.00044
3056.47156	0.00045
3054.54318	0.00043
3052.61481	0.00074
3050.68644	0.00113
3048.75806	0.00067
3046.82969	0.00083
3044.90132	0.00110
3042.97294	0.00087
3041.04457	0.00074
3039.11620	0.00098
3037.18782	0.00104
3035.25945	0.00066
3033.33108	0.00042
3031.40270	0.00051
3029.47433	0.00090
3027.54596	0.00109
3025.61758	0.00064
3023.68921	0.00064
3021.76084	0.00071
3019.83246	0.00037
3017.90409	0.00029
3015.97572	0.00040
3014.04734	0.00070
3012.11897	0.00104
3010.19060	0.00117
3008.26222	0.00106
3006.33385	0.00058
3004.40548	0.00068
3002.47711	0.00099
3000.54873	0.00095
2998.62036	0.00069
2996.69199	0.00057
2994.76361	0.00094
2992.83524	0.00081
2990.90687	0.00040
2988.97849	0.00032
2987.05012	0.00090
2985.12175	0.00153
2983.19337	0.00126
2981.26500	0.00086
2979.33663	0.00142
2977.40825	0.00163
2975.47988	0.00123
2973.55151	0.00064
2971.62313	0.00059
2969.69476	0.00086
2967.76639	0.00080
2965.83801	0.00091
2963.90964	0.00113
2961.98127	0.00137
2960.05289	0.00124
2958.12452	0.00110
2956.19615	0.00144
2954.26777	0.00154
2952.33940	0.00126
2950.41103	0.00119
2948.48266	0.00100
2946.55428	0.00066
2944.62591	0.00066
2942.69754	0.00118
2940.76916	0.00093
2938.84079	0.00117
2936.91242	0.00179
2934.98404	0.00157
2933.05567	0.00102
2931.12730	0.00052
2929.19892	0.00048
2927.27055	0.00083
2925.34218	0.00102
2923.41380	0.00130
2921.48543	0.00137
2919.55706	0.00079
2917.62868	0.00045
2915.70031	0.00070
2913.77194	0.00091
2911.84356	0.00080
2909.91519	0.00041
2907.98682	0.00044
2906.05844	0.00097
2904.13007	0.00097
2902.20170	0.00064
2900.27332	0.00079
2898.34495	0.00080
2896.41658	0.00075
2894.48820	0.00110
2892.55983	0.00128
2890.63146	0.00147
2888.70309	0.00151
2886.77471	0.00148
2884.84634	0.00106
2882.91797	0.00057
2880.98959	0.00091
2879.06122	0.00085
2877.13285	0.00110
2875.20447	0.00128
2873.27610	0.00087
2871.34773	0.00051
2869.41935	0.00094
2867.49098	0.00093
2865.56261	0.00091
2863.63423	0.00076
2861.70586	0.00073
2859.77749	0.00087
2857.84911	0.00060
2855.92074	0.00062
2853.99237	0.00085
2852.06399	0.00067
2850.13562	0.00126
2848.20725	0.00131
2846.27887	0.00079
2844.35050	0.00062
2842.42213	0.00068
2840.49375	0.00062
2838.56538	0.00080
2836.63701	0.00127
2834.70863	0.00128
2832.78026	0.00063
2830.85189	0.00061
2828.92352	0.00069
2826.99514	0.00071
2825.06677	0.00065
2823.13840	0.00064
2821.21002	0.00041
2819.28165	0.00025
2817.35328	0.00007
2815.42490	0.00025
2813.49653	0.00041
2811.56816	0.00063
2809.63978	0.00049
2807.71141	0.00048
2805.78304	0.00062
2803.85466	0.00045
2801.92629	0.00037
2799.99792	0.00046
2798.06954	0.00055
2796.14117	0.00052
2794.21280	0.00074
2792.28442	0.00074
2790.35605	0.00099
2788.42768	0.00111
2786.49930	0.00074
2784.57093	0.00044
2782.64256	0.00043
2780.71418	0.00053
2778.78581	0.00060
2776.85744	0.00052
2774.92907	0.00035
2773.00069	0.00036
2771.07232	0.00025
2769.14395	0.00016
2767.21557	0.00054
2765.28720	0.00078
2763.35883	0.00079
2761.43045	0.00073
2759.50208	0.00070
2757.57371	0.00088
2755.64533	0.00106
2753.71696	0.00093
2751.78859	0.00074
2749.86021	0.00079
2747.93184	0.00069
2746.00347	0.00031
2744.07509	0.00022
2742.14672	0.00058
2740.21835	0.00085
2738.28997	0.00083
2736.36160	0.00067
2734.43323	0.00062
2732.50485	0.00032
2730.57648	0.00049
2728.64811	0.00106
2726.71973	0.00138
2724.79136	0.00116
2722.86299	0.00069
2720.93461	0.00049
2719.00624	0.00105
2717.07787	0.00139
2715.14950	0.00131
2713.22112	0.00118
2711.29275	0.00107
2709.36438	0.00094
2707.43600	0.00118
2705.50763	0.00161
2703.57926	0.00172
2701.65088	0.00138
2699.72251	0.00109
2697.79414	0.00102
2695.86576	0.00111
2693.93739	0.00129
2692.00902	0.00169
2690.08064	0.00199
2688.15227	0.00209
2686.22390	0.00193
2684.29552	0.00165
2682.36715	0.00142
2680.43878	0.00155
2678.51040	0.00204
2676.58203	0.00226
2674.65366	0.00201
2672.72528	0.00181
2670.79691	0.00187
2668.86854	0.00211
2666.94016	0.00214
2665.01179	0.00208
2663.08342	0.00206
2661.15505	0.00210
2659.22667	0.00222
2657.29830	0.00234
2655.36993	0.00241
2653.44155	0.00243
2651.51318	0.00254
2649.58481	0.00292
2647.65643	0.00336
2645.72806	0.00337
2643.79969	0.00305
2641.87131	0.00291
2639.94294	0.00291
2638.01457	0.00297
2636.08619	0.00326
2634.15782	0.00368
2632.22945	0.00395
2630.30107	0.00410
2628.37270	0.00444
2626.44433	0.00483
2624.51595	0.00517
2622.58758	0.00563
2620.65921	0.00607
2618.73083	0.00617
2616.80246	0.00611
2614.87409	0.00625
2612.94571	0.00658
2611.01734	0.00684
2609.08897	0.00699
2607.16059	0.00715
2605.23222	0.00740
2603.30385	0.00781
2601.37548	0.00824
2599.44710	0.00859
2597.51873	0.00879
2595.59036	0.00895
2593.66198	0.00934
2591.73361	0.00992
2589.80524	0.01049
2587.87686	0.01099
2585.94849	0.01138
2584.02012	0.01157
2582.09174	0.01160
2580.16337	0.01177
2578.23500	0.01221
2576.30662	0.01271
2574.37825	0.01309
2572.44988	0.01350
2570.52150	0.01408
2568.59313	0.01458
2566.66476	0.01481
2564.73638	0.01494
2562.80801	0.01516
2560.87964	0.01560
2558.95126	0.01612
2557.02289	0.01650
2555.09452	0.01669
2553.16614	0.01690
2551.23777	0.01743
2549.30940	0.01818
2547.38103	0.01877
2545.45265	0.01915
2543.52428	0.01952
2541.59591	0.01983
2539.66753	0.02011
2537.73916	0.02052
2535.81079	0.02108
2533.88241	0.02159
2531.95404	0.02194
2530.02567	0.02225
2528.09729	0.02270
2526.16892	0.02319
2524.24055	0.02364
2522.31217	0.02420
2520.38380	0.02493
2518.45543	0.02563
2516.52705	0.02611
2514.59868	0.02648
2512.67031	0.02693
2510.74193	0.02762
2508.81356	0.02830
2506.88519	0.02856
2504.95681	0.02861
2503.02844	0.02896
2501.10007	0.02963
2499.17169	0.03028
2497.24332	0.03065
2495.31495	0.03076
2493.38657	0.03090
2491.45820	0.03138
2489.52983	0.03215
2487.60146	0.03294
2485.67308	0.03352
2483.74471	0.03375
2481.81634	0.03394
2479.88796	0.03457
2477.95959	0.03535
2476.03122	0.03584
2474.10284	0.03624
2472.17447	0.03678
2470.24610	0.03738
2468.31772	0.03810
2466.38935	0.03901
2464.46098	0.03994
2462.53260	0.04086
2460.60423	0.04186
2458.67586	0.04292
2456.74748	0.04391
2454.81911	0.04482
2452.89074	0.04562
2450.96236	0.04631
2449.03399	0.04703
2447.10562	0.04794
2445.17724	0.04902
2443.24887	0.04999
2441.32050	0.05077
2439.39212	0.05163
2437.46375	0.05262
2435.53538	0.05355
2433.60700	0.05434
2431.67863	0.05514
2429.75026	0.05604
2427.82189	0.05695
2425.89351	0.05764
2423.96514	0.05832
2422.03677	0.05930
2420.10839	0.06027
2418.18002	0.06102
2416.25165	0.06182
2414.32327	0.06287
2412.39490	0.06405
2410.46653	0.06513
2408.53815	0.06614
2406.60978	0.06724
2404.68141	0.06830
2402.75303	0.06932
2400.82466	0.07041
2398.89629	0.07154
2396.96791	0.07271
2395.03954	0.07400
2393.11117	0.07522
2391.18279	0.07621
2389.25442	0.07726
2387.32605	0.07857
2385.39767	0.07992
2383.46930	0.08122
2381.54093	0.08257
2379.61255	0.08380
2377.68418	0.08468
2375.75581	0.08561
2373.82744	0.08718
2371.89906	0.08930
2369.97069	0.09189
2368.04232	0.09489
2366.11394	0.09712
2364.18557	0.09815
2362.25720	0.09941
2360.32882	0.10110
2358.40045	0.10252
2356.47208	0.10410
2354.54370	0.10480
2352.61533	0.10359
2350.68696	0.10263
2348.75858	0.10310
2346.83021	0.10428
2344.90184	0.10539
2342.97346	0.10579
2341.04509	0.10557
2339.11672	0.10604
2337.18834	0.10768
2335.25997	0.10929
2333.33160	0.11042
2331.40322	0.11136
2329.47485	0.11159
2327.54648	0.11104
2325.61810	0.11100
2323.68973	0.11240
2321.76136	0.11414
2319.83298	0.11496
2317.90461	0.11534
2315.97624	0.11577
2314.04787	0.11637
2312.11949	0.11740
2310.19112	0.11867
2308.26275	0.11967
2306.33437	0.12042
2304.40600	0.12138
2302.47763	0.12269
2300.54925	0.12395
2298.62088	0.12502
2296.69251	0.12618
2294.76413	0.12744
2292.83576	0.12863
2290.90739	0.12952
2288.97901	0.13016
2287.05064	0.13103
2285.12227	0.13216
2283.19389	0.13317
2281.26552	0.13414
2279.33715	0.13530
2277.40877	0.13645
2275.48040	0.13738
2273.55203	0.13822
2271.62365	0.13917
2269.69528	0.14023
2267.76691	0.14114
2265.83853	0.14180
2263.91016	0.14249
2261.98179	0.14334
2260.05342	0.14433
2258.12504	0.14540
2256.19667	0.14635
2254.26830	0.14710
2252.33992	0.14781
2250.41155	0.14855
2248.48318	0.14947
2246.55480	0.15055
2244.62643	0.15150
2242.69806	0.15222
2240.76968	0.15289
2238.84131	0.15368
2236.91294	0.15461
2234.98456	0.15542
2233.05619	0.15587
2231.12782	0.15621
2229.19944	0.15674
2227.27107	0.15747
2225.34270	0.15836
2223.41432	0.15926
2221.48595	0.15985
2219.55758	0.16029
2217.62920	0.16098
2215.70083	0.16192
2213.77246	0.16288
2211.84408	0.16390
2209.91571	0.16486
2207.98734	0.16560
2206.05896	0.16645
2204.13059	0.16747
2202.20222	0.16832
2200.27385	0.16915
2198.34547	0.17018
2196.41710	0.17116
2194.48873	0.17183
2192.56035	0.17242
2190.63198	0.17321
2188.70361	0.17405
2186.77523	0.17485
2184.84686	0.17573
2182.91849	0.17650
2180.99011	0.17691
2179.06174	0.17727
2177.13337	0.17792
2175.20499	0.17863
2173.27662	0.17910
2171.34825	0.17926
2169.41987	0.17929
2167.49150	0.17962
2165.56313	0.18038
2163.63475	0.18115
2161.70638	0.18152
2159.77801	0.18162
2157.84963	0.18190
2155.92126	0.18248
2153.99289	0.18322
2152.06451	0.18385
2150.13614	0.18443
2148.20777	0.18512
2146.27940	0.18582
2144.35102	0.18656
2142.42265	0.18745
2140.49428	0.18837
2138.56590	0.18947
2136.63753	0.19071
2134.70916	0.19164
2132.78078	0.19241
2130.85241	0.19339
2128.92404	0.19464
2126.99566	0.19606
2125.06729	0.19741
2123.13892	0.19857
2121.21054	0.19969
2119.28217	0.20100
2117.35380	0.20251
2115.42542	0.20397
2113.49705	0.20512
2111.56868	0.20592
2109.64030	0.20682
2107.71193	0.20815
2105.78356	0.20952
2103.85518	0.21061
2101.92681	0.21165
2099.99844	0.21262
2098.07006	0.21336
2096.14169	0.21402
2094.21332	0.21472
2092.28494	0.21551
2090.35657	0.21645
2088.42820	0.21719
2086.49983	0.21749
2084.57145	0.21759
2082.64308	0.21764
2080.71471	0.21758
2078.78633	0.21755
2076.85796	0.21764
2074.92959	0.21770
2073.00121	0.21770
2071.07284	0.21767
2069.14447	0.21761
2067.21609	0.21763
2065.28772	0.21780
2063.35935	0.21794
2061.43097	0.21789
2059.50260	0.21784
2057.57423	0.21801
2055.64585	0.21840
2053.71748	0.21884
2051.78911	0.21923
2049.86073	0.21974
2047.93236	0.22059
2046.00399	0.22170
2044.07561	0.22270
2042.14724	0.22337
2040.21887	0.22380
2038.29049	0.22431
2036.36212	0.22492
2034.43375	0.22538
2032.50538	0.22562
2030.57700	0.22575
2028.64863	0.22599
2026.72026	0.22637
2024.79188	0.22661
2022.86351	0.22652
2020.93514	0.22634
2019.00676	0.22628
2017.07839	0.22630
2015.15002	0.22633
2013.22164	0.22634
2011.29327	0.22633
2009.36490	0.22627
2007.43652	0.22622
2005.50815	0.22637
2003.57978	0.22689
2001.65140	0.22761
1999.72303	0.22818
1997.79466	0.22850
1995.86628	0.22882
1993.93791	0.22939
1992.00954	0.22995
1990.08116	0.23011
1988.15279	0.23017
1986.22442	0.23043
1984.29604	0.23072
1982.36767	0.23091
1980.43930	0.23106
1978.51092	0.23137
1976.58255	0.23172
1974.65418	0.23186
1972.72581	0.23203
1970.79743	0.23243
1968.86906	0.23298
1966.94069	0.23334
1965.01231	0.23330
1963.08394	0.23316
1961.15557	0.23314
1959.22719	0.23316
1957.29882	0.23336
1955.37045	0.23366
1953.44207	0.23370
1951.51370	0.23346
1949.58533	0.23339
1947.65695	0.23354
1945.72858	0.23369
1943.80021	0.23381
1941.87183	0.23347
1939.94346	0.23252
1938.01509	0.23169
1936.08671	0.23129
1934.15834	0.23115
1932.22997	0.23096
1930.30159	0.23043
1928.37322	0.22976
1926.44485	0.22940
1924.51647	0.22957
1922.58810	0.22985
1920.65973	0.22987
1918.73135	0.22981
1916.80298	0.22959
1914.87461	0.22911
1912.94624	0.22876
1911.01786	0.22856
1909.08949	0.22819
1907.16112	0.22770
1905.23274	0.22734
1903.30437	0.22705
1901.37600	0.22658
1899.44762	0.22601
1897.51925	0.22560
1895.59088	0.22517
1893.66250	0.22439
1891.73413	0.22346
1889.80576	0.22254
1887.87738	0.22122
1885.94901	0.21959
1884.02064	0.21795
1882.09226	0.21624
1880.16389	0.21464
1878.23552	0.21322
1876.30714	0.21183
1874.37877	0.21038
1872.45040	0.20919
1870.52202	0.20839
1868.59365	0.20708
1866.66528	0.20471
1864.73690	0.20229
1862.80853	0.20040
1860.88016	0.19873
1858.95179	0.19714
1857.02341	0.19566
1855.09504	0.19429
1853.16667	0.19304
1851.23829	0.19185
1849.30992	0.19072
1847.38155	0.18993
1845.45317	0.18949
1843.52480	0.18852
1841.59643	0.18692
1839.66805	0.18561
1837.73968	0.18442
1835.81131	0.18297
1833.88293	0.18171
1831.95456	0.18098
1830.02619	0.18010
1828.09781	0.17845
1826.16944	0.17635
1824.24107	0.17395
1822.31269	0.17150
1820.38432	0.16903
1818.45595	0.16623
1816.52757	0.16314
1814.59920	0.16012
1812.67083	0.15706
1810.74245	0.15333
1808.81408	0.14903
1806.88571	0.14466
1804.95733	0.14035
1803.02896	0.13612
1801.10059	0.13166
1799.17222	0.12665
1797.24384	0.12160
1795.31547	0.11699
1793.38710	0.11213
1791.45872	0.10625
1789.53035	0.10060
1787.60198	0.09580
1785.67360	0.09088
1783.74523	0.08590
1781.81686	0.08152
1779.88848	0.07727
1777.96011	0.07300
1776.03174	0.06925
1774.10336	0.06552
1772.17499	0.06068
1770.24662	0.05535
1768.31824	0.05038
1766.38987	0.04549
1764.46150	0.04089
1762.53312	0.03591
1760.60475	0.03044
1758.67638	0.02552
1756.74800	0.02058
1754.81963	0.01568
1752.89126	0.01142
1750.96288	0.00776
1749.03451	0.00487
1747.10614	0.00287
1745.17777	0.00181
1743.24939	0.00130
1741.32102	0.00087
1739.39265	0.00067
1737.46427	0.00054
1735.53590	0.00104
1733.60753	0.00142
1731.67915	0.00086
1729.75078	0.00057
1727.82241	0.00038
1725.89403	0.00022
1723.96566	0.00027
1722.03729	0.00035
1720.10891	0.00047
1718.18054	0.00077
1716.25217	0.00081
1714.32379	0.00082
1712.39542	0.00085
1710.46705	0.00088
1708.53867	0.00093
1706.61030	0.00107
1704.68193	0.00087
1702.75355	0.00061
1700.82518	0.00072
1698.89681	0.00122
1696.96843	0.00163
1695.04006	0.00160
1693.11169	0.00119
1691.18331	0.00077
1689.25494	0.00065
1687.32657	0.00046
1685.39820	0.00051
1683.46982	0.00095
1681.54145	0.00075
1679.61308	0.00037
1677.68470	0.00043
1675.75633	0.00075
1673.82796	0.00082
1671.89958	0.00086
1669.97121	0.00092
1668.04284	0.00059
1666.11446	0.00054
1664.18609	0.00067
1662.25772	0.00064
1660.32934	0.00041
1658.40097	0.00053
1656.47260	0.00073
1654.54422	0.00141
1652.61585	0.00147
1650.68748	0.00083
1648.75910	0.00063
1646.83073	0.00094
1644.90236	0.00103
1642.97398	0.00080
1641.04561	0.00065
1639.11724	0.00060
1637.18886	0.00036
1635.26049	0.00022
1633.33212	0.00075
1631.40375	0.00105
1629.47537	0.00113
1627.54700	0.00080
1625.61863	0.00047
1623.69025	0.00085
1621.76188	0.00115
1619.83351	0.00096
1617.90513	0.00092
1615.97676	0.00120
1614.04839	0.00089
1612.12001	0.00038
1610.19164	0.00061
1608.26327	0.00061
1606.33489	0.00038
1604.40652	0.00047
1602.47815	0.00065
1600.54977	0.00066
1598.62140	0.00083
1596.69303	0.00109
1594.76465	0.00092
1592.83628	0.00060
1590.90791	0.00050
1588.97953	0.00053
1587.05116	0.00051
1585.12279	0.00056
1583.19441	0.00074
1581.26604	0.00085
1579.33767	0.00102
1577.40929	0.00148
1575.48092	0.00146
1573.55255	0.00099
1571.62418	0.00089
1569.69580	0.00077
1567.76743	0.00057
1565.83906	0.00049
1563.91068	0.00037
1561.98231	0.00056
1560.05394	0.00104
1558.12556	0.00167
1556.19719	0.00122
1554.26882	0.00075
1552.34044	0.00049
1550.41207	0.00037
1548.48370	0.00043
1546.55532	0.00065
1544.62695	0.00071
1542.69858	0.00104
1540.77020	0.00125
1538.84183	0.00124
1536.91346	0.00159
1534.98508	0.00124
1533.05671	0.00085
1531.12834	0.00052
1529.19996	0.00050
1527.27159	0.00025
1525.34322	0.00055
1523.41484	0.00087
1521.48647	0.00125
1519.55810	0.00114
1517.62972	0.00097
1515.70135	0.00101
1513.77298	0.00076
1511.84461	0.00080
1509.91623	0.00106
1507.98786	0.00131
1506.05949	0.00080
1504.13111	0.00060
1502.20274	0.00057
1500.27437	0.00056
1498.34599	0.00037
1496.41762	0.00050
1494.48925	0.00057
1492.56087	0.00059
1490.63250	0.00074
1488.70413	0.00063
1486.77575	0.00052
1484.84738	0.00070
1482.91901	0.00089
1480.99063	0.00084
1479.06226	0.00058
1477.13389	0.00049
1475.20551	0.00067
1473.27714	0.00085
1471.34877	0.00084
1469.42039	0.00084
1467.49202	0.00083
1465.56365	0.00093
1463.63527	0.00090
1461.70690	0.00091
1459.77853	0.00126
1457.85016	0.00118
1455.92178	0.00040
1453.99341	0.00077
1452.06504	0.00094
1450.13666	0.00077
1448.20829	0.00045
1446.27992	0.00029
1444.35154	0.00055
1442.42317	0.00040
1440.49480	0.00082
1438.56642	0.00135
1436.63805	0.00168
1434.70968	0.00145
1432.78130	0.00106
1430.85293	0.00096
1428.92456	0.00058
1426.99618	0.00058
1425.06781	0.00081
1423.13944	0.00089
1421.21106	0.00075
1419.28269	0.00036
1417.35432	0.00041
1415.42594	0.00065
1413.49757	0.00059
1411.56920	0.00063
1409.64082	0.00063
1407.71245	0.00050
1405.78408	0.00029
1403.85570	0.00040
1401.92733	0.00032
1399.99896	0.00052
1398.07059	0.00060
1396.14221	0.00042
1394.21384	0.00044
1392.28547	0.00030
1390.35709	0.00044
1388.42872	0.00049
1386.50035	0.00077
1384.57197	0.00096
1382.64360	0.00109
1380.71523	0.00081
1378.78685	0.00090
1376.85848	0.00077
1374.93011	0.00034
1373.00173	0.00051
1371.07336	0.00033
1369.14499	0.00036
1367.21661	0.00052
1365.28824	0.00037
1363.35987	0.00053
1361.43149	0.00043
1359.50312	0.00055
1357.57475	0.00077
1355.64637	0.00082
1353.71800	0.00110
1351.78963	0.00131
1349.86125	0.00097
1347.93288	0.00069
1346.00451	0.00076
1344.07614	0.00104
1342.14776	0.00119
1340.21939	0.00112
1338.29102	0.00096
1336.36264	0.00074
1334.43427	0.00045
1332.50590	0.00024
1330.57752	0.00042
1328.64915	0.00073
1326.72078	0.00073
1324.79240	0.00052
1322.86403	0.00057
1320.93566	0.00062
1319.00728	0.00035
1317.07891	0.00059
1315.15054	0.00060
1313.22216	0.00054
1311.29379	0.00053
1309.36542	0.00089
1307.43704	0.00105
1305.50867	0.00071
1303.58030	0.00087
1301.65192	0.00122
1299.72355	0.00116
1297.79518	0.00079
1295.86680	0.00058
1293.93843	0.00037
1292.01006	0.00050
1290.08168	0.00045
1288.15331	0.00083
1286.22494	0.00131
1284.29657	0.00095
1282.36819	0.00047
1280.43982	0.00034
1278.51145	0.00097
1276.58307	0.00100
1274.65470	0.00065
1272.72633	0.00054
1270.79795	0.00069
1268.86958	0.00075
1266.94121	0.00079
1265.01283	0.00079
1263.08446	0.00059
1261.15609	0.00033
1259.22771	0.00092
1257.29934	0.00175
1255.37097	0.00156
1253.44259	0.00086
1251.51422	0.00093
1249.58585	0.00112
1247.65747	0.00082
1245.72910	0.00072
1243.80073	0.00053
1241.87235	0.00096
1239.94398	0.00167
1238.01561	0.00163
1236.08723	0.00125
1234.15886	0.00143
1232.23049	0.00200
1230.30212	0.00244
1228.37374	0.00255
1226.44537	0.00201
1224.51700	0.00166
1222.58862	0.00175
1220.66025	0.00125
1218.73188	0.00076
1216.80350	0.00089
1214.87513	0.00147
1212.94676	0.00215
1211.01838	0.00219
1209.09001	0.00169
1207.16164	0.00103
1205.23326	0.00125
1203.30489	0.00252
1201.37652	0.00266
1199.44814	0.00353
1197.51977	0.00339
1195.59140	0.00326
1193.66302	0.00406
1191.73465	0.00488
1189.80628	0.00483
1187.87790	0.00437
1185.94953	0.00386
1184.02116	0.00319
1182.09278	0.00280
1180.16441	0.00296
1178.23604	0.00307
1176.30766	0.00253
1174.37929	0.00177
1172.45092	0.00149
1170.52255	0.00180
1168.59417	0.00219
1166.66580	0.00179
1164.73743	0.00096
1162.80905	0.00045
1160.88068	0.00087
1158.95231	0.00091
1157.02393	0.00119
1155.09556	0.00098
1153.16719	0.00069
1151.23881	0.00101
1149.31044	0.00181
1147.38207	0.00219
1145.45369	0.00164
1143.52532	0.00140
1141.59695	0.00168
1139.66857	0.00189
1137.74020	0.00171
1135.81183	0.00139
1133.88345	0.00141
1131.95508	0.00163
1130.02671	0.00157
1128.09833	0.00146
1126.16996	0.00184
1124.24159	0.00152
1122.31321	0.00144
1120.38484	0.00240
1118.45647	0.00183
1116.52809	0.00117
1114.59972	0.00083
1112.67135	0.00080
1110.74298	0.00116
1108.81460	0.00143
1106.88623	0.00106
1104.95786	0.00146
1103.02948	0.00216
1101.10111	0.00149
1099.17274	0.00134
1097.24436	0.00077
1095.31599	0.00048
1093.38762	0.00109
1091.45924	0.00180
1089.53087	0.00181
1087.60250	0.00153
1085.67412	0.00178
1083.74575	0.00144
1081.81738	0.00093
1079.88900	0.00063
1077.96063	0.00119
1076.03226	0.00197
1074.10388	0.00184
1072.17551	0.00206
1070.24714	0.00195
1068.31876	0.00137
1066.39039	0.00099
1064.46202	0.00133
1062.53364	0.00190
1060.60527	0.00226
1058.67690	0.00192
1056.74853	0.00096
1054.82015	0.00099
1052.89178	0.00168
1050.96341	0.00172
1049.03503	0.00184
1047.10666	0.00223
1045.17829	0.00212
1043.24991	0.00215
1041.32154	0.00286
1039.39317	0.00284
1037.46479	0.00135
1035.53642	0.00103
1033.60805	0.00164
1031.67967	0.00161
1029.75130	0.00105
1027.82293	0.00114
1025.89455	0.00186
1023.96618	0.00193
1022.03781	0.00156
1020.10943	0.00141
1018.18106	0.00164
1016.25269	0.00174
1014.32431	0.00175
1012.39594	0.00141
1010.46757	0.00113
1008.53919	0.00111
1006.61082	0.00075
1004.68245	0.00056
1002.75407	0.00087
1000.82570	0.00100
998.89733	0.00091
996.96896	0.00141
995.04058	0.00215
993.11221	0.00261
991.18384	0.00282
989.25546	0.00313
987.32709	0.00350
985.39872	0.00349
983.47034	0.00308
981.54197	0.00273
979.61360	0.00287
977.68522	0.00371
975.75685	0.00519
973.82848	0.00686
971.90010	0.00816
969.97173	0.00937
968.04336	0.01116
966.11498	0.01307
964.18661	0.01410
962.25824	0.01442
960.32986	0.01349
958.40149	0.01054
956.47312	0.00752
954.54474	0.00636
952.61637	0.00670
950.68800	0.00824
948.75962	0.01045
946.83125	0.01237
944.90288	0.01388
942.97451	0.01541
941.04613	0.01681
939.11776	0.01799
937.18939	0.01906
935.26101	0.01987
933.33264	0.02024
931.40427	0.02042
929.47589	0.02054
927.54752	0.02017
925.61915	0.01916
923.69077	0.01828
921.76240	0.01823
919.83403	0.01803
917.90565	0.01690
915.97728	0.01617
914.04891	0.01656
912.12053	0.01698
910.19216	0.01634
908.26379	0.01470
906.33541	0.01277
904.40704	0.01108
902.47867	0.00958
900.55029	0.00795
898.62192	0.00684
896.69355	0.00649
894.76517	0.00596
892.83680	0.00519
890.90843	0.00523
888.98005	0.00601
887.05168	0.00666
885.12331	0.00654
883.19494	0.00585
881.26656	0.00555
879.33819	0.00574
877.40982	0.00568
875.48144	0.00531
873.55307	0.00512
871.62470	0.00505
869.69632	0.00515
867.76795	0.00532
865.83958	0.00546
863.91120	0.00503
861.98283	0.00483
860.05446	0.00527
858.12608	0.00516
856.19771	0.00444
854.26934	0.00421
852.34096	0.00433
850.41259	0.00437
848.48422	0.00371
846.55584	0.00329
844.62747	0.00399
842.69910	0.00384
840.77072	0.00307
838.84235	0.00366
836.91398	0.00489
834.98560	0.00586
833.05723	0.00553
831.12886	0.00410
829.20049	0.00216
827.27211	0.00074
825.34374	0.00127
823.41537	0.00138
821.48699	0.00174
819.55862	0.00177
817.63025	0.00222
815.70187	0.00280
813.77350	0.00244
811.84513	0.00216
809.91675	0.00300
807.98838	0.00303
806.06001	0.00204
804.13163	0.00164
802.20326	0.00257
800.27489	0.00283
798.34651	0.00241
796.41814	0.00239
794.48977	0.00346
792.56139	0.00412
790.63302	0.00368
788.70465	0.00247
786.77627	0.00190
784.84790	0.00162
782.91953	0.00207
780.99115	0.00142
779.06278	0.00137
777.13441	0.00115
775.20603	0.00174
773.27766	0.00323
771.34929	0.00383
769.42092	0.00317
767.49254	0.00194
765.56417	0.00168
763.63580	0.00241
761.70742	0.00277
759.77905	0.00281
757.85068	0.00254
755.92230	0.00224
753.99393	0.00111
752.06556	0.00124
750.13718	0.00094
748.20881	0.00088
746.28044	0.00159
744.35206	0.00208
742.42369	0.00246
740.49532	0.00260
738.56694	0.00268
736.63857	0.00261
734.71020	0.00260
732.78182	0.00216
730.85345	0.00182
728.92508	0.00217
726.99670	0.00170
725.06833	0.00181
723.13996	0.00299
721.21158	0.00178
719.28321	0.00151
717.35484	0.00275
715.42647	0.00292
713.49809	0.00270
711.56972	0.00237
709.64135	0.00206
707.71297	0.00261
705.78460	0.00315
703.85623	0.00288
701.92785	0.00206
699.99948	0.00223
698.07111	0.00227
696.14273	0.00224
694.21436	0.00248
692.28599	0.00287
690.35761	0.00316
688.42924	0.00311
686.50087	0.00285
684.57249	0.00407
682.64412	0.00238
680.71575	0.00240
678.78737	0.00151
676.85900	0.00232
674.93063	0.00391
673.00225	0.00499
671.07388	0.00542
669.14551	0.00425
667.21713	0.00240
665.28876	0.00469
663.36039	0.00563
661.43201	0.00485
659.50364	0.00564
657.57527	0.00479
655.64690	0.00176
653.71852	0.00303
651.79015	0.00494
649.86178	0.00587
647.93340	0.00663
646.00503	0.00546
644.07666	0.00255
642.14828	0.00115
640.21991	0.00112
638.29154	0.00254
636.36316	0.00417
634.43479	0.00423
632.50642	0.00291
630.57804	0.00425
628.64967	0.00745
626.72130	0.00950
624.79292	0.00854
622.86455	0.00948
620.93618	0.01040
619.00780	0.00896
617.07943	0.00654
615.15106	0.00595
613.22268	0.00730
611.29431	0.00797
609.36594	0.00793
607.43756	0.00767
605.50919	0.00799
603.58082	0.01007
601.65244	0.01349
599.72407	0.01462
