3997.51769	0.15898
3995.58931	0.15950
3993.66094	0.16016
3991.73257	0.16064
3989.80419	0.16036
3987.87582	0.15986
3985.94745	0.16005
3984.01907	0.16057
3982.09070	0.16068
3980.16233	0.16052
3978.23396	0.16047
3976.30558	0.16062
3974.37721	0.16088
3972.44884	0.16108
3970.52046	0.16116
3968.59209	0.16108
3966.66372	0.16078
3964.73534	0.16086
3962.80697	0.16179
3960.87860	0.16283
3958.95022	0.16304
3957.02185	0.16303
3955.09348	0.16358
3953.16510	0.16427
3951.23673	0.16452
3949.30836	0.16450
3947.37998	0.16460
3945.45161	0.16480
3943.52324	0.16474
3941.59486	0.16455
3939.66649	0.16489
3937.73812	0.16566
3935.80974	0.16629
3933.88137	0.16687
3931.95300	0.16739
3930.02462	0.16751
3928.09625	0.16776
3926.16788	0.16841
3924.23950	0.16881
3922.31113	0.16885
3920.38276	0.16922
3918.45439	0.16993
3916.52601	0.17033
3914.59764	0.17031
3912.66927	0.17025
3910.74089	0.17029
3908.81252	0.17081
3906.88415	0.17203
3904.95577	0.17334
3903.02740	0.17420
3901.09903	0.17492
3899.17065	0.17523
3897.24228	0.17487
3895.31391	0.17479
3893.38553	0.17550
3891.45716	0.17627
3889.52879	0.17643
3887.60041	0.17678
3885.67204	0.17750
3883.74367	0.17789
3881.81529	0.17814
3879.88692	0.17832
3877.95855	0.17830
3876.03017	0.17897
3874.10180	0.18025
3872.17343	0.18120
3870.24505	0.18187
3868.31668	0.18223
3866.38831	0.18228
3864.45994	0.18237
3862.53156	0.18215
3860.60319	0.18193
3858.67482	0.18223
3856.74644	0.18303
3854.81807	0.18432
3852.88970	0.18530
3850.96132	0.18459
3849.03295	0.18341
3847.10458	0.18288
3845.17620	0.18319
3843.24783	0.18391
3841.31946	0.18448
3839.39108	0.18466
3837.46271	0.18449
3835.53434	0.18433
3833.60596	0.18438
3831.67759	0.18431
3829.74922	0.18408
3827.82084	0.18405
3825.89247	0.18418
3823.96410	0.18491
3822.03572	0.18659
3820.10735	0.18771
3818.17898	0.18773
3816.25060	0.18743
3814.32223	0.18637
3812.39386	0.18526
3810.46548	0.18490
3808.53711	0.18533
3806.60874	0.18621
3804.68037	0.18695
3802.75199	0.18750
3800.82362	0.18741
3798.89525	0.18653
3796.96687	0.18573
3795.03850	0.18512
3793.11013	0.18468
3791.18175	0.18451
3789.25338	0.18440
3787.32501	0.18402
3785.39663	0.18347
3783.46826	0.18318
3781.53989	0.18328
3779.61151	0.18348
3777.68314	0.18344
3775.75477	0.18322
3773.82639	0.18316
3771.89802	0.18349
3769.96965	0.18372
3768.04127	0.18335
3766.11290	0.18300
3764.18453	0.18267
3762.25615	0.18246
3760.32778	0.18307
3758.39941	0.18371
3756.47103	0.18337
3754.54266	0.18301
3752.61429	0.18340
3750.68591	0.18357
3748.75754	0.18251
3746.82917	0.18158
3744.90080	0.18094
3742.97242	0.17999
3741.04405	0.17938
3739.11568	0.17953
3737.18730	0.18018
3735.25893	0.18033
3733.33056	0.17871
3731.40218	0.17630
3729.47381	0.17518
3727.54544	0.17524
3725.61706	0.17479
3723.68869	0.17312
3721.76032	0.17132
3719.83194	0.17018
3717.90357	0.16959
3715.97520	0.16928
3714.04682	0.16917
3712.11845	0.16925
3710.19008	0.16827
3708.26170	0.16565
3706.33333	0.16307
3704.40496	0.16136
3702.47658	0.15981
3700.54821	0.15729
3698.61984	0.15479
3696.69146	0.15330
3694.76309	0.15196
3692.83472	0.15027
3690.90635	0.14818
3688.97797	0.14451
3687.04960	0.13938
3685.12123	0.13458
3683.19285	0.13037
3681.26448	0.12679
3679.33611	0.12385
3677.40773	0.12075
3675.47936	0.11567
3673.55099	0.10958
3671.62261	0.10482
3669.69424	0.09947
3667.76587	0.09344
3665.83749	0.08829
3663.90912	0.08356
3661.98075	0.07914
3660.05237	0.07508
3658.12400	0.07094
3656.19563	0.06600
3654.26725	0.06101
3652.33888	0.05688
3650.41051	0.05301
3648.48213	0.04904
3646.55376	0.04512
3644.62539	0.04187
3642.69701	0.03917
3640.76864	0.03614
3638.84027	0.03274
3636.91189	0.02970
3634.98352	0.02720
3633.05515	0.02508
3631.12678	0.02334
3629.19840	0.02099
3627.27003	0.01788
3625.34166	0.01588
3623.41328	0.01486
3621.48491	0.01411
3619.55654	0.01313
3617.62816	0.01177
3615.69979	0.01030
3613.77142	0.00887
3611.84304	0.00770
3609.91467	0.00707
3607.98630	0.00668
3606.05792	0.00630
3604.12955	0.00606
3602.20118	0.00591
3600.27280	0.00545
3598.34443	0.00460
3596.41606	0.00394
3594.48768	0.00374
3592.55931	0.00328
3590.63094	0.00253
3588.70256	0.00208
3586.77419	0.00228
3584.84582	0.00244
3582.91744	0.00226
3580.98907	0.00211
3579.06070	0.00191
3577.13233	0.00160
3575.20395	0.00135
3573.27558	0.00082
3571.34721	0.00049
3569.41883	0.00093
3567.49046	0.00135
3565.56209	0.00108
3563.63371	0.00088
3561.70534	0.00084
3559.77697	0.00092
3557.84859	0.00156
3555.92022	0.00164
3553.99185	0.00095
3552.06347	0.00061
3550.13510	0.00094
3548.20673	0.00054
3546.27835	0.00057
3544.34998	0.00083
3542.42161	0.00063
3540.49323	0.00051
3538.56486	0.00068
3536.63649	0.00080
3534.70811	0.00052
3532.77974	0.00079
3530.85137	0.00152
3528.92299	0.00161
3526.99462	0.00104
3525.06625	0.00070
3523.13787	0.00111
3521.20950	0.00106
3519.28113	0.00132
3517.35276	0.00132
3515.42438	0.00119
3513.49601	0.00124
3511.56764	0.00139
3509.63926	0.00106
3507.71089	0.00050
3505.78252	0.00071
3503.85414	0.00100
3501.92577	0.00101
3499.99740	0.00098
3498.06902	0.00135
3496.14065	0.00168
3494.21228	0.00141
3492.28390	0.00136
3490.35553	0.00129
3488.42716	0.00129
3486.49878	0.00099
3484.57041	0.00092
3482.64204	0.00062
3480.71366	0.00058
3478.78529	0.00102
3476.85692	0.00122
3474.92854	0.00069
3473.00017	0.00087
3471.07180	0.00102
3469.14342	0.00081
3467.21505	0.00103
3465.28668	0.00104
3463.35831	0.00059
3461.42993	0.00044
3459.50156	0.00094
3457.57319	0.00100
3455.64481	0.00094
3453.71644	0.00066
3451.78807	0.00046
3449.85969	0.00063
3447.93132	0.00082
3446.00295	0.00088
3444.07457	0.00072
3442.14620	0.00053
3440.21783	0.00030
3438.28945	0.00041
3436.36108	0.00042
3434.43271	0.00048
3432.50433	0.00061
3430.57596	0.00061
3428.64759	0.00040
3426.71921	0.00083
3424.79084	0.00086
3422.86247	0.00075
3420.93409	0.00075
3419.00572	0.00050
3417.07735	0.00070
3415.14897	0.00083
3413.22060	0.00116
3411.29223	0.00144
3409.36385	0.00095
3407.43548	0.00041
3405.50711	0.00069
3403.57874	0.00099
3401.65036	0.00088
3399.72199	0.00063
3397.79362	0.00060
3395.86524	0.00083
3393.93687	0.00085
3392.00850	0.00068
3390.08012	0.00078
3388.15175	0.00114
3386.22338	0.00126
3384.29500	0.00102
3382.36663	0.00087
3380.43826	0.00083
3378.50988	0.00107
3376.58151	0.00104
3374.65314	0.00084
3372.72476	0.00098
3370.79639	0.00058
3368.86802	0.00062
3366.93964	0.00076
3365.01127	0.00053
3363.08290	0.00017
3361.15452	0.00059
3359.22615	0.00091
3357.29778	0.00068
3355.36940	0.00053
3353.44103	0.00066
3351.51266	0.00072
3349.58428	0.00087
3347.65591	0.00102
3345.72754	0.00126
3343.79917	0.00104
3341.87079	0.00079
3339.94242	0.00072
3338.01405	0.00055
3336.08567	0.00062
3334.15730	0.00082
3332.22893	0.00084
3330.30055	0.00061
3328.37218	0.00031
3326.44381	0.00077
3324.51543	0.00092
3322.58706	0.00056
3320.65869	0.00086
3318.73031	0.00103
3316.80194	0.00113
3314.87357	0.00137
3312.94519	0.00144
3311.01682	0.00102
3309.08845	0.00088
3307.16007	0.00117
3305.23170	0.00114
3303.30333	0.00073
3301.37495	0.00044
3299.44658	0.00064
3297.51821	0.00116
3295.58983	0.00125
3293.66146	0.00073
3291.73309	0.00056
3289.80472	0.00084
3287.87634	0.00085
3285.94797	0.00097
3284.01960	0.00117
3282.09122	0.00099
3280.16285	0.00066
3278.23448	0.00077
3276.30610	0.00086
3274.37773	0.00096
3272.44936	0.00092
3270.52098	0.00089
3268.59261	0.00095
3266.66424	0.00095
3264.73586	0.00095
3262.80749	0.00077
3260.87912	0.00076
3258.95074	0.00078
3257.02237	0.00084
3255.09400	0.00084
3253.16562	0.00090
3251.23725	0.00061
3249.30888	0.00038
3247.38050	0.00050
3245.45213	0.00051
3243.52376	0.00037
3241.59538	0.00076
3239.66701	0.00101
3237.73864	0.00137
3235.81026	0.00149
3233.88189	0.00107
3231.95352	0.00050
3230.02515	0.00106
3228.09677	0.00142
3226.16840	0.00120
3224.24003	0.00085
3222.31165	0.00086
3220.38328	0.00102
3218.45491	0.00088
3216.52653	0.00073
3214.59816	0.00087
3212.66979	0.00103
3210.74141	0.00099
3208.81304	0.00068
3206.88467	0.00044
3204.95629	0.00074
3203.02792	0.00088
3201.09955	0.00058
3199.17117	0.00057
3197.24280	0.00102
3195.31443	0.00110
3193.38605	0.00062
3191.45768	0.00017
3189.52931	0.00068
3187.60093	0.00055
3185.67256	0.00059
3183.74419	0.00065
3181.81581	0.00059
3179.88744	0.00053
3177.95907	0.00074
3176.03070	0.00092
3174.10232	0.00105
3172.17395	0.00099
3170.24558	0.00057
3168.31720	0.00069
3166.38883	0.00099
3164.46046	0.00090
3162.53208	0.00064
3160.60371	0.00072
3158.67534	0.00132
3156.74696	0.00155
3154.81859	0.00158
3152.89022	0.00145
3150.96184	0.00079
3149.03347	0.00056
3147.10510	0.00053
3145.17672	0.00047
3143.24835	0.00052
3141.31998	0.00063
3139.39160	0.00068
3137.46323	0.00102
3135.53486	0.00067
3133.60648	0.00014
3131.67811	0.00058
3129.74974	0.00101
3127.82136	0.00083
3125.89299	0.00077
3123.96462	0.00102
3122.03624	0.00079
3120.10787	0.00050
3118.17950	0.00058
3116.25113	0.00086
3114.32275	0.00064
3112.39438	0.00069
3110.46601	0.00065
3108.53763	0.00047
3106.60926	0.00058
3104.68089	0.00055
3102.75251	0.00088
3100.82414	0.00081
3098.89577	0.00056
3096.96739	0.00057
3095.03902	0.00072
3093.11065	0.00068
3091.18227	0.00044
3089.25390	0.00047
3087.32553	0.00030
3085.39715	0.00036
3083.46878	0.00084
3081.54041	0.00090
3079.61203	0.00081
3077.68366	0.00084
3075.75529	0.00091
3073.82691	0.00089
3071.89854	0.00073
3069.97017	0.00103
3068.04179	0.00118
3066.11342	0.00106
3064.18505	0.00117
3062.25668	0.00135
3060.32830	0.00109
3058.39993	0.00087
3056.47156	0.00064
3054.54318	0.00054
3052.61481	0.00098
3050.68644	0.00104
3048.75806	0.00083
3046.82969	0.00079
3044.90132	0.00056
3042.97294	0.00062
3041.04457	0.00103
3039.11620	0.00096
3037.18782	0.00116
3035.25945	0.00121
3033.33108	0.00122
3031.40270	0.00133
3029.47433	0.00109
3027.54596	0.00050
3025.61758	0.00069
3023.68921	0.00095
3021.76084	0.00077
3019.83246	0.00032
3017.90409	0.00035
3015.97572	0.00059
3014.04734	0.00048
3012.11897	0.00041
3010.19060	0.00043
3008.26222	0.00052
3006.33385	0.00050
3004.40548	0.00080
3002.47711	0.00114
3000.54873	0.00086
2998.62036	0.00062
2996.69199	0.00069
2994.76361	0.00055
2992.83524	0.00059
2990.90687	0.00076
2988.97849	0.00051
2987.05012	0.00066
2985.12175	0.00113
2983.19337	0.00129
2981.26500	0.00132
2979.33663	0.00141
2977.40825	0.00117
2975.47988	0.00066
2973.55151	0.00103
2971.62313	0.00135
2969.69476	0.00075
2967.76639	0.00074
2965.83801	0.00088
2963.90964	0.00138
2961.98127	0.00101
2960.05289	0.00043
2958.12452	0.00065
2956.19615	0.00125
2954.26777	0.00126
2952.33940	0.00086
2950.41103	0.00053
2948.48266	0.00091
2946.55428	0.00125
2944.62591	0.00109
2942.69754	0.00047
2940.76916	0.00035
2938.84079	0.00059
2936.91242	0.00033
2934.98404	0.00082
2933.05567	0.00125
2931.12730	0.00100
2929.19892	0.00048
2927.27055	0.00027
2925.34218	0.00038
2923.41380	0.00066
2921.48543	0.00029
2919.55706	0.00090
2917.62868	0.00093
2915.70031	0.00071
2913.77194	0.00088
2911.84356	0.00084
2909.91519	0.00100
2907.98682	0.00097
2906.05844	0.00099
2904.13007	0.00122
2902.20170	0.00144
2900.27332	0.00135
2898.34495	0.00080
2896.41658	0.00036
2894.48820	0.00087
2892.55983	0.00123
2890.63146	0.00075
2888.70309	0.00059
2886.77471	0.00089
2884.84634	0.00070
2882.91797	0.00090
2880.98959	0.00116
2879.06122	0.00090
2877.13285	0.00047
2875.20447	0.00081
2873.27610	0.00085
2871.34773	0.00077
2869.41935	0.00080
2867.49098	0.00090
2865.56261	0.00079
2863.63423	0.00079
2861.70586	0.00056
2859.77749	0.00029
2857.84911	0.00028
2855.92074	0.00035
2853.99237	0.00079
2852.06399	0.00083
2850.13562	0.00093
2848.20725	0.00099
2846.27887	0.00119
2844.35050	0.00122
2842.42213	0.00077
2840.49375	0.00046
2838.56538	0.00047
2836.63701	0.00057
2834.70863	0.00052
2832.78026	0.00066
2830.85189	0.00082
2828.92352	0.00061
2826.99514	0.00095
2825.06677	0.00101
2823.13840	0.00044
2821.21002	0.00022
2819.28165	0.00066
2817.35328	0.00095
2815.42490	0.00112
2813.49653	0.00111
2811.56816	0.00084
2809.63978	0.00032
2807.71141	0.00036
2805.78304	0.00059
2803.85466	0.00062
2801.92629	0.00060
2799.99792	0.00050
2798.06954	0.00055
2796.14117	0.00070
2794.21280	0.00050
2792.28442	0.00028
2790.35605	0.00040
2788.42768	0.00061
2786.49930	0.00053
2784.57093	0.00050
2782.64256	0.00063
2780.71418	0.00047
2778.78581	0.00034
2776.85744	0.00053
2774.92907	0.00072
2773.00069	0.00062
2771.07232	0.00025
2769.14395	0.00040
2767.21557	0.00056
2765.28720	0.00057
2763.35883	0.00055
2761.43045	0.00054
2759.50208	0.00051
2757.57371	0.00029
2755.64533	0.00041
2753.71696	0.00046
2751.78859	0.00033
2749.86021	0.00028
2747.93184	0.00047
2746.00347	0.00058
2744.07509	0.00063
2742.14672	0.00064
2740.21835	0.00060
2738.28997	0.00050
2736.36160	0.00037
2734.43323	0.00034
2732.50485	0.00047
2730.57648	0.00033
2728.64811	0.00042
2726.71973	0.00067
2724.79136	0.00090
2722.86299	0.00093
2720.93461	0.00091
2719.00624	0.00075
2717.07787	0.00067
2715.14950	0.00072
2713.22112	0.00059
2711.29275	0.00041
2709.36438	0.00030
2707.43600	0.00047
2705.50763	0.00050
2703.57926	0.00052
2701.65088	0.00076
2699.72251	0.00072
2697.79414	0.00053
2695.86576	0.00060
2693.93739	0.00059
2692.00902	0.00050
2690.08064	0.00041
2688.15227	0.00034
2686.22390	0.00044
2684.29552	0.00050
2682.36715	0.00064
2680.43878	0.00082
2678.51040	0.00084
2676.58203	0.00071
2674.65366	0.00086
2672.72528	0.00110
2670.79691	0.00121
2668.86854	0.00107
2666.94016	0.00080
2665.01179	0.00075
2663.08342	0.00087
2661.15505	0.00066
2659.22667	0.00071
2657.29830	0.00070
2655.36993	0.00066
2653.44155	0.00059
2651.51318	0.00077
2649.58481	0.00102
2647.65643	0.00099
2645.72806	0.00089
2643.79969	0.00100
2641.87131	0.00119
2639.94294	0.00110
2638.01457	0.00075
2636.08619	0.00051
2634.15782	0.00045
2632.22945	0.00078
2630.30107	0.00102
2628.37270	0.00103
2626.44433	0.00097
2624.51595	0.00095
2622.58758	0.00105
2620.65921	0.00132
2618.73083	0.00150
2616.80246	0.00159
2614.87409	0.00169
2612.94571	0.00171
2611.01734	0.00185
2609.08897	0.00195
2607.16059	0.00179
2605.23222	0.00170
2603.30385	0.00196
2601.37548	0.00239
2599.44710	0.00267
2597.51873	0.00252
2595.59036	0.00218
2593.66198	0.00227
2591.73361	0.00271
2589.80524	0.00300
2587.87686	0.00300
2585.94849	0.00286
2584.02012	0.00277
2582.09174	0.00294
2580.16337	0.00325
2578.23500	0.00339
2576.30662	0.00323
2574.37825	0.00309
2572.44988	0.00314
2570.52150	0.00323
2568.59313	0.00343
2566.66476	0.00385
2564.73638	0.00424
2562.80801	0.00432
2560.87964	0.00420
2558.95126	0.00422
2557.02289	0.00446
2555.09452	0.00480
2553.16614	0.00512
2551.23777	0.00528
2549.30940	0.00521
2547.38103	0.00501
2545.45265	0.00509
2543.52428	0.00552
2541.59591	0.00596
2539.66753	0.00620
2537.73916	0.00628
2535.81079	0.00633
2533.88241	0.00652
2531.95404	0.00668
2530.02567	0.00666
2528.09729	0.00667
2526.16892	0.00681
2524.24055	0.00706
2522.31217	0.00748
2520.38380	0.00782
2518.45543	0.00777
2516.52705	0.00759
2514.59868	0.00779
2512.67031	0.00829
2510.74193	0.00843
2508.81356	0.00818
2506.88519	0.00817
2504.95681	0.00858
2503.02844	0.00907
2501.10007	0.00938
2499.17169	0.00941
2497.24332	0.00934
2495.31495	0.00957
2493.38657	0.00993
2491.45820	0.01010
2489.52983	0.01016
2487.60146	0.01025
2485.67308	0.01033
2483.74471	0.01042
2481.81634	0.01057
2479.88796	0.01077
2477.95959	0.01093
2476.03122	0.01096
2474.10284	0.01109
2472.17447	0.01147
2470.24610	0.01176
2468.31772	0.01175
2466.38935	0.01197
2464.46098	0.01263
2462.53260	0.01325
2460.60423	0.01358
2458.67586	0.01371
2456.74748	0.01374
2454.81911	0.01384
2452.89074	0.01409
2450.96236	0.01446
2449.03399	0.01481
2447.10562	0.01520
2445.17724	0.01558
2443.24887	0.01578
2441.32050	0.01582
2439.39212	0.01606
2437.46375	0.01676
2435.53538	0.01761
2433.60700	0.01816
2431.67863	0.01836
2429.75026	0.01851
2427.82189	0.01875
2425.89351	0.01895
2423.96514	0.01903
2422.03677	0.01919
2420.10839	0.01952
2418.18002	0.01986
2416.25165	0.02015
2414.32327	0.02042
2412.39490	0.02065
2410.46653	0.02091
2408.53815	0.02131
2406.60978	0.02182
2404.68141	0.02224
2402.75303	0.02242
2400.82466	0.02258
2398.89629	0.02297
2396.96791	0.02354
2395.03954	0.02414
2393.11117	0.02468
2391.18279	0.02516
2389.25442	0.02567
2387.32605	0.02610
2385.39767	0.02637
2383.46930	0.02665
2381.54093	0.02717
2379.61255	0.02796
2377.68418	0.02880
2375.75581	0.02942
2373.82744	0.02991
2371.89906	0.03041
2369.97069	0.03110
2368.04232	0.03212
2366.11394	0.03252
2364.18557	0.03204
2362.25720	0.03254
2360.32882	0.03370
2358.40045	0.03386
2356.47208	0.03397
2354.54370	0.03432
2352.61533	0.03439
2350.68696	0.03450
2348.75858	0.03498
2346.83021	0.03597
2344.90184	0.03698
2342.97346	0.03664
2341.04509	0.03518
2339.11672	0.03449
2337.18834	0.03499
2335.25997	0.03562
2333.33160	0.03587
2331.40322	0.03617
2329.47485	0.03696
2327.54648	0.03779
2325.61810	0.03827
2323.68973	0.03856
2321.76136	0.03873
2319.83298	0.03870
2317.90461	0.03878
2315.97624	0.03929
2314.04787	0.03999
2312.11949	0.04049
2310.19112	0.04071
2308.26275	0.04095
2306.33437	0.04149
2304.40600	0.04231
2302.47763	0.04325
2300.54925	0.04390
2298.62088	0.04403
2296.69251	0.04404
2294.76413	0.04421
2292.83576	0.04457
2290.90739	0.04518
2288.97901	0.04585
2287.05064	0.04627
2285.12227	0.04644
2283.19389	0.04657
2281.26552	0.04675
2279.33715	0.04699
2277.40877	0.04734
2275.48040	0.04785
2273.55203	0.04844
2271.62365	0.04896
2269.69528	0.04933
2267.76691	0.04960
2265.83853	0.04980
2263.91016	0.05000
2261.98179	0.05015
2260.05342	0.05024
2258.12504	0.05050
2256.19667	0.05110
2254.26830	0.05176
2252.33992	0.05219
2250.41155	0.05257
2248.48318	0.05296
2246.55480	0.05314
2244.62643	0.05324
2242.69806	0.05357
2240.76968	0.05416
2238.84131	0.05474
2236.91294	0.05501
2234.98456	0.05512
2233.05619	0.05528
2231.12782	0.05529
2229.19944	0.05521
2227.27107	0.05551
2225.34270	0.05604
2223.41432	0.05648
2221.48595	0.05681
2219.55758	0.05704
2217.62920	0.05720
2215.70083	0.05730
2213.77246	0.05733
2211.84408	0.05747
2209.91571	0.05783
2207.98734	0.05814
2206.05896	0.05828
2204.13059	0.05854
2202.20222	0.05904
2200.27385	0.05949
2198.34547	0.05971
2196.41710	0.05993
2194.48873	0.06027
2192.56035	0.06045
2190.63198	0.06042
2188.70361	0.06044
2186.77523	0.06062
2184.84686	0.06089
2182.91849	0.06106
2180.99011	0.06120
2179.06174	0.06154
2177.13337	0.06190
2175.20499	0.06207
2173.27662	0.06219
2171.34825	0.06227
2169.41987	0.06229
2167.49150	0.06238
2165.56313	0.06254
2163.63475	0.06253
2161.70638	0.06248
2159.77801	0.06274
2157.84963	0.06323
2155.92126	0.06362
2153.99289	0.06372
2152.06451	0.06367
2150.13614	0.06381
2148.20777	0.06425
2146.27940	0.06461
2144.35102	0.06478
2142.42265	0.06496
2140.49428	0.06523
2138.56590	0.06554
2136.63753	0.06589
2134.70916	0.06615
2132.78078	0.06647
2130.85241	0.06692
2128.92404	0.06736
2126.99566	0.06786
2125.06729	0.06839
2123.13892	0.06879
2121.21054	0.06910
2119.28217	0.06946
2117.35380	0.06993
2115.42542	0.07047
2113.49705	0.07098
2111.56868	0.07145
2109.64030	0.07189
2107.71193	0.07218
2105.78356	0.07243
2103.85518	0.07289
2101.92681	0.07344
2099.99844	0.07385
2098.07006	0.07415
2096.14169	0.07449
2094.21332	0.07485
2092.28494	0.07509
2090.35657	0.07520
2088.42820	0.07537
2086.49983	0.07562
2084.57145	0.07581
2082.64308	0.07598
2080.71471	0.07615
2078.78633	0.07636
2076.85796	0.07665
2074.92959	0.07677
2073.00121	0.07647
2071.07284	0.07612
2069.14447	0.07612
2067.21609	0.07627
2065.28772	0.07632
2063.35935	0.07628
2061.43097	0.07624
2059.50260	0.07622
2057.57423	0.07625
2055.64585	0.07647
2053.71748	0.07684
2051.78911	0.07715
2049.86073	0.07747
2047.93236	0.07788
2046.00399	0.07836
2044.07561	0.07889
2042.14724	0.07941
2040.21887	0.07982
2038.29049	0.08013
2036.36212	0.08043
2034.43375	0.08078
2032.50538	0.08099
2030.57700	0.08096
2028.64863	0.08104
2026.72026	0.08138
2024.79188	0.08169
2022.86351	0.08193
2020.93514	0.08220
2019.00676	0.08231
2017.07839	0.08212
2015.15002	0.08180
2013.22164	0.08168
2011.29327	0.08185
2009.36490	0.08207
2007.43652	0.08216
2005.50815	0.08227
2003.57978	0.08250
2001.65140	0.08281
1999.72303	0.08304
1997.79466	0.08322
1995.86628	0.08357
1993.93791	0.08404
1992.00954	0.08434
1990.08116	0.08438
1988.15279	0.08439
1986.22442	0.08452
1984.29604	0.08471
1982.36767	0.08483
1980.43930	0.08485
1978.51092	0.08490
1976.58255	0.08505
1974.65418	0.08519
1972.72581	0.08527
1970.79743	0.08549
1968.86906	0.08587
1966.94069	0.08614
1965.01231	0.08619
1963.08394	0.08609
1961.15557	0.08581
1959.22719	0.08554
1957.29882	0.08548
1955.37045	0.08563
1953.44207	0.08591
1951.51370	0.08616
1949.58533	0.08635
1947.65695	0.08654
1945.72858	0.08674
1943.80021	0.08688
1941.87183	0.08680
1939.94346	0.08645
1938.01509	0.08613
1936.08671	0.08610
1934.15834	0.08614
1932.22997	0.08601
1930.30159	0.08582
1928.37322	0.08571
1926.44485	0.08571
1924.51647	0.08581
1922.58810	0.08580
1920.65973	0.08565
1918.73135	0.08555
1916.80298	0.08552
1914.87461	0.08539
1912.94624	0.08513
1911.01786	0.08494
1909.08949	0.08488
1907.16112	0.08474
1905.23274	0.08448
1903.30437	0.08412
1901.37600	0.08371
1899.44762	0.08344
1897.51925	0.08331
1895.59088	0.08309
1893.66250	0.08275
1891.73413	0.08255
1889.80576	0.08236
1887.87738	0.08187
1885.94901	0.08129
1884.02064	0.08072
1882.09226	0.08015
1880.16389	0.07980
1878.23552	0.07937
1876.30714	0.07865
1874.37877	0.07794
1872.45040	0.07737
1870.52202	0.07690
1868.59365	0.07643
1866.66528	0.07577
1864.73690	0.07498
1862.80853	0.07438
1860.88016	0.07402
1858.95179	0.07363
1857.02341	0.07292
1855.09504	0.07201
1853.16667	0.07133
1851.23829	0.07090
1849.30992	0.07042
1847.38155	0.07011
1845.45317	0.07013
1843.52480	0.06992
1841.59643	0.06933
1839.66805	0.06873
1837.73968	0.06817
1835.81131	0.06775
1833.88293	0.06751
1831.95456	0.06737
1830.02619	0.06706
1828.09781	0.06634
1826.16944	0.06547
1824.24107	0.06446
1822.31269	0.06325
1820.38432	0.06208
1818.45595	0.06108
1816.52757	0.05993
1814.59920	0.05859
1812.67083	0.05738
1810.74245	0.05599
1808.81408	0.05418
1806.88571	0.05235
1804.95733	0.05070
1803.02896	0.04912
1801.10059	0.04738
1799.17222	0.04529
1797.24384	0.04321
1795.31547	0.04154
1793.38710	0.03995
1791.45872	0.03786
1789.53035	0.03552
1787.60198	0.03351
1785.67360	0.03193
1783.74523	0.03056
1781.81686	0.02898
1779.88848	0.02708
1777.96011	0.02538
1776.03174	0.02398
1774.10336	0.02259
1772.17499	0.02094
1770.24662	0.01895
1768.31824	0.01688
1766.38987	0.01512
1764.46150	0.01371
1762.53312	0.01213
1760.60475	0.01029
1758.67638	0.00872
1756.74800	0.00722
1754.81963	0.00567
1752.89126	0.00428
1750.96288	0.00304
1749.03451	0.00198
1747.10614	0.00142
1745.17777	0.00105
1743.24939	0.00071
1741.32102	0.00059
1739.39265	0.00048
1737.46427	0.00061
1735.53590	0.00115
1733.60753	0.00107
1731.67915	0.00087
1729.75078	0.00087
1727.82241	0.00080
1725.89403	0.00071
1723.96566	0.00101
1722.03729	0.00098
1720.10891	0.00118
1718.18054	0.00119
1716.25217	0.00102
1714.32379	0.00069
1712.39542	0.00041
1710.46705	0.00035
1708.53867	0.00049
1706.61030	0.00045
1704.68193	0.00050
1702.75355	0.00061
1700.82518	0.00079
1698.89681	0.00117
1696.96843	0.00086
1695.04006	0.00028
1693.11169	0.00047
1691.18331	0.00083
1689.25494	0.00065
1687.32657	0.00043
1685.39820	0.00059
1683.46982	0.00114
1681.54145	0.00110
1679.61308	0.00083
1677.68470	0.00074
1675.75633	0.00067
1673.82796	0.00064
1671.89958	0.00071
1669.97121	0.00070
1668.04284	0.00052
1666.11446	0.00055
1664.18609	0.00063
1662.25772	0.00062
1660.32934	0.00047
1658.40097	0.00038
1656.47260	0.00025
1654.54422	0.00046
1652.61585	0.00109
1650.68748	0.00101
1648.75910	0.00083
1646.83073	0.00110
1644.90236	0.00137
1642.97398	0.00101
1641.04561	0.00050
1639.11724	0.00049
1637.18886	0.00062
1635.26049	0.00074
1633.33212	0.00096
1631.40375	0.00089
1629.47537	0.00053
1627.54700	0.00054
1625.61863	0.00086
1623.69025	0.00064
1621.76188	0.00054
1619.83351	0.00077
1617.90513	0.00082
1615.97676	0.00085
1614.04839	0.00061
1612.12001	0.00057
1610.19164	0.00071
1608.26327	0.00093
1606.33489	0.00075
1604.40652	0.00083
1602.47815	0.00067
1600.54977	0.00033
1598.62140	0.00040
1596.69303	0.00025
1594.76465	0.00034
1592.83628	0.00056
1590.90791	0.00071
1588.97953	0.00063
1587.05116	0.00044
1585.12279	0.00031
1583.19441	0.00011
1581.26604	0.00029
1579.33767	0.00045
1577.40929	0.00075
1575.48092	0.00101
1573.55255	0.00098
1571.62418	0.00051
1569.69580	0.00050
1567.76743	0.00044
1565.83906	0.00044
1563.91068	0.00055
1561.98231	0.00070
1560.05394	0.00086
1558.12556	0.00064
1556.19719	0.00066
1554.26882	0.00090
1552.34044	0.00090
1550.41207	0.00063
1548.48370	0.00031
1546.55532	0.00030
1544.62695	0.00062
1542.69858	0.00080
1540.77020	0.00057
1538.84183	0.00044
1536.91346	0.00021
1534.98508	0.00032
1533.05671	0.00063
1531.12834	0.00067
1529.19996	0.00067
1527.27159	0.00049
1525.34322	0.00041
1523.41484	0.00065
1521.48647	0.00107
1519.55810	0.00123
1517.62972	0.00120
1515.70135	0.00094
1513.77298	0.00076
1511.84461	0.00092
1509.91623	0.00118
1507.98786	0.00116
1506.05949	0.00104
1504.13111	0.00057
1502.20274	0.00034
1500.27437	0.00040
1498.34599	0.00033
1496.41762	0.00034
1494.48925	0.00053
1492.56087	0.00080
1490.63250	0.00086
1488.70413	0.00092
1486.77575	0.00094
1484.84738	0.00080
1482.91901	0.00073
1480.99063	0.00092
1479.06226	0.00092
1477.13389	0.00087
1475.20551	0.00080
1473.27714	0.00039
1471.34877	0.00029
1469.42039	0.00049
1467.49202	0.00070
1465.56365	0.00068
1463.63527	0.00042
1461.70690	0.00041
1459.77853	0.00052
1457.85016	0.00062
1455.92178	0.00102
1453.99341	0.00119
1452.06504	0.00144
1450.13666	0.00153
1448.20829	0.00109
1446.27992	0.00067
1444.35154	0.00057
1442.42317	0.00075
1440.49480	0.00101
1438.56642	0.00128
1436.63805	0.00117
1434.70968	0.00076
1432.78130	0.00052
1430.85293	0.00042
1428.92456	0.00044
1426.99618	0.00070
1425.06781	0.00099
1423.13944	0.00088
1421.21106	0.00071
1419.28269	0.00113
1417.35432	0.00134
1415.42594	0.00096
1413.49757	0.00060
1411.56920	0.00067
1409.64082	0.00072
1407.71245	0.00044
1405.78408	0.00052
1403.85570	0.00084
1401.92733	0.00089
1399.99896	0.00074
1398.07059	0.00098
1396.14221	0.00104
1394.21384	0.00089
1392.28547	0.00060
1390.35709	0.00033
1388.42872	0.00082
1386.50035	0.00079
1384.57197	0.00039
1382.64360	0.00042
1380.71523	0.00047
1378.78685	0.00053
1376.85848	0.00049
1374.93011	0.00034
1373.00173	0.00071
1371.07336	0.00088
1369.14499	0.00062
1367.21661	0.00043
1365.28824	0.00071
1363.35987	0.00056
1361.43149	0.00040
1359.50312	0.00045
1357.57475	0.00071
1355.64637	0.00101
1353.71800	0.00116
1351.78963	0.00093
1349.86125	0.00077
1347.93288	0.00079
1346.00451	0.00052
1344.07614	0.00059
1342.14776	0.00078
1340.21939	0.00048
1338.29102	0.00068
1336.36264	0.00063
1334.43427	0.00049
1332.50590	0.00034
1330.57752	0.00035
1328.64915	0.00052
1326.72078	0.00077
1324.79240	0.00065
1322.86403	0.00052
1320.93566	0.00039
1319.00728	0.00041
1317.07891	0.00045
1315.15054	0.00049
1313.22216	0.00051
1311.29379	0.00081
1309.36542	0.00058
1307.43704	0.00044
1305.50867	0.00071
1303.58030	0.00094
1301.65192	0.00089
1299.72355	0.00058
1297.79518	0.00060
1295.86680	0.00040
1293.93843	0.00020
1292.01006	0.00038
1290.08168	0.00046
1288.15331	0.00045
1286.22494	0.00040
1284.29657	0.00040
1282.36819	0.00052
1280.43982	0.00044
1278.51145	0.00077
1276.58307	0.00132
1274.65470	0.00138
1272.72633	0.00135
1270.79795	0.00124
1268.86958	0.00081
1266.94121	0.00065
1265.01283	0.00098
1263.08446	0.00070
1261.15609	0.00100
1259.22771	0.00114
1257.29934	0.00097
1255.37097	0.00084
1253.44259	0.00083
1251.51422	0.00103
1249.58585	0.00096
1247.65747	0.00075
1245.72910	0.00066
1243.80073	0.00034
1241.87235	0.00035
1239.94398	0.00129
1238.01561	0.00180
1236.08723	0.00138
1234.15886	0.00055
1232.23049	0.00102
1230.30212	0.00123
1228.37374	0.00078
1226.44537	0.00104
1224.51700	0.00165
1222.58862	0.00250
1220.66025	0.00292
1218.73188	0.00278
1216.80350	0.00197
1214.87513	0.00158
1212.94676	0.00159
1211.01838	0.00220
1209.09001	0.00207
1207.16164	0.00133
1205.23326	0.00109
1203.30489	0.00107
1201.37652	0.00119
1199.44814	0.00095
1197.51977	0.00089
1195.59140	0.00147
1193.66302	0.00202
1191.73465	0.00234
1189.80628	0.00237
1187.87790	0.00168
1185.94953	0.00118
1184.02116	0.00095
1182.09278	0.00112
1180.16441	0.00133
1178.23604	0.00161
1176.30766	0.00120
1174.37929	0.00129
1172.45092	0.00120
1170.52255	0.00117
1168.59417	0.00140
1166.66580	0.00149
1164.73743	0.00134
1162.80905	0.00093
1160.88068	0.00134
1158.95231	0.00227
1157.02393	0.00230
1155.09556	0.00111
1153.16719	0.00074
1151.23881	0.00148
1149.31044	0.00180
1147.38207	0.00133
1145.45369	0.00129
1143.52532	0.00143
1141.59695	0.00179
1139.66857	0.00161
1137.74020	0.00115
1135.81183	0.00113
1133.88345	0.00166
1131.95508	0.00223
1130.02671	0.00241
1128.09833	0.00249
1126.16996	0.00242
1124.24159	0.00199
1122.31321	0.00172
1120.38484	0.00210
1118.45647	0.00255
1116.52809	0.00259
1114.59972	0.00191
1112.67135	0.00082
1110.74298	0.00085
1108.81460	0.00178
1106.88623	0.00162
1104.95786	0.00108
1103.02948	0.00100
1101.10111	0.00100
1099.17274	0.00102
1097.24436	0.00129
1095.31599	0.00118
1093.38762	0.00082
1091.45924	0.00147
1089.53087	0.00205
1087.60250	0.00182
1085.67412	0.00124
1083.74575	0.00102
1081.81738	0.00093
1079.88900	0.00149
1077.96063	0.00156
1076.03226	0.00135
1074.10388	0.00104
1072.17551	0.00095
1070.24714	0.00183
1068.31876	0.00260
1066.39039	0.00165
1064.46202	0.00114
1062.53364	0.00111
1060.60527	0.00118
1058.67690	0.00214
1056.74853	0.00205
1054.82015	0.00165
1052.89178	0.00174
1050.96341	0.00118
1049.03503	0.00122
1047.10666	0.00177
1045.17829	0.00184
1043.24991	0.00165
1041.32154	0.00088
1039.39317	0.00138
1037.46479	0.00181
1035.53642	0.00151
1033.60805	0.00192
1031.67967	0.00201
1029.75130	0.00165
1027.82293	0.00080
1025.89455	0.00060
1023.96618	0.00159
1022.03781	0.00137
1020.10943	0.00103
1018.18106	0.00123
1016.25269	0.00134
1014.32431	0.00131
1012.39594	0.00110
1010.46757	0.00068
1008.53919	0.00071
1006.61082	0.00068
1004.68245	0.00052
1002.75407	0.00059
1000.82570	0.00030
998.89733	0.00070
996.96896	0.00132
995.04058	0.00127
993.11221	0.00077
991.18384	0.00029
989.25546	0.00020
987.32709	0.00047
985.39872	0.00093
983.47034	0.00103
981.54197	0.00148
979.61360	0.00204
977.68522	0.00186
975.75685	0.00128
973.82848	0.00071
971.90010	0.00079
969.97173	0.00177
968.04336	0.00300
966.11498	0.00359
964.18661	0.00344
962.25824	0.00291
960.32986	0.00247
958.40149	0.00217
956.47312	0.00190
954.54474	0.00214
952.61637	0.00259
950.68800	0.00227
948.75962	0.00197
946.83125	0.00257
944.90288	0.00359
942.97451	0.00422
941.04613	0.00418
939.11776	0.00442
937.18939	0.00524
935.26101	0.00598
933.33264	0.00620
931.40427	0.00583
929.47589	0.00509
927.54752	0.00470
925.61915	0.00496
923.69077	0.00541
921.76240	0.00544
919.83403	0.00507
917.90565	0.00481
915.97728	0.00484
914.04891	0.00516
912.12053	0.00560
910.19216	0.00535
908.26379	0.00410
906.33541	0.00307
904.40704	0.00250
902.47867	0.00214
900.55029	0.00236
898.62192	0.00279
896.69355	0.00280
894.76517	0.00249
892.83680	0.00193
890.90843	0.00056
888.98005	0.00078
887.05168	0.00072
885.12331	0.00106
883.19494	0.00140
881.26656	0.00107
879.33819	0.00041
877.40982	0.00069
875.48144	0.00125
873.55307	0.00200
871.62470	0.00195
869.69632	0.00162
867.76795	0.00131
865.83958	0.00108
863.91120	0.00168
861.98283	0.00249
860.05446	0.00277
858.12608	0.00322
856.19771	0.00276
854.26934	0.00242
852.34096	0.00175
850.41259	0.00143
848.48422	0.00210
846.55584	0.00217
844.62747	0.00134
842.69910	0.00200
840.77072	0.00199
838.84235	0.00170
836.91398	0.00168
834.98560	0.00146
833.05723	0.00142
831.12886	0.00178
829.20049	0.00254
827.27211	0.00301
825.34374	0.00275
823.41537	0.00205
821.48699	0.00118
819.55862	0.00080
817.63025	0.00195
815.70187	0.00167
813.77350	0.00098
811.84513	0.00228
809.91675	0.00240
807.98838	0.00216
806.06001	0.00194
804.13163	0.00185
802.20326	0.00216
800.27489	0.00193
798.34651	0.00122
796.41814	0.00213
794.48977	0.00252
792.56139	0.00193
790.63302	0.00246
788.70465	0.00266
786.77627	0.00198
784.84790	0.00214
782.91953	0.00224
780.99115	0.00127
779.06278	0.00128
777.13441	0.00148
775.20603	0.00193
773.27766	0.00272
771.34929	0.00312
769.42092	0.00214
767.49254	0.00165
765.56417	0.00132
763.63580	0.00066
761.70742	0.00129
759.77905	0.00187
757.85068	0.00159
755.92230	0.00241
753.99393	0.00276
752.06556	0.00132
750.13718	0.00032
748.20881	0.00038
746.28044	0.00100
744.35206	0.00154
742.42369	0.00192
740.49532	0.00217
738.56694	0.00201
736.63857	0.00163
734.71020	0.00232
732.78182	0.00305
730.85345	0.00289
728.92508	0.00240
726.99670	0.00225
725.06833	0.00259
723.13996	0.00283
721.21158	0.00325
719.28321	0.00212
717.35484	0.00103
715.42647	0.00142
713.49809	0.00192
711.56972	0.00143
709.64135	0.00052
707.71297	0.00171
705.78460	0.00292
703.85623	0.00358
701.92785	0.00359
699.99948	0.00304
698.07111	0.00201
696.14273	0.00104
694.21436	0.00134
692.28599	0.00285
690.35761	0.00198
688.42924	0.00136
686.50087	0.00251
684.57249	0.00234
682.64412	0.00266
680.71575	0.00250
678.78737	0.00180
676.85900	0.00311
674.93063	0.00428
673.00225	0.00400
671.07388	0.00464
669.14551	0.00613
667.21713	0.00545
665.28876	0.00484
663.36039	0.00395
661.43201	0.00261
659.50364	0.00330
657.57527	0.00159
655.64690	0.00194
653.71852	0.00416
651.79015	0.00376
649.86178	0.00255
647.93340	0.00251
646.00503	0.00212
644.07666	0.00327
642.14828	0.00515
640.21991	0.00537
638.29154	0.00291
636.36316	0.00452
634.43479	0.00579
632.50642	0.00515
630.57804	0.00529
628.64967	0.00531
626.72130	0.00416
624.79292	0.00743
622.86455	0.00853
620.93618	0.00623
619.00780	0.00665
617.07943	0.00730
615.15106	0.00553
613.22268	0.00335
611.29431	0.00548
609.36594	0.00536
607.43756	0.00676
605.50919	0.00935
603.58082	0.01304
601.65244	0.01268
599.72407	0.00823
