3997.51769	0.81275
3995.58931	0.81221
3993.66094	0.81228
3991.73257	0.81272
3989.80419	0.81326
3987.87582	0.81378
3985.94745	0.81399
3984.01907	0.81377
3982.09070	0.81347
3980.16233	0.81327
3978.23396	0.81276
3976.30558	0.81182
3974.37721	0.81129
3972.44884	0.81163
3970.52046	0.81255
3968.59209	0.81423
3966.66372	0.81629
3964.73534	0.81691
3962.80697	0.81568
3960.87860	0.81504
3958.95022	0.81606
3957.02185	0.81735
3955.09348	0.81823
3953.16510	0.81799
3951.23673	0.81566
3949.30836	0.81325
3947.37998	0.81433
3945.45161	0.81632
3943.52324	0.81576
3941.59486	0.81719
3939.66649	0.82233
3937.73812	0.82604
3935.80974	0.82523
3933.88137	0.82002
3931.95300	0.81537
3930.02462	0.81721
3928.09625	0.82167
3926.16788	0.82188
3924.23950	0.82061
3922.31113	0.82223
3920.38276	0.82271
3918.45439	0.82071
3916.52601	0.82268
3914.59764	0.83045
3912.66927	0.83765
3910.74089	0.84061
3908.81252	0.83868
3906.88415	0.82914
3904.95577	0.81424
3903.02740	0.80475
3901.09903	0.80614
3899.17065	0.81601
3897.24228	0.83036
3895.31391	0.83872
3893.38553	0.83538
3891.45716	0.83103
3889.52879	0.83559
3887.60041	0.83743
3885.67204	0.83234
3883.74367	0.82991
3881.81529	0.82885
3879.88692	0.83197
3877.95855	0.84248
3876.03017	0.84483
3874.10180	0.83646
3872.17343	0.82809
3870.24505	0.82480
3868.31668	0.83000
3866.38831	0.83475
3864.45994	0.83303
3862.53156	0.83701
3860.60319	0.84769
3858.67482	0.85108
3856.74644	0.84179
3854.81807	0.82257
3852.88970	0.81183
3850.96132	0.82970
3849.03295	0.85170
3847.10458	0.86122
3845.17620	0.85722
3843.24783	0.84531
3841.31946	0.83222
3839.39108	0.82256
3837.46271	0.82310
3835.53434	0.83312
3833.60596	0.84259
3831.67759	0.84995
3829.74922	0.85563
3827.82084	0.85645
3825.89247	0.85407
3823.96410	0.84758
3822.03572	0.83314
3820.10735	0.82650
3818.17898	0.83436
3816.25060	0.84256
3814.32223	0.85477
3812.39386	0.86772
3810.46548	0.86979
3808.53711	0.85997
3806.60874	0.84920
3804.68037	0.84387
3802.75199	0.83524
3800.82362	0.83086
3798.89525	0.83858
3796.96687	0.84667
3795.03850	0.85629
3793.11013	0.86717
3791.18175	0.87216
3789.25338	0.87148
3787.32501	0.86701
3785.39663	0.86131
3783.46826	0.85902
3781.53989	0.85602
3779.61151	0.85073
3777.68314	0.85325
3775.75477	0.86113
3773.82639	0.86219
3771.89802	0.85327
3769.96965	0.84237
3768.04127	0.83895
3766.11290	0.84053
3764.18453	0.84368
3762.25615	0.84329
3760.32778	0.83422
3758.39941	0.82597
3756.47103	0.82517
3754.54266	0.81977
3752.61429	0.80223
3750.68591	0.78570
3748.75754	0.78723
3746.82917	0.79125
3744.90080	0.78958
3742.97242	0.79521
3741.04405	0.80368
3739.11568	0.80072
3737.18730	0.78402
3735.25893	0.76687
3733.33056	0.77035
3731.40218	0.78943
3729.47381	0.80278
3727.54544	0.80184
3725.61706	0.79357
3723.68869	0.78839
3721.76032	0.78838
3719.83194	0.79160
3717.90357	0.79476
3715.97520	0.79214
3714.04682	0.77850
3712.11845	0.75760
3710.19008	0.74913
3708.26170	0.75893
3706.33333	0.76822
3704.40496	0.76545
3702.47658	0.75439
3700.54821	0.74764
3698.61984	0.74667
3696.69146	0.74201
3694.76309	0.73015
3692.83472	0.71044
3690.90635	0.68481
3688.97797	0.66672
3687.04960	0.66527
3685.12123	0.66626
3683.19285	0.65828
3681.26448	0.64011
3679.33611	0.61501
3677.40773	0.58469
3675.47936	0.55396
3673.55099	0.53734
3671.62261	0.52529
3669.69424	0.50663
3667.76587	0.49357
3665.83749	0.48525
3663.90912	0.47059
3661.98075	0.45003
3660.05237	0.42739
3658.12400	0.40301
3656.19563	0.37731
3654.26725	0.35465
3652.33888	0.33206
3650.41051	0.30290
3648.48213	0.27560
3646.55376	0.26224
3644.62539	0.25436
3642.69701	0.24319
3640.76864	0.22848
3638.84027	0.21302
3636.91189	0.19782
3634.98352	0.18259
3633.05515	0.16788
3631.12678	0.15367
3629.19840	0.13827
3627.27003	0.12593
3625.34166	0.11896
3623.41328	0.11180
3621.48491	0.10263
3619.55654	0.09243
3617.62816	0.08363
3615.69979	0.07698
3613.77142	0.07086
3611.84304	0.06494
3609.91467	0.05925
3607.98630	0.05369
3606.05792	0.04914
3604.12955	0.04565
3602.20118	0.04188
3600.27280	0.03779
3598.34443	0.03415
3596.41606	0.03083
3594.48768	0.02768
3592.55931	0.02501
3590.63094	0.02262
3588.70256	0.01969
3586.77419	0.01688
3584.84582	0.01540
3582.91744	0.01433
3580.98907	0.01299
3579.06070	0.01157
3577.13233	0.01030
3575.20395	0.00912
3573.27558	0.00807
3571.34721	0.00712
3569.41883	0.00627
3567.49046	0.00551
3565.56209	0.00464
3563.63371	0.00393
3561.70534	0.00349
3559.77697	0.00313
3557.84859	0.00264
3555.92022	0.00221
3553.99185	0.00195
3552.06347	0.00164
3550.13510	0.00142
3548.20673	0.00135
3546.27835	0.00122
3544.34998	0.00091
3542.42161	0.00062
3540.49323	0.00060
3538.56486	0.00065
3536.63649	0.00067
3534.70811	0.00078
3532.77974	0.00079
3530.85137	0.00088
3528.92299	0.00106
3526.99462	0.00152
3525.06625	0.00157
3523.13787	0.00110
3521.20950	0.00085
3519.28113	0.00106
3517.35276	0.00133
3515.42438	0.00142
3513.49601	0.00132
3511.56764	0.00118
3509.63926	0.00126
3507.71089	0.00148
3505.78252	0.00146
3503.85414	0.00123
3501.92577	0.00094
3499.99740	0.00080
3498.06902	0.00094
3496.14065	0.00124
3494.21228	0.00139
3492.28390	0.00126
3490.35553	0.00106
3488.42716	0.00098
3486.49878	0.00092
3484.57041	0.00084
3482.64204	0.00081
3480.71366	0.00085
3478.78529	0.00087
3476.85692	0.00100
3474.92854	0.00116
3473.00017	0.00117
3471.07180	0.00111
3469.14342	0.00116
3467.21505	0.00113
3465.28668	0.00098
3463.35831	0.00112
3461.42993	0.00129
3459.50156	0.00135
3457.57319	0.00151
3455.64481	0.00159
3453.71644	0.00142
3451.78807	0.00113
3449.85969	0.00104
3447.93132	0.00114
3446.00295	0.00118
3444.07457	0.00106
3442.14620	0.00086
3440.21783	0.00087
3438.28945	0.00094
3436.36108	0.00099
3434.43271	0.00119
3432.50433	0.00130
3430.57596	0.00119
3428.64759	0.00110
3426.71921	0.00101
3424.79084	0.00081
3422.86247	0.00067
3420.93409	0.00080
3419.00572	0.00090
3417.07735	0.00106
3415.14897	0.00130
3413.22060	0.00138
3411.29223	0.00126
3409.36385	0.00116
3407.43548	0.00126
3405.50711	0.00159
3403.57874	0.00168
3401.65036	0.00137
3399.72199	0.00101
3397.79362	0.00084
3395.86524	0.00074
3393.93687	0.00069
3392.00850	0.00064
3390.08012	0.00059
3388.15175	0.00070
3386.22338	0.00090
3384.29500	0.00098
3382.36663	0.00098
3380.43826	0.00097
3378.50988	0.00100
3376.58151	0.00102
3374.65314	0.00093
3372.72476	0.00097
3370.79639	0.00098
3368.86802	0.00093
3366.93964	0.00103
3365.01127	0.00115
3363.08290	0.00125
3361.15452	0.00123
3359.22615	0.00105
3357.29778	0.00087
3355.36940	0.00071
3353.44103	0.00078
3351.51266	0.00105
3349.58428	0.00131
3347.65591	0.00140
3345.72754	0.00117
3343.79917	0.00077
3341.87079	0.00051
3339.94242	0.00073
3338.01405	0.00095
3336.08567	0.00104
3334.15730	0.00080
3332.22893	0.00042
3330.30055	0.00045
3328.37218	0.00066
3326.44381	0.00097
3324.51543	0.00103
3322.58706	0.00072
3320.65869	0.00063
3318.73031	0.00092
3316.80194	0.00121
3314.87357	0.00135
3312.94519	0.00132
3311.01682	0.00116
3309.08845	0.00108
3307.16007	0.00101
3305.23170	0.00090
3303.30333	0.00079
3301.37495	0.00068
3299.44658	0.00081
3297.51821	0.00110
3295.58983	0.00128
3293.66146	0.00133
3291.73309	0.00126
3289.80472	0.00116
3287.87634	0.00107
3285.94797	0.00107
3284.01960	0.00112
3282.09122	0.00105
3280.16285	0.00103
3278.23448	0.00112
3276.30610	0.00121
3274.37773	0.00120
3272.44936	0.00111
3270.52098	0.00100
3268.59261	0.00103
3266.66424	0.00117
3264.73586	0.00110
3262.80749	0.00092
3260.87912	0.00088
3258.95074	0.00090
3257.02237	0.00079
3255.09400	0.00074
3253.16562	0.00072
3251.23725	0.00075
3249.30888	0.00095
3247.38050	0.00106
3245.45213	0.00100
3243.52376	0.00103
3241.59538	0.00107
3239.66701	0.00099
3237.73864	0.00086
3235.81026	0.00088
3233.88189	0.00089
3231.95352	0.00076
3230.02515	0.00061
3228.09677	0.00056
3226.16840	0.00065
3224.24003	0.00103
3222.31165	0.00129
3220.38328	0.00113
3218.45491	0.00084
3216.52653	0.00078
3214.59816	0.00077
3212.66979	0.00070
3210.74141	0.00056
3208.81304	0.00063
3206.88467	0.00074
3204.95629	0.00077
3203.02792	0.00081
3201.09955	0.00092
3199.17117	0.00087
3197.24280	0.00082
3195.31443	0.00086
3193.38605	0.00073
3191.45768	0.00059
3189.52931	0.00068
3187.60093	0.00081
3185.67256	0.00097
3183.74419	0.00104
3181.81581	0.00099
3179.88744	0.00093
3177.95907	0.00093
3176.03070	0.00101
3174.10232	0.00108
3172.17395	0.00113
3170.24558	0.00122
3168.31720	0.00130
3166.38883	0.00127
3164.46046	0.00112
3162.53208	0.00105
3160.60371	0.00117
3158.67534	0.00119
3156.74696	0.00106
3154.81859	0.00108
3152.89022	0.00106
3150.96184	0.00100
3149.03347	0.00099
3147.10510	0.00101
3145.17672	0.00111
3143.24835	0.00120
3141.31998	0.00112
3139.39160	0.00102
3137.46323	0.00106
3135.53486	0.00107
3133.60648	0.00093
3131.67811	0.00078
3129.74974	0.00081
3127.82136	0.00092
3125.89299	0.00101
3123.96462	0.00103
3122.03624	0.00099
3120.10787	0.00099
3118.17950	0.00094
3116.25113	0.00092
3114.32275	0.00102
3112.39438	0.00111
3110.46601	0.00103
3108.53763	0.00091
3106.60926	0.00094
3104.68089	0.00109
3102.75251	0.00126
3100.82414	0.00125
3098.89577	0.00112
3096.96739	0.00109
3095.03902	0.00113
3093.11065	0.00117
3091.18227	0.00128
3089.25390	0.00124
3087.32553	0.00108
3085.39715	0.00101
3083.46878	0.00105
3081.54041	0.00098
3079.61203	0.00101
3077.68366	0.00120
3075.75529	0.00131
3073.82691	0.00134
3071.89854	0.00133
3069.97017	0.00115
3068.04179	0.00094
3066.11342	0.00090
3064.18505	0.00099
3062.25668	0.00106
3060.32830	0.00104
3058.39993	0.00095
3056.47156	0.00080
3054.54318	0.00092
3052.61481	0.00114
3050.68644	0.00118
3048.75806	0.00108
3046.82969	0.00100
3044.90132	0.00101
3042.97294	0.00111
3041.04457	0.00115
3039.11620	0.00112
3037.18782	0.00114
3035.25945	0.00123
3033.33108	0.00128
3031.40270	0.00122
3029.47433	0.00120
3027.54596	0.00122
3025.61758	0.00122
3023.68921	0.00112
3021.76084	0.00085
3019.83246	0.00052
3017.90409	0.00049
3015.97572	0.00069
3014.04734	0.00076
3012.11897	0.00090
3010.19060	0.00124
3008.26222	0.00145
3006.33385	0.00139
3004.40548	0.00120
3002.47711	0.00112
3000.54873	0.00117
2998.62036	0.00123
2996.69199	0.00123
2994.76361	0.00106
2992.83524	0.00088
2990.90687	0.00079
2988.97849	0.00100
2987.05012	0.00122
2985.12175	0.00125
2983.19337	0.00126
2981.26500	0.00137
2979.33663	0.00143
2977.40825	0.00144
2975.47988	0.00142
2973.55151	0.00130
2971.62313	0.00115
2969.69476	0.00106
2967.76639	0.00123
2965.83801	0.00160
2963.90964	0.00170
2961.98127	0.00146
2960.05289	0.00120
2958.12452	0.00118
2956.19615	0.00124
2954.26777	0.00136
2952.33940	0.00148
2950.41103	0.00149
2948.48266	0.00137
2946.55428	0.00130
2944.62591	0.00129
2942.69754	0.00124
2940.76916	0.00121
2938.84079	0.00132
2936.91242	0.00145
2934.98404	0.00143
2933.05567	0.00137
2931.12730	0.00158
2929.19892	0.00184
2927.27055	0.00179
2925.34218	0.00150
2923.41380	0.00112
2921.48543	0.00084
2919.55706	0.00087
2917.62868	0.00100
2915.70031	0.00110
2913.77194	0.00127
2911.84356	0.00144
2909.91519	0.00139
2907.98682	0.00130
2906.05844	0.00128
2904.13007	0.00138
2902.20170	0.00148
2900.27332	0.00149
2898.34495	0.00137
2896.41658	0.00123
2894.48820	0.00126
2892.55983	0.00138
2890.63146	0.00141
2888.70309	0.00139
2886.77471	0.00136
2884.84634	0.00128
2882.91797	0.00113
2880.98959	0.00101
2879.06122	0.00105
2877.13285	0.00115
2875.20447	0.00121
2873.27610	0.00134
2871.34773	0.00143
2869.41935	0.00141
2867.49098	0.00137
2865.56261	0.00135
2863.63423	0.00135
2861.70586	0.00131
2859.77749	0.00108
2857.84911	0.00072
2855.92074	0.00058
2853.99237	0.00059
2852.06399	0.00069
2850.13562	0.00076
2848.20725	0.00087
2846.27887	0.00101
2844.35050	0.00102
2842.42213	0.00084
2840.49375	0.00062
2838.56538	0.00051
2836.63701	0.00055
2834.70863	0.00073
2832.78026	0.00088
2830.85189	0.00097
2828.92352	0.00100
2826.99514	0.00089
2825.06677	0.00084
2823.13840	0.00073
2821.21002	0.00067
2819.28165	0.00074
2817.35328	0.00082
2815.42490	0.00086
2813.49653	0.00087
2811.56816	0.00087
2809.63978	0.00093
2807.71141	0.00099
2805.78304	0.00103
2803.85466	0.00103
2801.92629	0.00098
2799.99792	0.00087
2798.06954	0.00071
2796.14117	0.00060
2794.21280	0.00064
2792.28442	0.00076
2790.35605	0.00081
2788.42768	0.00085
2786.49930	0.00082
2784.57093	0.00069
2782.64256	0.00052
2780.71418	0.00040
2778.78581	0.00049
2776.85744	0.00066
2774.92907	0.00066
2773.00069	0.00055
2771.07232	0.00051
2769.14395	0.00052
2767.21557	0.00056
2765.28720	0.00048
2763.35883	0.00048
2761.43045	0.00046
2759.50208	0.00036
2757.57371	0.00039
2755.64533	0.00056
2753.71696	0.00058
2751.78859	0.00049
2749.86021	0.00042
2747.93184	0.00039
2746.00347	0.00047
2744.07509	0.00052
2742.14672	0.00039
2740.21835	0.00034
2738.28997	0.00043
2736.36160	0.00055
2734.43323	0.00061
2732.50485	0.00060
2730.57648	0.00059
2728.64811	0.00066
2726.71973	0.00076
2724.79136	0.00082
2722.86299	0.00088
2720.93461	0.00095
2719.00624	0.00097
2717.07787	0.00100
2715.14950	0.00106
2713.22112	0.00111
2711.29275	0.00120
2709.36438	0.00129
2707.43600	0.00134
2705.50763	0.00123
2703.57926	0.00110
2701.65088	0.00112
2699.72251	0.00119
2697.79414	0.00121
2695.86576	0.00121
2693.93739	0.00127
2692.00902	0.00147
2690.08064	0.00173
2688.15227	0.00185
2686.22390	0.00175
2684.29552	0.00164
2682.36715	0.00170
2680.43878	0.00182
2678.51040	0.00180
2676.58203	0.00177
2674.65366	0.00191
2672.72528	0.00207
2670.79691	0.00210
2668.86854	0.00219
2666.94016	0.00248
2665.01179	0.00280
2663.08342	0.00294
2661.15505	0.00303
2659.22667	0.00320
2657.29830	0.00333
2655.36993	0.00337
2653.44155	0.00350
2651.51318	0.00374
2649.58481	0.00394
2647.65643	0.00411
2645.72806	0.00438
2643.79969	0.00475
2641.87131	0.00500
2639.94294	0.00508
2638.01457	0.00522
2636.08619	0.00555
2634.15782	0.00593
2632.22945	0.00623
2630.30107	0.00645
2628.37270	0.00672
2626.44433	0.00704
2624.51595	0.00736
2622.58758	0.00775
2620.65921	0.00824
2618.73083	0.00867
2616.80246	0.00902
2614.87409	0.00944
2612.94571	0.01005
2611.01734	0.01063
2609.08897	0.01098
2607.16059	0.01127
2605.23222	0.01177
2603.30385	0.01243
2601.37548	0.01305
2599.44710	0.01361
2597.51873	0.01413
2595.59036	0.01461
2593.66198	0.01510
2591.73361	0.01569
2589.80524	0.01633
2587.87686	0.01694
2585.94849	0.01750
2584.02012	0.01809
2582.09174	0.01878
2580.16337	0.01944
2578.23500	0.01993
2576.30662	0.02045
2574.37825	0.02114
2572.44988	0.02186
2570.52150	0.02250
2568.59313	0.02301
2566.66476	0.02346
2564.73638	0.02409
2562.80801	0.02504
2560.87964	0.02597
2558.95126	0.02661
2557.02289	0.02717
2555.09452	0.02789
2553.16614	0.02868
2551.23777	0.02935
2549.30940	0.02985
2547.38103	0.03047
2545.45265	0.03129
2543.52428	0.03216
2541.59591	0.03297
2539.66753	0.03364
2537.73916	0.03427
2535.81079	0.03500
2533.88241	0.03579
2531.95404	0.03655
2530.02567	0.03734
2528.09729	0.03823
2526.16892	0.03909
2524.24055	0.03983
2522.31217	0.04056
2520.38380	0.04140
2518.45543	0.04233
2516.52705	0.04330
2514.59868	0.04422
2512.67031	0.04502
2510.74193	0.04586
2508.81356	0.04681
2506.88519	0.04767
2504.95681	0.04837
2503.02844	0.04911
2501.10007	0.04998
2499.17169	0.05090
2497.24332	0.05178
2495.31495	0.05259
2493.38657	0.05334
2491.45820	0.05395
2489.52983	0.05453
2487.60146	0.05524
2485.67308	0.05598
2483.74471	0.05670
2481.81634	0.05748
2479.88796	0.05837
2477.95959	0.05936
2476.03122	0.06040
2474.10284	0.06142
2472.17447	0.06248
2470.24610	0.06367
2468.31772	0.06492
2466.38935	0.06614
2464.46098	0.06746
2462.53260	0.06894
2460.60423	0.07043
2458.67586	0.07179
2456.74748	0.07315
2454.81911	0.07467
2452.89074	0.07625
2450.96236	0.07777
2449.03399	0.07917
2447.10562	0.08051
2445.17724	0.08192
2443.24887	0.08343
2441.32050	0.08502
2439.39212	0.08660
2437.46375	0.08802
2435.53538	0.08935
2433.60700	0.09077
2431.67863	0.09231
2429.75026	0.09386
2427.82189	0.09536
2425.89351	0.09685
2423.96514	0.09839
2422.03677	0.09997
2420.10839	0.10155
2418.18002	0.10307
2416.25165	0.10452
2414.32327	0.10606
2412.39490	0.10770
2410.46653	0.10933
2408.53815	0.11096
2406.60978	0.11267
2404.68141	0.11445
2402.75303	0.11628
2400.82466	0.11814
2398.89629	0.11999
2396.96791	0.12191
2395.03954	0.12395
2393.11117	0.12596
2391.18279	0.12786
2389.25442	0.12976
2387.32605	0.13163
2385.39767	0.13328
2383.46930	0.13471
2381.54093	0.13596
2379.61255	0.13701
2377.68418	0.13802
2375.75581	0.13903
2373.82744	0.13980
2371.89906	0.14017
2369.97069	0.14032
2368.04232	0.14090
2366.11394	0.14216
2364.18557	0.14329
2362.25720	0.14407
2360.32882	0.14550
2358.40045	0.14785
2356.47208	0.15046
2354.54370	0.15322
2352.61533	0.15636
2350.68696	0.15910
2348.75858	0.16066
2346.83021	0.16123
2344.90184	0.16151
2342.97346	0.16194
2341.04509	0.16245
2339.11672	0.16342
2337.18834	0.16502
2335.25997	0.16647
2333.33160	0.16737
2331.40322	0.16840
2329.47485	0.17001
2327.54648	0.17185
2325.61810	0.17371
2323.68973	0.17562
2321.76136	0.17770
2319.83298	0.18017
2317.90461	0.18282
2315.97624	0.18534
2314.04787	0.18775
2312.11949	0.19009
2310.19112	0.19249
2308.26275	0.19508
2306.33437	0.19780
2304.40600	0.20058
2302.47763	0.20328
2300.54925	0.20579
2298.62088	0.20814
2296.69251	0.21037
2294.76413	0.21255
2292.83576	0.21479
2290.90739	0.21706
2288.97901	0.21930
2287.05064	0.22141
2285.12227	0.22333
2283.19389	0.22512
2281.26552	0.22686
2279.33715	0.22853
2277.40877	0.23013
2275.48040	0.23174
2273.55203	0.23337
2271.62365	0.23497
2269.69528	0.23656
2267.76691	0.23810
2265.83853	0.23956
2263.91016	0.24101
2261.98179	0.24250
2260.05342	0.24402
2258.12504	0.24554
2256.19667	0.24698
2254.26830	0.24843
2252.33992	0.25008
2250.41155	0.25178
2248.48318	0.25336
2246.55480	0.25487
2244.62643	0.25637
2242.69806	0.25779
2240.76968	0.25903
2238.84131	0.26012
2236.91294	0.26116
2234.98456	0.26228
2233.05619	0.26350
2231.12782	0.26476
2229.19944	0.26589
2227.27107	0.26689
2225.34270	0.26798
2223.41432	0.26920
2221.48595	0.27043
2219.55758	0.27168
2217.62920	0.27297
2215.70083	0.27425
2213.77246	0.27550
2211.84408	0.27678
2209.91571	0.27814
2207.98734	0.27954
2206.05896	0.28093
2204.13059	0.28226
2202.20222	0.28357
2200.27385	0.28494
2198.34547	0.28636
2196.41710	0.28775
2194.48873	0.28909
2192.56035	0.29037
2190.63198	0.29155
2188.70361	0.29264
2186.77523	0.29368
2184.84686	0.29473
2182.91849	0.29578
2180.99011	0.29683
2179.06174	0.29786
2177.13337	0.29874
2175.20499	0.29943
2173.27662	0.30003
2171.34825	0.30067
2169.41987	0.30134
2167.49150	0.30189
2165.56313	0.30236
2163.63475	0.30281
2161.70638	0.30331
2159.77801	0.30397
2157.84963	0.30478
2155.92126	0.30566
2153.99289	0.30660
2152.06451	0.30763
2150.13614	0.30870
2148.20777	0.30974
2146.27940	0.31083
2144.35102	0.31208
2142.42265	0.31340
2140.49428	0.31466
2138.56590	0.31595
2136.63753	0.31746
2134.70916	0.31913
2132.78078	0.32088
2130.85241	0.32273
2128.92404	0.32471
2126.99566	0.32675
2125.06729	0.32880
2123.13892	0.33090
2121.21054	0.33307
2119.28217	0.33526
2117.35380	0.33738
2115.42542	0.33945
2113.49705	0.34151
2111.56868	0.34355
2109.64030	0.34555
2107.71193	0.34751
2105.78356	0.34940
2103.85518	0.35111
2101.92681	0.35270
2099.99844	0.35427
2098.07006	0.35576
2096.14169	0.35708
2094.21332	0.35820
2092.28494	0.35904
2090.35657	0.35975
2088.42820	0.36065
2086.49983	0.36167
2084.57145	0.36252
2082.64308	0.36308
2080.71471	0.36338
2078.78633	0.36356
2076.85796	0.36367
2074.92959	0.36372
2073.00121	0.36371
2071.07284	0.36370
2069.14447	0.36362
2067.21609	0.36330
2065.28772	0.36298
2063.35935	0.36313
2061.43097	0.36363
2059.50260	0.36415
2057.57423	0.36482
2055.64585	0.36570
2053.71748	0.36669
2051.78911	0.36779
2049.86073	0.36896
2047.93236	0.37014
2046.00399	0.37123
2044.07561	0.37220
2042.14724	0.37324
2040.21887	0.37462
2038.29049	0.37612
2036.36212	0.37731
2034.43375	0.37816
2032.50538	0.37886
2030.57700	0.37946
2028.64863	0.37998
2026.72026	0.38035
2024.79188	0.38053
2022.86351	0.38053
2020.93514	0.38018
2019.00676	0.37936
2017.07839	0.37884
2015.15002	0.37945
2013.22164	0.38048
2011.29327	0.38102
2009.36490	0.38130
2007.43652	0.38182
2005.50815	0.38261
2003.57978	0.38346
2001.65140	0.38421
1999.72303	0.38490
1997.79466	0.38566
1995.86628	0.38602
1993.93791	0.38544
1992.00954	0.38509
1990.08116	0.38629
1988.15279	0.38810
1986.22442	0.38954
1984.29604	0.39058
1982.36767	0.39124
1980.43930	0.39168
1978.51092	0.39211
1976.58255	0.39254
1974.65418	0.39292
1972.72581	0.39320
1970.79743	0.39306
1968.86906	0.39215
1966.94069	0.39168
1965.01231	0.39276
1963.08394	0.39407
1961.15557	0.39452
1959.22719	0.39453
1957.29882	0.39434
1955.37045	0.39412
1953.44207	0.39427
1951.51370	0.39456
1949.58533	0.39440
1947.65695	0.39341
1945.72858	0.39126
1943.80021	0.38850
1941.87183	0.38771
1939.94346	0.38955
1938.01509	0.39099
1936.08671	0.39081
1934.15834	0.38998
1932.22997	0.38914
1930.30159	0.38847
1928.37322	0.38775
1926.44485	0.38622
1924.51647	0.38348
1922.58810	0.38131
1920.65973	0.38045
1918.73135	0.37943
1916.80298	0.37969
1914.87461	0.38165
1912.94624	0.38219
1911.01786	0.38061
1909.08949	0.37910
1907.16112	0.37903
1905.23274	0.37937
1903.30437	0.37907
1901.37600	0.37831
1899.44762	0.37698
1897.51925	0.37462
1895.59088	0.37195
1893.66250	0.37005
1891.73413	0.36749
1889.80576	0.36419
1887.87738	0.36286
1885.94901	0.36267
1884.02064	0.36140
1882.09226	0.35936
1880.16389	0.35703
1878.23552	0.35450
1876.30714	0.35190
1874.37877	0.34890
1872.45040	0.34411
1870.52202	0.33654
1868.59365	0.32995
1866.66528	0.32940
1864.73690	0.33154
1862.80853	0.33141
1860.88016	0.32911
1858.95179	0.32646
1857.02341	0.32420
1855.09504	0.32207
1853.16667	0.31980
1851.23829	0.31711
1849.30992	0.31346
1847.38155	0.30856
1845.45317	0.30312
1843.52480	0.30094
1841.59643	0.30309
1839.66805	0.30442
1837.73968	0.30312
1835.81131	0.30129
1833.88293	0.29890
1831.95456	0.29382
1830.02619	0.28789
1828.09781	0.28520
1826.16944	0.28397
1824.24107	0.28248
1822.31269	0.28171
1820.38432	0.27989
1818.45595	0.27587
1816.52757	0.27093
1814.59920	0.26526
1812.67083	0.25808
1810.74245	0.25046
1808.81408	0.24439
1806.88571	0.23894
1804.95733	0.23197
1803.02896	0.22280
1801.10059	0.21276
1799.17222	0.20423
1797.24384	0.19699
1795.31547	0.18866
1793.38710	0.17818
1791.45872	0.16855
1789.53035	0.16273
1787.60198	0.15745
1785.67360	0.15021
1783.74523	0.14215
1781.81686	0.13437
1779.88848	0.12703
1777.96011	0.12033
1776.03174	0.11327
1774.10336	0.10461
1772.17499	0.09521
1770.24662	0.08790
1768.31824	0.08207
1766.38987	0.07546
1764.46150	0.06794
1762.53312	0.05913
1760.60475	0.04978
1758.67638	0.04133
1756.74800	0.03291
1754.81963	0.02505
1752.89126	0.01830
1750.96288	0.01204
1749.03451	0.00699
1747.10614	0.00379
1745.17777	0.00184
1743.24939	0.00083
1741.32102	0.00068
1739.39265	0.00093
1737.46427	0.00107
1735.53590	0.00122
1733.60753	0.00125
1731.67915	0.00105
1729.75078	0.00093
1727.82241	0.00089
1725.89403	0.00092
1723.96566	0.00099
1722.03729	0.00103
1720.10891	0.00107
1718.18054	0.00115
1716.25217	0.00114
1714.32379	0.00102
1712.39542	0.00093
1710.46705	0.00088
1708.53867	0.00095
1706.61030	0.00104
1704.68193	0.00104
1702.75355	0.00115
1700.82518	0.00139
1698.89681	0.00152
1696.96843	0.00132
1695.04006	0.00102
1693.11169	0.00081
1691.18331	0.00077
1689.25494	0.00082
1687.32657	0.00087
1685.39820	0.00097
1683.46982	0.00106
1681.54145	0.00096
1679.61308	0.00075
1677.68470	0.00066
1675.75633	0.00083
1673.82796	0.00096
1671.89958	0.00107
1669.97121	0.00121
1668.04284	0.00118
1666.11446	0.00101
1664.18609	0.00093
1662.25772	0.00089
1660.32934	0.00084
1658.40097	0.00091
1656.47260	0.00110
1654.54422	0.00141
1652.61585	0.00152
1650.68748	0.00125
1648.75910	0.00103
1646.83073	0.00090
1644.90236	0.00076
1642.97398	0.00060
1641.04561	0.00056
1639.11724	0.00062
1637.18886	0.00075
1635.26049	0.00088
1633.33212	0.00085
1631.40375	0.00076
1629.47537	0.00075
1627.54700	0.00086
1625.61863	0.00100
1623.69025	0.00095
1621.76188	0.00069
1619.83351	0.00052
1617.90513	0.00054
1615.97676	0.00068
1614.04839	0.00075
1612.12001	0.00083
1610.19164	0.00090
1608.26327	0.00086
1606.33489	0.00069
1604.40652	0.00061
1602.47815	0.00059
1600.54977	0.00063
1598.62140	0.00067
1596.69303	0.00063
1594.76465	0.00054
1592.83628	0.00054
1590.90791	0.00058
1588.97953	0.00055
1587.05116	0.00049
1585.12279	0.00046
1583.19441	0.00049
1581.26604	0.00049
1579.33767	0.00050
1577.40929	0.00061
1575.48092	0.00071
1573.55255	0.00062
1571.62418	0.00058
1569.69580	0.00070
1567.76743	0.00073
1565.83906	0.00065
1563.91068	0.00066
1561.98231	0.00077
1560.05394	0.00104
1558.12556	0.00106
1556.19719	0.00073
1554.26882	0.00054
1552.34044	0.00050
1550.41207	0.00056
1548.48370	0.00067
1546.55532	0.00074
1544.62695	0.00079
1542.69858	0.00083
1540.77020	0.00074
1538.84183	0.00056
1536.91346	0.00058
1534.98508	0.00069
1533.05671	0.00074
1531.12834	0.00069
1529.19996	0.00066
1527.27159	0.00074
1525.34322	0.00082
1523.41484	0.00080
1521.48647	0.00081
1519.55810	0.00087
1517.62972	0.00085
1515.70135	0.00082
1513.77298	0.00087
1511.84461	0.00090
1509.91623	0.00091
1507.98786	0.00105
1506.05949	0.00113
1504.13111	0.00085
1502.20274	0.00057
1500.27437	0.00050
1498.34599	0.00066
1496.41762	0.00086
1494.48925	0.00088
1492.56087	0.00082
1490.63250	0.00081
1488.70413	0.00078
1486.77575	0.00067
1484.84738	0.00061
1482.91901	0.00058
1480.99063	0.00049
1479.06226	0.00038
1477.13389	0.00034
1475.20551	0.00033
1473.27714	0.00041
1471.34877	0.00051
1469.42039	0.00053
1467.49202	0.00054
1465.56365	0.00062
1463.63527	0.00064
1461.70690	0.00061
1459.77853	0.00067
1457.85016	0.00081
1455.92178	0.00069
1453.99341	0.00046
1452.06504	0.00054
1450.13666	0.00080
1448.20829	0.00094
1446.27992	0.00091
1444.35154	0.00088
1442.42317	0.00087
1440.49480	0.00086
1438.56642	0.00086
1436.63805	0.00086
1434.70968	0.00084
1432.78130	0.00091
1430.85293	0.00105
1428.92456	0.00104
1426.99618	0.00090
1425.06781	0.00087
1423.13944	0.00091
1421.21106	0.00095
1419.28269	0.00102
1417.35432	0.00103
1415.42594	0.00095
1413.49757	0.00092
1411.56920	0.00092
1409.64082	0.00085
1407.71245	0.00082
1405.78408	0.00093
1403.85570	0.00108
1401.92733	0.00120
1399.99896	0.00126
1398.07059	0.00122
1396.14221	0.00115
1394.21384	0.00105
1392.28547	0.00086
1390.35709	0.00082
1388.42872	0.00102
1386.50035	0.00112
1384.57197	0.00098
1382.64360	0.00082
1380.71523	0.00081
1378.78685	0.00093
1376.85848	0.00100
1374.93011	0.00101
1373.00173	0.00101
1371.07336	0.00095
1369.14499	0.00083
1367.21661	0.00075
1365.28824	0.00081
1363.35987	0.00102
1361.43149	0.00114
1359.50312	0.00113
1357.57475	0.00121
1355.64637	0.00127
1353.71800	0.00113
1351.78963	0.00099
1349.86125	0.00104
1347.93288	0.00115
1346.00451	0.00113
1344.07614	0.00096
1342.14776	0.00079
1340.21939	0.00073
1338.29102	0.00076
1336.36264	0.00088
1334.43427	0.00107
1332.50590	0.00103
1330.57752	0.00079
1328.64915	0.00080
1326.72078	0.00109
1324.79240	0.00124
1322.86403	0.00117
1320.93566	0.00111
1319.00728	0.00118
1317.07891	0.00124
1315.15054	0.00118
1313.22216	0.00107
1311.29379	0.00094
1309.36542	0.00081
1307.43704	0.00082
1305.50867	0.00091
1303.58030	0.00098
1301.65192	0.00106
1299.72355	0.00108
1297.79518	0.00099
1295.86680	0.00088
1293.93843	0.00090
1292.01006	0.00109
1290.08168	0.00129
1288.15331	0.00136
1286.22494	0.00122
1284.29657	0.00104
1282.36819	0.00108
1280.43982	0.00127
1278.51145	0.00135
1276.58307	0.00128
1274.65470	0.00130
1272.72633	0.00133
1270.79795	0.00137
1268.86958	0.00153
1266.94121	0.00178
1265.01283	0.00191
1263.08446	0.00172
1261.15609	0.00149
1259.22771	0.00153
1257.29934	0.00149
1255.37097	0.00120
1253.44259	0.00104
1251.51422	0.00106
1249.58585	0.00123
1247.65747	0.00160
1245.72910	0.00183
1243.80073	0.00169
1241.87235	0.00157
1239.94398	0.00168
1238.01561	0.00173
1236.08723	0.00172
1234.15886	0.00184
1232.23049	0.00194
1230.30212	0.00193
1228.37374	0.00187
1226.44537	0.00186
1224.51700	0.00195
1222.58862	0.00225
1220.66025	0.00249
1218.73188	0.00258
1216.80350	0.00261
1214.87513	0.00248
1212.94676	0.00236
1211.01838	0.00235
1209.09001	0.00242
1207.16164	0.00258
1205.23326	0.00281
1203.30489	0.00299
1201.37652	0.00321
1199.44814	0.00349
1197.51977	0.00397
1195.59140	0.00483
1193.66302	0.00580
1191.73465	0.00640
1189.80628	0.00662
1187.87790	0.00665
1185.94953	0.00639
1184.02116	0.00607
1182.09278	0.00586
1180.16441	0.00549
1178.23604	0.00483
1176.30766	0.00387
1174.37929	0.00283
1172.45092	0.00225
1170.52255	0.00219
1168.59417	0.00229
1166.66580	0.00220
1164.73743	0.00200
1162.80905	0.00200
1160.88068	0.00198
1158.95231	0.00180
1157.02393	0.00167
1155.09556	0.00172
1153.16719	0.00186
1151.23881	0.00198
1149.31044	0.00215
1147.38207	0.00269
1145.45369	0.00356
1143.52532	0.00409
1141.59695	0.00390
1139.66857	0.00337
1137.74020	0.00289
1135.81183	0.00250
1133.88345	0.00215
1131.95508	0.00206
1130.02671	0.00240
1128.09833	0.00262
1126.16996	0.00246
1124.24159	0.00249
1122.31321	0.00287
1120.38484	0.00300
1118.45647	0.00277
1116.52809	0.00271
1114.59972	0.00296
1112.67135	0.00302
1110.74298	0.00263
1108.81460	0.00211
1106.88623	0.00196
1104.95786	0.00198
1103.02948	0.00184
1101.10111	0.00185
1099.17274	0.00221
1097.24436	0.00257
1095.31599	0.00264
1093.38762	0.00251
1091.45924	0.00231
1089.53087	0.00207
1087.60250	0.00205
1085.67412	0.00237
1083.74575	0.00257
1081.81738	0.00236
1079.88900	0.00222
1077.96063	0.00231
1076.03226	0.00247
1074.10388	0.00243
1072.17551	0.00237
1070.24714	0.00243
1068.31876	0.00240
1066.39039	0.00241
1064.46202	0.00250
1062.53364	0.00270
1060.60527	0.00290
1058.67690	0.00284
1056.74853	0.00255
1054.82015	0.00232
1052.89178	0.00218
1050.96341	0.00208
1049.03503	0.00215
1047.10666	0.00227
1045.17829	0.00228
1043.24991	0.00223
1041.32154	0.00237
1039.39317	0.00255
1037.46479	0.00257
1035.53642	0.00250
1033.60805	0.00241
1031.67967	0.00230
1029.75130	0.00230
1027.82293	0.00241
1025.89455	0.00251
1023.96618	0.00262
1022.03781	0.00257
1020.10943	0.00237
1018.18106	0.00225
1016.25269	0.00217
1014.32431	0.00195
1012.39594	0.00169
1010.46757	0.00157
1008.53919	0.00163
1006.61082	0.00188
1004.68245	0.00227
1002.75407	0.00247
1000.82570	0.00247
998.89733	0.00256
996.96896	0.00277
995.04058	0.00312
993.11221	0.00366
991.18384	0.00428
989.25546	0.00484
987.32709	0.00541
985.39872	0.00590
983.47034	0.00606
981.54197	0.00610
979.61360	0.00634
977.68522	0.00667
975.75685	0.00717
973.82848	0.00839
971.90010	0.01065
969.97173	0.01365
968.04336	0.01696
966.11498	0.01997
964.18661	0.02182
962.25824	0.02175
960.32986	0.01932
958.40149	0.01510
956.47312	0.01110
954.54474	0.00924
952.61637	0.00987
950.68800	0.01233
948.75962	0.01577
946.83125	0.01948
944.90288	0.02295
942.97451	0.02589
941.04613	0.02822
939.11776	0.03004
937.18939	0.03147
935.26101	0.03254
933.33264	0.03323
931.40427	0.03353
929.47589	0.03337
927.54752	0.03266
925.61915	0.03135
923.69077	0.02977
921.76240	0.02851
919.83403	0.02777
917.90565	0.02753
915.97728	0.02759
914.04891	0.02733
912.12053	0.02623
910.19216	0.02422
908.26379	0.02166
906.33541	0.01892
904.40704	0.01615
902.47867	0.01346
900.55029	0.01128
898.62192	0.00988
896.69355	0.00907
894.76517	0.00860
892.83680	0.00821
890.90843	0.00781
888.98005	0.00749
887.05168	0.00711
885.12331	0.00666
883.19494	0.00639
881.26656	0.00624
879.33819	0.00617
877.40982	0.00620
875.48144	0.00615
873.55307	0.00622
871.62470	0.00651
869.69632	0.00662
867.76795	0.00658
865.83958	0.00657
863.91120	0.00656
861.98283	0.00611
860.05446	0.00538
858.12608	0.00521
856.19771	0.00538
854.26934	0.00532
852.34096	0.00517
850.41259	0.00489
848.48422	0.00449
846.55584	0.00429
844.62747	0.00423
842.69910	0.00416
840.77072	0.00405
838.84235	0.00395
836.91398	0.00382
834.98560	0.00391
833.05723	0.00435
831.12886	0.00469
829.20049	0.00462
827.27211	0.00431
825.34374	0.00384
823.41537	0.00357
821.48699	0.00368
819.55862	0.00373
817.63025	0.00353
815.70187	0.00342
813.77350	0.00349
811.84513	0.00339
809.91675	0.00328
807.98838	0.00340
806.06001	0.00364
804.13163	0.00379
802.20326	0.00375
800.27489	0.00355
798.34651	0.00339
796.41814	0.00365
794.48977	0.00433
792.56139	0.00461
790.63302	0.00432
788.70465	0.00403
786.77627	0.00398
784.84790	0.00411
782.91953	0.00426
780.99115	0.00419
779.06278	0.00399
777.13441	0.00386
775.20603	0.00360
773.27766	0.00313
771.34929	0.00279
769.42092	0.00302
767.49254	0.00352
765.56417	0.00363
763.63580	0.00353
761.70742	0.00364
759.77905	0.00359
757.85068	0.00332
755.92230	0.00312
753.99393	0.00322
752.06556	0.00344
750.13718	0.00358
748.20881	0.00369
746.28044	0.00378
744.35206	0.00389
742.42369	0.00388
740.49532	0.00380
738.56694	0.00395
736.63857	0.00403
734.71020	0.00377
732.78182	0.00354
730.85345	0.00353
728.92508	0.00360
726.99670	0.00350
725.06833	0.00334
723.13996	0.00360
721.21158	0.00389
719.28321	0.00391
717.35484	0.00424
715.42647	0.00491
713.49809	0.00521
711.56972	0.00507
709.64135	0.00489
707.71297	0.00497
705.78460	0.00516
703.85623	0.00504
701.92785	0.00473
699.99948	0.00457
698.07111	0.00474
696.14273	0.00530
694.21436	0.00585
692.28599	0.00600
690.35761	0.00575
688.42924	0.00535
686.50087	0.00490
684.57249	0.00477
682.64412	0.00526
680.71575	0.00594
678.78737	0.00653
676.85900	0.00678
674.93063	0.00683
673.00225	0.00684
671.07388	0.00736
669.14551	0.00944
667.21713	0.01022
665.28876	0.00796
663.36039	0.00660
661.43201	0.00720
659.50364	0.00886
657.57527	0.01033
655.64690	0.01099
653.71852	0.01118
651.79015	0.01062
649.86178	0.00906
647.93340	0.00797
646.00503	0.00798
644.07666	0.00785
642.14828	0.00761
640.21991	0.00830
638.29154	0.00948
636.36316	0.00985
634.43479	0.00951
632.50642	0.00945
630.57804	0.01017
628.64967	0.01118
626.72130	0.01180
624.79292	0.01183
622.86455	0.01155
620.93618	0.01190
619.00780	0.01382
617.07943	0.01703
615.15106	0.01912
613.22268	0.01871
611.29431	0.01723
609.36594	0.01570
607.43756	0.01345
605.50919	0.01188
603.58082	0.01363
601.65244	0.01720
599.72407	0.01969
