3997.51769	0.80814
3995.58931	0.80781
3993.66094	0.80752
3991.73257	0.80740
3989.80419	0.80778
3987.87582	0.80862
3985.94745	0.80916
3984.01907	0.80914
3982.09070	0.80901
3980.16233	0.80903
3978.23396	0.80894
3976.30558	0.80837
3974.37721	0.80766
3972.44884	0.80767
3970.52046	0.80850
3968.59209	0.80997
3966.66372	0.81177
3964.73534	0.81268
3962.80697	0.81212
3960.87860	0.81187
3958.95022	0.81298
3957.02185	0.81442
3955.09348	0.81561
3953.16510	0.81551
3951.23673	0.81298
3949.30836	0.81015
3947.37998	0.81089
3945.45161	0.81299
3943.52324	0.81252
3941.59486	0.81359
3939.66649	0.81844
3937.73812	0.82206
3935.80974	0.82139
3933.88137	0.81653
3931.95300	0.81182
3930.02462	0.81318
3928.09625	0.81729
3926.16788	0.81726
3924.23950	0.81573
3922.31113	0.81751
3920.38276	0.81865
3918.45439	0.81695
3916.52601	0.81851
3914.59764	0.82617
3912.66927	0.83392
3910.74089	0.83728
3908.81252	0.83558
3906.88415	0.82671
3904.95577	0.81218
3903.02740	0.80216
3901.09903	0.80291
3899.17065	0.81242
3897.24228	0.82691
3895.31391	0.83611
3893.38553	0.83361
3891.45716	0.82910
3889.52879	0.83309
3887.60041	0.83490
3885.67204	0.82931
3883.74367	0.82636
3881.81529	0.82588
3879.88692	0.82913
3877.95855	0.83971
3876.03017	0.84313
3874.10180	0.83544
3872.17343	0.82691
3870.24505	0.82291
3868.31668	0.82734
3866.38831	0.83243
3864.45994	0.83105
3862.53156	0.83464
3860.60319	0.84561
3858.67482	0.84997
3856.74644	0.84176
3854.81807	0.82283
3852.88970	0.80946
3850.96132	0.82509
3849.03295	0.84787
3847.10458	0.85890
3845.17620	0.85599
3843.24783	0.84462
3841.31946	0.83176
3839.39108	0.82200
3837.46271	0.82166
3835.53434	0.83094
3833.60596	0.84044
3831.67759	0.84782
3829.74922	0.85359
3827.82084	0.85489
3825.89247	0.85311
3823.96410	0.84755
3822.03572	0.83336
3820.10735	0.82536
3818.17898	0.83274
3816.25060	0.84103
3814.32223	0.85281
3812.39386	0.86632
3810.46548	0.86976
3808.53711	0.86065
3806.60874	0.84902
3804.68037	0.84304
3802.75199	0.83454
3800.82362	0.82913
3798.89525	0.83646
3796.96687	0.84548
3795.03850	0.85533
3793.11013	0.86613
3791.18175	0.87143
3789.25338	0.87110
3787.32501	0.86685
3785.39663	0.86091
3783.46826	0.85810
3781.53989	0.85515
3779.61151	0.85002
3777.68314	0.85218
3775.75477	0.85990
3773.82639	0.86138
3771.89802	0.85290
3769.96965	0.84168
3768.04127	0.83764
3766.11290	0.83911
3764.18453	0.84227
3762.25615	0.84207
3760.32778	0.83320
3758.39941	0.82454
3756.47103	0.82368
3754.54266	0.81915
3752.61429	0.80227
3750.68591	0.78492
3748.75754	0.78585
3746.82917	0.79087
3744.90080	0.78934
3742.97242	0.79370
3741.04405	0.80250
3739.11568	0.80109
3737.18730	0.78537
3735.25893	0.76790
3733.33056	0.77036
3731.40218	0.78879
3729.47381	0.80227
3727.54544	0.80164
3725.61706	0.79314
3723.68869	0.78724
3721.76032	0.78656
3719.83194	0.78935
3717.90357	0.79231
3715.97520	0.78977
3714.04682	0.77636
3712.11845	0.75499
3710.19008	0.74528
3708.26170	0.75464
3706.33333	0.76433
3704.40496	0.76201
3702.47658	0.75072
3700.54821	0.74308
3698.61984	0.74156
3696.69146	0.73691
3694.76309	0.72529
3692.83472	0.70573
3690.90635	0.67945
3688.97797	0.65941
3687.04960	0.65628
3685.12123	0.65687
3683.19285	0.64894
3681.26448	0.63071
3679.33611	0.60545
3677.40773	0.57499
3675.47936	0.54308
3673.55099	0.52486
3671.62261	0.51254
3669.69424	0.49316
3667.76587	0.47830
3665.83749	0.46903
3663.90912	0.45421
3661.98075	0.43352
3660.05237	0.41071
3658.12400	0.38614
3656.19563	0.35998
3654.26725	0.33697
3652.33888	0.31482
3650.41051	0.28648
3648.48213	0.25930
3646.55376	0.24523
3644.62539	0.23697
3642.69701	0.22612
3640.76864	0.21194
3638.84027	0.19688
3636.91189	0.18205
3634.98352	0.16746
3633.05515	0.15364
3631.12678	0.14050
3629.19840	0.12603
3627.27003	0.11389
3625.34166	0.10708
3623.41328	0.10051
3621.48491	0.09203
3619.55654	0.08242
3617.62816	0.07414
3615.69979	0.06799
3613.77142	0.06220
3611.84304	0.05665
3609.91467	0.05173
3607.98630	0.04692
3606.05792	0.04259
3604.12955	0.03907
3602.20118	0.03547
3600.27280	0.03171
3598.34443	0.02841
3596.41606	0.02563
3594.48768	0.02313
3592.55931	0.02063
3590.63094	0.01823
3588.70256	0.01593
3586.77419	0.01407
3584.84582	0.01278
3582.91744	0.01143
3580.98907	0.01006
3579.06070	0.00896
3577.13233	0.00805
3575.20395	0.00708
3573.27558	0.00620
3571.34721	0.00552
3569.41883	0.00482
3567.49046	0.00396
3565.56209	0.00317
3563.63371	0.00278
3561.70534	0.00259
3559.77697	0.00249
3557.84859	0.00219
3555.92022	0.00165
3553.99185	0.00126
3552.06347	0.00106
3550.13510	0.00082
3548.20673	0.00050
3546.27835	0.00036
3544.34998	0.00058
3542.42161	0.00066
3540.49323	0.00055
3538.56486	0.00048
3536.63649	0.00050
3534.70811	0.00045
3532.77974	0.00047
3530.85137	0.00059
3528.92299	0.00071
3526.99462	0.00099
3525.06625	0.00125
3523.13787	0.00124
3521.20950	0.00121
3519.28113	0.00120
3517.35276	0.00116
3515.42438	0.00119
3513.49601	0.00124
3511.56764	0.00130
3509.63926	0.00134
3507.71089	0.00140
3505.78252	0.00140
3503.85414	0.00144
3501.92577	0.00134
3499.99740	0.00100
3498.06902	0.00084
3496.14065	0.00103
3494.21228	0.00111
3492.28390	0.00100
3490.35553	0.00111
3488.42716	0.00132
3486.49878	0.00141
3484.57041	0.00134
3482.64204	0.00116
3480.71366	0.00104
3478.78529	0.00096
3476.85692	0.00087
3474.92854	0.00073
3473.00017	0.00072
3471.07180	0.00084
3469.14342	0.00085
3467.21505	0.00067
3465.28668	0.00058
3463.35831	0.00068
3461.42993	0.00079
3459.50156	0.00093
3457.57319	0.00107
3455.64481	0.00116
3453.71644	0.00128
3451.78807	0.00138
3449.85969	0.00137
3447.93132	0.00135
3446.00295	0.00129
3444.07457	0.00115
3442.14620	0.00113
3440.21783	0.00121
3438.28945	0.00111
3436.36108	0.00085
3434.43271	0.00069
3432.50433	0.00073
3430.57596	0.00084
3428.64759	0.00080
3426.71921	0.00073
3424.79084	0.00087
3422.86247	0.00109
3420.93409	0.00106
3419.00572	0.00103
3417.07735	0.00107
3415.14897	0.00096
3413.22060	0.00090
3411.29223	0.00097
3409.36385	0.00090
3407.43548	0.00084
3405.50711	0.00083
3403.57874	0.00082
3401.65036	0.00092
3399.72199	0.00103
3397.79362	0.00083
3395.86524	0.00055
3393.93687	0.00058
3392.00850	0.00069
3390.08012	0.00075
3388.15175	0.00076
3386.22338	0.00094
3384.29500	0.00112
3382.36663	0.00109
3380.43826	0.00094
3378.50988	0.00083
3376.58151	0.00077
3374.65314	0.00084
3372.72476	0.00111
3370.79639	0.00134
3368.86802	0.00130
3366.93964	0.00112
3365.01127	0.00101
3363.08290	0.00097
3361.15452	0.00099
3359.22615	0.00109
3357.29778	0.00109
3355.36940	0.00113
3353.44103	0.00126
3351.51266	0.00134
3349.58428	0.00130
3347.65591	0.00125
3345.72754	0.00116
3343.79917	0.00094
3341.87079	0.00074
3339.94242	0.00069
3338.01405	0.00083
3336.08567	0.00100
3334.15730	0.00107
3332.22893	0.00110
3330.30055	0.00110
3328.37218	0.00114
3326.44381	0.00128
3324.51543	0.00122
3322.58706	0.00093
3320.65869	0.00067
3318.73031	0.00058
3316.80194	0.00065
3314.87357	0.00074
3312.94519	0.00071
3311.01682	0.00061
3309.08845	0.00061
3307.16007	0.00055
3305.23170	0.00068
3303.30333	0.00102
3301.37495	0.00132
3299.44658	0.00150
3297.51821	0.00148
3295.58983	0.00116
3293.66146	0.00080
3291.73309	0.00060
3289.80472	0.00066
3287.87634	0.00077
3285.94797	0.00088
3284.01960	0.00101
3282.09122	0.00103
3280.16285	0.00092
3278.23448	0.00081
3276.30610	0.00072
3274.37773	0.00072
3272.44936	0.00084
3270.52098	0.00091
3268.59261	0.00093
3266.66424	0.00085
3264.73586	0.00068
3262.80749	0.00058
3260.87912	0.00064
3258.95074	0.00077
3257.02237	0.00079
3255.09400	0.00062
3253.16562	0.00053
3251.23725	0.00057
3249.30888	0.00068
3247.38050	0.00094
3245.45213	0.00108
3243.52376	0.00098
3241.59538	0.00080
3239.66701	0.00081
3237.73864	0.00096
3235.81026	0.00110
3233.88189	0.00119
3231.95352	0.00120
3230.02515	0.00105
3228.09677	0.00103
3226.16840	0.00117
3224.24003	0.00118
3222.31165	0.00099
3220.38328	0.00077
3218.45491	0.00072
3216.52653	0.00089
3214.59816	0.00095
3212.66979	0.00082
3210.74141	0.00081
3208.81304	0.00088
3206.88467	0.00092
3204.95629	0.00091
3203.02792	0.00104
3201.09955	0.00131
3199.17117	0.00136
3197.24280	0.00110
3195.31443	0.00093
3193.38605	0.00108
3191.45768	0.00128
3189.52931	0.00117
3187.60093	0.00087
3185.67256	0.00066
3183.74419	0.00053
3181.81581	0.00051
3179.88744	0.00060
3177.95907	0.00077
3176.03070	0.00097
3174.10232	0.00110
3172.17395	0.00117
3170.24558	0.00123
3168.31720	0.00120
3166.38883	0.00099
3164.46046	0.00077
3162.53208	0.00077
3160.60371	0.00098
3158.67534	0.00124
3156.74696	0.00117
3154.81859	0.00091
3152.89022	0.00082
3150.96184	0.00089
3149.03347	0.00103
3147.10510	0.00092
3145.17672	0.00065
3143.24835	0.00065
3141.31998	0.00070
3139.39160	0.00098
3137.46323	0.00107
3135.53486	0.00085
3133.60648	0.00076
3131.67811	0.00085
3129.74974	0.00084
3127.82136	0.00083
3125.89299	0.00087
3123.96462	0.00086
3122.03624	0.00091
3120.10787	0.00111
3118.17950	0.00129
3116.25113	0.00134
3114.32275	0.00119
3112.39438	0.00097
3110.46601	0.00087
3108.53763	0.00087
3106.60926	0.00090
3104.68089	0.00097
3102.75251	0.00096
3100.82414	0.00090
3098.89577	0.00093
3096.96739	0.00109
3095.03902	0.00131
3093.11065	0.00145
3091.18227	0.00135
3089.25390	0.00108
3087.32553	0.00089
3085.39715	0.00086
3083.46878	0.00089
3081.54041	0.00089
3079.61203	0.00090
3077.68366	0.00097
3075.75529	0.00097
3073.82691	0.00088
3071.89854	0.00092
3069.97017	0.00105
3068.04179	0.00109
3066.11342	0.00108
3064.18505	0.00116
3062.25668	0.00121
3060.32830	0.00115
3058.39993	0.00117
3056.47156	0.00119
3054.54318	0.00117
3052.61481	0.00107
3050.68644	0.00097
3048.75806	0.00093
3046.82969	0.00089
3044.90132	0.00079
3042.97294	0.00068
3041.04457	0.00059
3039.11620	0.00075
3037.18782	0.00096
3035.25945	0.00101
3033.33108	0.00107
3031.40270	0.00105
3029.47433	0.00084
3027.54596	0.00073
3025.61758	0.00073
3023.68921	0.00084
3021.76084	0.00104
3019.83246	0.00112
3017.90409	0.00104
3015.97572	0.00096
3014.04734	0.00103
3012.11897	0.00111
3010.19060	0.00113
3008.26222	0.00120
3006.33385	0.00123
3004.40548	0.00103
3002.47711	0.00077
3000.54873	0.00086
2998.62036	0.00107
2996.69199	0.00122
2994.76361	0.00124
2992.83524	0.00119
2990.90687	0.00119
2988.97849	0.00126
2987.05012	0.00138
2985.12175	0.00148
2983.19337	0.00154
2981.26500	0.00157
2979.33663	0.00148
2977.40825	0.00127
2975.47988	0.00118
2973.55151	0.00127
2971.62313	0.00152
2969.69476	0.00189
2967.76639	0.00209
2965.83801	0.00182
2963.90964	0.00132
2961.98127	0.00114
2960.05289	0.00131
2958.12452	0.00160
2956.19615	0.00174
2954.26777	0.00172
2952.33940	0.00165
2950.41103	0.00153
2948.48266	0.00148
2946.55428	0.00156
2944.62591	0.00165
2942.69754	0.00166
2940.76916	0.00152
2938.84079	0.00131
2936.91242	0.00126
2934.98404	0.00143
2933.05567	0.00152
2931.12730	0.00147
2929.19892	0.00127
2927.27055	0.00113
2925.34218	0.00101
2923.41380	0.00098
2921.48543	0.00107
2919.55706	0.00122
2917.62868	0.00128
2915.70031	0.00129
2913.77194	0.00127
2911.84356	0.00126
2909.91519	0.00128
2907.98682	0.00116
2906.05844	0.00089
2904.13007	0.00076
2902.20170	0.00100
2900.27332	0.00130
2898.34495	0.00144
2896.41658	0.00139
2894.48820	0.00121
2892.55983	0.00103
2890.63146	0.00098
2888.70309	0.00108
2886.77471	0.00114
2884.84634	0.00100
2882.91797	0.00100
2880.98959	0.00128
2879.06122	0.00146
2877.13285	0.00130
2875.20447	0.00107
2873.27610	0.00099
2871.34773	0.00102
2869.41935	0.00107
2867.49098	0.00115
2865.56261	0.00122
2863.63423	0.00118
2861.70586	0.00112
2859.77749	0.00102
2857.84911	0.00098
2855.92074	0.00084
2853.99237	0.00054
2852.06399	0.00032
2850.13562	0.00048
2848.20725	0.00079
2846.27887	0.00099
2844.35050	0.00108
2842.42213	0.00107
2840.49375	0.00097
2838.56538	0.00085
2836.63701	0.00077
2834.70863	0.00078
2832.78026	0.00090
2830.85189	0.00099
2828.92352	0.00102
2826.99514	0.00103
2825.06677	0.00102
2823.13840	0.00099
2821.21002	0.00092
2819.28165	0.00080
2817.35328	0.00065
2815.42490	0.00057
2813.49653	0.00055
2811.56816	0.00059
2809.63978	0.00068
2807.71141	0.00075
2805.78304	0.00085
2803.85466	0.00099
2801.92629	0.00099
2799.99792	0.00087
2798.06954	0.00082
2796.14117	0.00077
2794.21280	0.00073
2792.28442	0.00073
2790.35605	0.00070
2788.42768	0.00062
2786.49930	0.00050
2784.57093	0.00050
2782.64256	0.00067
2780.71418	0.00085
2778.78581	0.00091
2776.85744	0.00097
2774.92907	0.00093
2773.00069	0.00078
2771.07232	0.00064
2769.14395	0.00057
2767.21557	0.00060
2765.28720	0.00072
2763.35883	0.00074
2761.43045	0.00066
2759.50208	0.00056
2757.57371	0.00053
2755.64533	0.00054
2753.71696	0.00049
2751.78859	0.00044
2749.86021	0.00049
2747.93184	0.00061
2746.00347	0.00061
2744.07509	0.00046
2742.14672	0.00028
2740.21835	0.00018
2738.28997	0.00026
2736.36160	0.00033
2734.43323	0.00044
2732.50485	0.00053
2730.57648	0.00055
2728.64811	0.00048
2726.71973	0.00051
2724.79136	0.00059
2722.86299	0.00066
2720.93461	0.00077
2719.00624	0.00088
2717.07787	0.00085
2715.14950	0.00080
2713.22112	0.00089
2711.29275	0.00100
2709.36438	0.00094
2707.43600	0.00083
2705.50763	0.00086
2703.57926	0.00094
2701.65088	0.00101
2699.72251	0.00112
2697.79414	0.00126
2695.86576	0.00139
2693.93739	0.00147
2692.00902	0.00148
2690.08064	0.00143
2688.15227	0.00135
2686.22390	0.00128
2684.29552	0.00129
2682.36715	0.00138
2680.43878	0.00141
2678.51040	0.00143
2676.58203	0.00151
2674.65366	0.00164
2672.72528	0.00176
2670.79691	0.00196
2668.86854	0.00222
2666.94016	0.00240
2665.01179	0.00243
2663.08342	0.00254
2661.15505	0.00280
2659.22667	0.00294
2657.29830	0.00282
2655.36993	0.00275
2653.44155	0.00303
2651.51318	0.00348
2649.58481	0.00373
2647.65643	0.00380
2645.72806	0.00401
2643.79969	0.00436
2641.87131	0.00455
2639.94294	0.00463
2638.01457	0.00479
2636.08619	0.00506
2634.15782	0.00535
2632.22945	0.00556
2630.30107	0.00575
2628.37270	0.00597
2626.44433	0.00621
2624.51595	0.00644
2622.58758	0.00671
2620.65921	0.00705
2618.73083	0.00745
2616.80246	0.00788
2614.87409	0.00838
2612.94571	0.00886
2611.01734	0.00923
2609.08897	0.00961
2607.16059	0.01009
2605.23222	0.01060
2603.30385	0.01113
2601.37548	0.01170
2599.44710	0.01220
2597.51873	0.01264
2595.59036	0.01313
2593.66198	0.01363
2591.73361	0.01415
2589.80524	0.01468
2587.87686	0.01512
2585.94849	0.01560
2584.02012	0.01622
2582.09174	0.01686
2580.16337	0.01739
2578.23500	0.01790
2576.30662	0.01852
2574.37825	0.01915
2572.44988	0.01975
2570.52150	0.02035
2568.59313	0.02094
2566.66476	0.02144
2564.73638	0.02194
2562.80801	0.02253
2560.87964	0.02325
2558.95126	0.02402
2557.02289	0.02480
2555.09452	0.02548
2553.16614	0.02612
2551.23777	0.02686
2549.30940	0.02760
2547.38103	0.02826
2545.45265	0.02892
2543.52428	0.02963
2541.59591	0.03035
2539.66753	0.03102
2537.73916	0.03160
2535.81079	0.03215
2533.88241	0.03271
2531.95404	0.03338
2530.02567	0.03421
2528.09729	0.03510
2526.16892	0.03589
2524.24055	0.03660
2522.31217	0.03741
2520.38380	0.03827
2518.45543	0.03901
2516.52705	0.03966
2514.59868	0.04037
2512.67031	0.04124
2510.74193	0.04222
2508.81356	0.04323
2506.88519	0.04410
2504.95681	0.04472
2503.02844	0.04522
2501.10007	0.04585
2499.17169	0.04661
2497.24332	0.04741
2495.31495	0.04817
2493.38657	0.04895
2491.45820	0.04977
2489.52983	0.05052
2487.60146	0.05117
2485.67308	0.05184
2483.74471	0.05262
2481.81634	0.05354
2479.88796	0.05452
2477.95959	0.05541
2476.03122	0.05624
2474.10284	0.05711
2472.17447	0.05799
2470.24610	0.05902
2468.31772	0.06026
2466.38935	0.06148
2464.46098	0.06268
2462.53260	0.06405
2460.60423	0.06558
2458.67586	0.06707
2456.74748	0.06844
2454.81911	0.06979
2452.89074	0.07118
2450.96236	0.07267
2449.03399	0.07427
2447.10562	0.07585
2445.17724	0.07728
2443.24887	0.07862
2441.32050	0.07997
2439.39212	0.08131
2437.46375	0.08259
2435.53538	0.08386
2433.60700	0.08518
2431.67863	0.08651
2429.75026	0.08780
2427.82189	0.08912
2425.89351	0.09050
2423.96514	0.09195
2422.03677	0.09343
2420.10839	0.09485
2418.18002	0.09623
2416.25165	0.09766
2414.32327	0.09914
2412.39490	0.10060
2410.46653	0.10213
2408.53815	0.10383
2406.60978	0.10567
2404.68141	0.10752
2402.75303	0.10926
2400.82466	0.11091
2398.89629	0.11265
2396.96791	0.11452
2395.03954	0.11640
2393.11117	0.11821
2391.18279	0.12005
2389.25442	0.12189
2387.32605	0.12363
2385.39767	0.12520
2383.46930	0.12657
2381.54093	0.12774
2379.61255	0.12876
2377.68418	0.12985
2375.75581	0.13095
2373.82744	0.13175
2371.89906	0.13219
2369.97069	0.13260
2368.04232	0.13320
2366.11394	0.13390
2364.18557	0.13470
2362.25720	0.13598
2360.32882	0.13809
2358.40045	0.14081
2356.47208	0.14354
2354.54370	0.14606
2352.61533	0.14843
2350.68696	0.15065
2348.75858	0.15234
2346.83021	0.15325
2344.90184	0.15362
2342.97346	0.15400
2341.04509	0.15452
2339.11672	0.15522
2337.18834	0.15638
2335.25997	0.15787
2333.33160	0.15925
2331.40322	0.16060
2329.47485	0.16229
2327.54648	0.16400
2325.61810	0.16535
2323.68973	0.16669
2321.76136	0.16853
2319.83298	0.17090
2317.90461	0.17345
2315.97624	0.17576
2314.04787	0.17787
2312.11949	0.18004
2310.19112	0.18242
2308.26275	0.18497
2306.33437	0.18755
2304.40600	0.19015
2302.47763	0.19275
2300.54925	0.19519
2298.62088	0.19753
2296.69251	0.19987
2294.76413	0.20212
2292.83576	0.20429
2290.90739	0.20639
2288.97901	0.20835
2287.05064	0.21027
2285.12227	0.21229
2283.19389	0.21435
2281.26552	0.21625
2279.33715	0.21787
2277.40877	0.21930
2275.48040	0.22075
2273.55203	0.22229
2271.62365	0.22383
2269.69528	0.22531
2267.76691	0.22675
2265.83853	0.22811
2263.91016	0.22939
2261.98179	0.23069
2260.05342	0.23213
2258.12504	0.23368
2256.19667	0.23525
2254.26830	0.23679
2252.33992	0.23834
2250.41155	0.23991
2248.48318	0.24146
2246.55480	0.24300
2244.62643	0.24444
2242.69806	0.24568
2240.76968	0.24685
2238.84131	0.24807
2236.91294	0.24924
2234.98456	0.25035
2233.05619	0.25145
2231.12782	0.25257
2229.19944	0.25370
2227.27107	0.25480
2225.34270	0.25593
2223.41432	0.25715
2221.48595	0.25842
2219.55758	0.25971
2217.62920	0.26095
2215.70083	0.26218
2213.77246	0.26349
2211.84408	0.26484
2209.91571	0.26612
2207.98734	0.26741
2206.05896	0.26873
2204.13059	0.27006
2202.20222	0.27139
2200.27385	0.27268
2198.34547	0.27389
2196.41710	0.27505
2194.48873	0.27617
2192.56035	0.27719
2190.63198	0.27814
2188.70361	0.27905
2186.77523	0.28006
2184.84686	0.28116
2182.91849	0.28215
2180.99011	0.28295
2179.06174	0.28362
2177.13337	0.28421
2175.20499	0.28477
2173.27662	0.28532
2171.34825	0.28586
2169.41987	0.28638
2167.49150	0.28683
2165.56313	0.28718
2163.63475	0.28758
2161.70638	0.28821
2159.77801	0.28898
2157.84963	0.28978
2155.92126	0.29069
2153.99289	0.29171
2152.06451	0.29273
2150.13614	0.29373
2148.20777	0.29475
2146.27940	0.29587
2144.35102	0.29711
2142.42265	0.29848
2140.49428	0.29990
2138.56590	0.30126
2136.63753	0.30263
2134.70916	0.30414
2132.78078	0.30579
2130.85241	0.30756
2128.92404	0.30950
2126.99566	0.31150
2125.06729	0.31342
2123.13892	0.31535
2121.21054	0.31735
2119.28217	0.31934
2117.35380	0.32126
2115.42542	0.32319
2113.49705	0.32516
2111.56868	0.32708
2109.64030	0.32889
2107.71193	0.33066
2105.78356	0.33240
2103.85518	0.33403
2101.92681	0.33551
2099.99844	0.33693
2098.07006	0.33836
2096.14169	0.33978
2094.21332	0.34104
2092.28494	0.34197
2090.35657	0.34266
2088.42820	0.34344
2086.49983	0.34439
2084.57145	0.34517
2082.64308	0.34559
2080.71471	0.34581
2078.78633	0.34602
2076.85796	0.34629
2074.92959	0.34652
2073.00121	0.34653
2071.07284	0.34637
2069.14447	0.34611
2067.21609	0.34567
2065.28772	0.34529
2063.35935	0.34543
2061.43097	0.34594
2059.50260	0.34649
2057.57423	0.34708
2055.64585	0.34778
2053.71748	0.34866
2051.78911	0.34977
2049.86073	0.35100
2047.93236	0.35225
2046.00399	0.35346
2044.07561	0.35444
2042.14724	0.35537
2040.21887	0.35664
2038.29049	0.35818
2036.36212	0.35943
2034.43375	0.36020
2032.50538	0.36073
2030.57700	0.36122
2028.64863	0.36153
2026.72026	0.36166
2024.79188	0.36177
2022.86351	0.36186
2020.93514	0.36161
2019.00676	0.36089
2017.07839	0.36044
2015.15002	0.36104
2013.22164	0.36205
2011.29327	0.36273
2009.36490	0.36328
2007.43652	0.36392
2005.50815	0.36458
2003.57978	0.36530
2001.65140	0.36616
1999.72303	0.36709
1997.79466	0.36800
1995.86628	0.36842
1993.93791	0.36780
1992.00954	0.36733
1990.08116	0.36844
1988.15279	0.37026
1986.22442	0.37177
1984.29604	0.37291
1982.36767	0.37365
1980.43930	0.37418
1978.51092	0.37468
1976.58255	0.37516
1974.65418	0.37571
1972.72581	0.37625
1970.79743	0.37626
1968.86906	0.37539
1966.94069	0.37484
1965.01231	0.37582
1963.08394	0.37717
1961.15557	0.37776
1959.22719	0.37797
1957.29882	0.37815
1955.37045	0.37836
1953.44207	0.37873
1951.51370	0.37911
1949.58533	0.37910
1947.65695	0.37844
1945.72858	0.37675
1943.80021	0.37441
1941.87183	0.37391
1939.94346	0.37592
1938.01509	0.37745
1936.08671	0.37727
1934.15834	0.37650
1932.22997	0.37583
1930.30159	0.37531
1928.37322	0.37474
1926.44485	0.37347
1924.51647	0.37102
1922.58810	0.36892
1920.65973	0.36803
1918.73135	0.36715
1916.80298	0.36754
1914.87461	0.36946
1912.94624	0.36991
1911.01786	0.36825
1909.08949	0.36677
1907.16112	0.36684
1905.23274	0.36730
1903.30437	0.36701
1901.37600	0.36619
1899.44762	0.36499
1897.51925	0.36295
1895.59088	0.36053
1893.66250	0.35867
1891.73413	0.35613
1889.80576	0.35293
1887.87738	0.35175
1885.94901	0.35178
1884.02064	0.35069
1882.09226	0.34874
1880.16389	0.34645
1878.23552	0.34387
1876.30714	0.34118
1874.37877	0.33817
1872.45040	0.33345
1870.52202	0.32591
1868.59365	0.31911
1866.66528	0.31816
1864.73690	0.31991
1862.80853	0.31955
1860.88016	0.31718
1858.95179	0.31446
1857.02341	0.31205
1855.09504	0.30977
1853.16667	0.30738
1851.23829	0.30460
1849.30992	0.30093
1847.38155	0.29610
1845.45317	0.29069
1843.52480	0.28829
1841.59643	0.29023
1839.66805	0.29162
1837.73968	0.29053
1835.81131	0.28890
1833.88293	0.28662
1831.95456	0.28162
1830.02619	0.27578
1828.09781	0.27318
1826.16944	0.27207
1824.24107	0.27067
1822.31269	0.26983
1820.38432	0.26787
1818.45595	0.26383
1816.52757	0.25903
1814.59920	0.25363
1812.67083	0.24677
1810.74245	0.23941
1808.81408	0.23348
1806.88571	0.22815
1804.95733	0.22142
1803.02896	0.21267
1801.10059	0.20311
1799.17222	0.19492
1797.24384	0.18778
1795.31547	0.17954
1793.38710	0.16929
1791.45872	0.15993
1789.53035	0.15433
1787.60198	0.14930
1785.67360	0.14225
1783.74523	0.13434
1781.81686	0.12680
1779.88848	0.11974
1777.96011	0.11333
1776.03174	0.10661
1774.10336	0.09839
1772.17499	0.08949
1770.24662	0.08253
1768.31824	0.07699
1766.38987	0.07093
1764.46150	0.06402
1762.53312	0.05563
1760.60475	0.04676
1758.67638	0.03897
1756.74800	0.03127
1754.81963	0.02402
1752.89126	0.01773
1750.96288	0.01172
1749.03451	0.00677
1747.10614	0.00370
1745.17777	0.00179
1743.24939	0.00055
1741.32102	0.00051
1739.39265	0.00083
1737.46427	0.00100
1735.53590	0.00111
1733.60753	0.00106
1731.67915	0.00106
1729.75078	0.00119
1727.82241	0.00115
1725.89403	0.00101
1723.96566	0.00100
1722.03729	0.00111
1720.10891	0.00118
1718.18054	0.00125
1716.25217	0.00130
1714.32379	0.00122
1712.39542	0.00115
1710.46705	0.00109
1708.53867	0.00103
1706.61030	0.00101
1704.68193	0.00094
1702.75355	0.00085
1700.82518	0.00089
1698.89681	0.00115
1696.96843	0.00122
1695.04006	0.00101
1693.11169	0.00088
1691.18331	0.00094
1689.25494	0.00107
1687.32657	0.00127
1685.39820	0.00156
1683.46982	0.00154
1681.54145	0.00128
1679.61308	0.00115
1677.68470	0.00113
1675.75633	0.00110
1673.82796	0.00106
1671.89958	0.00110
1669.97121	0.00113
1668.04284	0.00103
1666.11446	0.00091
1664.18609	0.00089
1662.25772	0.00088
1660.32934	0.00087
1658.40097	0.00081
1656.47260	0.00082
1654.54422	0.00107
1652.61585	0.00131
1650.68748	0.00122
1648.75910	0.00111
1646.83073	0.00108
1644.90236	0.00100
1642.97398	0.00086
1641.04561	0.00075
1639.11724	0.00072
1637.18886	0.00090
1635.26049	0.00114
1633.33212	0.00109
1631.40375	0.00102
1629.47537	0.00105
1627.54700	0.00100
1625.61863	0.00081
1623.69025	0.00070
1621.76188	0.00072
1619.83351	0.00078
1617.90513	0.00089
1615.97676	0.00104
1614.04839	0.00110
1612.12001	0.00102
1610.19164	0.00091
1608.26327	0.00095
1606.33489	0.00103
1604.40652	0.00091
1602.47815	0.00063
1600.54977	0.00046
1598.62140	0.00048
1596.69303	0.00058
1594.76465	0.00066
1592.83628	0.00065
1590.90791	0.00062
1588.97953	0.00069
1587.05116	0.00080
1585.12279	0.00081
1583.19441	0.00075
1581.26604	0.00077
1579.33767	0.00089
1577.40929	0.00097
1575.48092	0.00090
1573.55255	0.00079
1571.62418	0.00078
1569.69580	0.00077
1567.76743	0.00070
1565.83906	0.00069
1563.91068	0.00069
1561.98231	0.00078
1560.05394	0.00110
1558.12556	0.00131
1556.19719	0.00104
1554.26882	0.00077
1552.34044	0.00065
1550.41207	0.00074
1548.48370	0.00078
1546.55532	0.00079
1544.62695	0.00083
1542.69858	0.00091
1540.77020	0.00107
1538.84183	0.00111
1536.91346	0.00100
1534.98508	0.00089
1533.05671	0.00080
1531.12834	0.00079
1529.19996	0.00083
1527.27159	0.00086
1525.34322	0.00092
1523.41484	0.00109
1521.48647	0.00124
1519.55810	0.00121
1517.62972	0.00114
1515.70135	0.00117
1513.77298	0.00115
1511.84461	0.00108
1509.91623	0.00112
1507.98786	0.00134
1506.05949	0.00137
1504.13111	0.00109
1502.20274	0.00090
1500.27437	0.00092
1498.34599	0.00100
1496.41762	0.00097
1494.48925	0.00087
1492.56087	0.00088
1490.63250	0.00097
1488.70413	0.00094
1486.77575	0.00088
1484.84738	0.00096
1482.91901	0.00100
1480.99063	0.00089
1479.06226	0.00080
1477.13389	0.00087
1475.20551	0.00102
1473.27714	0.00108
1471.34877	0.00105
1469.42039	0.00110
1467.49202	0.00125
1465.56365	0.00127
1463.63527	0.00111
1461.70690	0.00103
1459.77853	0.00114
1457.85016	0.00141
1455.92178	0.00156
1453.99341	0.00142
1452.06504	0.00124
1450.13666	0.00121
1448.20829	0.00125
1446.27992	0.00120
1444.35154	0.00113
1442.42317	0.00113
1440.49480	0.00115
1438.56642	0.00119
1436.63805	0.00124
1434.70968	0.00126
1432.78130	0.00123
1430.85293	0.00115
1428.92456	0.00110
1426.99618	0.00109
1425.06781	0.00113
1423.13944	0.00117
1421.21106	0.00119
1419.28269	0.00123
1417.35432	0.00123
1415.42594	0.00120
1413.49757	0.00124
1411.56920	0.00133
1409.64082	0.00139
1407.71245	0.00140
1405.78408	0.00133
1403.85570	0.00117
1401.92733	0.00100
1399.99896	0.00101
1398.07059	0.00109
1396.14221	0.00111
1394.21384	0.00107
1392.28547	0.00098
1390.35709	0.00103
1388.42872	0.00124
1386.50035	0.00135
1384.57197	0.00125
1382.64360	0.00119
1380.71523	0.00122
1378.78685	0.00124
1376.85848	0.00125
1374.93011	0.00136
1373.00173	0.00147
1371.07336	0.00152
1369.14499	0.00159
1367.21661	0.00162
1365.28824	0.00150
1363.35987	0.00139
1361.43149	0.00140
1359.50312	0.00140
1357.57475	0.00135
1355.64637	0.00129
1353.71800	0.00116
1351.78963	0.00104
1349.86125	0.00103
1347.93288	0.00111
1346.00451	0.00126
1344.07614	0.00137
1342.14776	0.00146
1340.21939	0.00156
1338.29102	0.00153
1336.36264	0.00139
1334.43427	0.00132
1332.50590	0.00132
1330.57752	0.00141
1328.64915	0.00151
1326.72078	0.00159
1324.79240	0.00167
1322.86403	0.00160
1320.93566	0.00144
1319.00728	0.00135
1317.07891	0.00133
1315.15054	0.00124
1313.22216	0.00117
1311.29379	0.00126
1309.36542	0.00136
1307.43704	0.00138
1305.50867	0.00138
1303.58030	0.00131
1301.65192	0.00122
1299.72355	0.00127
1297.79518	0.00135
1295.86680	0.00134
1293.93843	0.00131
1292.01006	0.00137
1290.08168	0.00158
1288.15331	0.00179
1286.22494	0.00185
1284.29657	0.00181
1282.36819	0.00178
1280.43982	0.00168
1278.51145	0.00154
1276.58307	0.00145
1274.65470	0.00137
1272.72633	0.00134
1270.79795	0.00136
1268.86958	0.00138
1266.94121	0.00150
1265.01283	0.00165
1263.08446	0.00166
1261.15609	0.00159
1259.22771	0.00164
1257.29934	0.00176
1255.37097	0.00173
1253.44259	0.00165
1251.51422	0.00164
1249.58585	0.00158
1247.65747	0.00142
1245.72910	0.00134
1243.80073	0.00140
1241.87235	0.00158
1239.94398	0.00173
1238.01561	0.00188
1236.08723	0.00204
1234.15886	0.00215
1232.23049	0.00219
1230.30212	0.00217
1228.37374	0.00203
1226.44537	0.00192
1224.51700	0.00214
1222.58862	0.00253
1220.66025	0.00266
1218.73188	0.00264
1216.80350	0.00280
1214.87513	0.00303
1212.94676	0.00305
1211.01838	0.00294
1209.09001	0.00280
1207.16164	0.00270
1205.23326	0.00289
1203.30489	0.00308
1201.37652	0.00300
1199.44814	0.00316
1197.51977	0.00363
1195.59140	0.00399
1193.66302	0.00435
1191.73465	0.00488
1189.80628	0.00528
1187.87790	0.00519
1185.94953	0.00481
1184.02116	0.00455
1182.09278	0.00442
1180.16441	0.00410
1178.23604	0.00346
1176.30766	0.00271
1174.37929	0.00231
1172.45092	0.00245
1170.52255	0.00270
1168.59417	0.00270
1166.66580	0.00271
1164.73743	0.00276
1162.80905	0.00271
1160.88068	0.00249
1158.95231	0.00246
1157.02393	0.00262
1155.09556	0.00275
1153.16719	0.00294
1151.23881	0.00296
1149.31044	0.00274
1147.38207	0.00259
1145.45369	0.00288
1143.52532	0.00334
1141.59695	0.00345
1139.66857	0.00313
1137.74020	0.00285
1135.81183	0.00297
1133.88345	0.00310
1131.95508	0.00304
1130.02671	0.00291
1128.09833	0.00286
1126.16996	0.00292
1124.24159	0.00298
1122.31321	0.00310
1120.38484	0.00317
1118.45647	0.00309
1116.52809	0.00294
1114.59972	0.00282
1112.67135	0.00280
1110.74298	0.00284
1108.81460	0.00295
1106.88623	0.00317
1104.95786	0.00323
1103.02948	0.00302
1101.10111	0.00277
1099.17274	0.00273
1097.24436	0.00301
1095.31599	0.00343
1093.38762	0.00350
1091.45924	0.00315
1089.53087	0.00298
1087.60250	0.00302
1085.67412	0.00291
1083.74575	0.00280
1081.81738	0.00277
1079.88900	0.00294
1077.96063	0.00319
1076.03226	0.00317
1074.10388	0.00300
1072.17551	0.00290
1070.24714	0.00288
1068.31876	0.00283
1066.39039	0.00277
1064.46202	0.00283
1062.53364	0.00281
1060.60527	0.00266
1058.67690	0.00264
1056.74853	0.00290
1054.82015	0.00322
1052.89178	0.00330
1050.96341	0.00320
1049.03503	0.00310
1047.10666	0.00294
1045.17829	0.00275
1043.24991	0.00267
1041.32154	0.00268
1039.39317	0.00265
1037.46479	0.00272
1035.53642	0.00300
1033.60805	0.00318
1031.67967	0.00308
1029.75130	0.00294
1027.82293	0.00298
1025.89455	0.00310
1023.96618	0.00299
1022.03781	0.00275
1020.10943	0.00262
1018.18106	0.00258
1016.25269	0.00249
1014.32431	0.00244
1012.39594	0.00242
1010.46757	0.00245
1008.53919	0.00243
1006.61082	0.00238
1004.68245	0.00237
1002.75407	0.00230
1000.82570	0.00223
998.89733	0.00234
996.96896	0.00253
995.04058	0.00273
993.11221	0.00302
991.18384	0.00342
989.25546	0.00390
987.32709	0.00436
985.39872	0.00464
983.47034	0.00472
981.54197	0.00463
979.61360	0.00453
977.68522	0.00472
975.75685	0.00538
973.82848	0.00649
971.90010	0.00812
969.97173	0.01052
968.04336	0.01346
966.11498	0.01602
964.18661	0.01736
962.25824	0.01709
960.32986	0.01485
958.40149	0.01113
956.47312	0.00770
954.54474	0.00601
952.61637	0.00624
950.68800	0.00823
948.75962	0.01150
946.83125	0.01511
944.90288	0.01825
942.97451	0.02071
941.04613	0.02264
939.11776	0.02421
937.18939	0.02552
935.26101	0.02648
933.33264	0.02701
931.40427	0.02737
929.47589	0.02760
927.54752	0.02738
925.61915	0.02657
923.69077	0.02543
921.76240	0.02437
919.83403	0.02368
917.90565	0.02346
915.97728	0.02343
914.04891	0.02320
912.12053	0.02259
910.19216	0.02122
908.26379	0.01890
906.33541	0.01618
904.40704	0.01369
902.47867	0.01162
900.55029	0.00987
898.62192	0.00830
896.69355	0.00705
894.76517	0.00638
892.83680	0.00617
890.90843	0.00632
888.98005	0.00667
887.05168	0.00695
885.12331	0.00708
883.19494	0.00682
881.26656	0.00637
879.33819	0.00635
877.40982	0.00653
875.48144	0.00643
873.55307	0.00600
871.62470	0.00547
869.69632	0.00536
867.76795	0.00563
865.83958	0.00574
863.91120	0.00580
861.98283	0.00579
860.05446	0.00537
858.12608	0.00495
856.19771	0.00494
854.26934	0.00505
852.34096	0.00500
850.41259	0.00477
848.48422	0.00473
846.55584	0.00490
844.62747	0.00501
842.69910	0.00494
840.77072	0.00464
838.84235	0.00442
836.91398	0.00436
834.98560	0.00426
833.05723	0.00437
831.12886	0.00488
829.20049	0.00542
827.27211	0.00529
825.34374	0.00462
823.41537	0.00412
821.48699	0.00390
819.55862	0.00373
817.63025	0.00360
815.70187	0.00358
813.77350	0.00380
811.84513	0.00419
809.91675	0.00438
807.98838	0.00448
806.06001	0.00473
804.13163	0.00514
802.20326	0.00517
800.27489	0.00467
798.34651	0.00418
796.41814	0.00429
794.48977	0.00464
792.56139	0.00446
790.63302	0.00401
788.70465	0.00418
786.77627	0.00499
784.84790	0.00540
782.91953	0.00503
780.99115	0.00463
779.06278	0.00481
777.13441	0.00517
775.20603	0.00515
773.27766	0.00483
771.34929	0.00450
769.42092	0.00422
767.49254	0.00426
765.56417	0.00464
763.63580	0.00477
761.70742	0.00444
759.77905	0.00428
757.85068	0.00450
755.92230	0.00478
753.99393	0.00476
752.06556	0.00471
750.13718	0.00492
748.20881	0.00502
746.28044	0.00506
744.35206	0.00523
742.42369	0.00537
740.49532	0.00528
738.56694	0.00483
736.63857	0.00449
734.71020	0.00445
732.78182	0.00434
730.85345	0.00436
728.92508	0.00450
726.99670	0.00434
725.06833	0.00412
723.13996	0.00434
721.21158	0.00477
719.28321	0.00479
717.35484	0.00460
715.42647	0.00456
713.49809	0.00481
711.56972	0.00518
709.64135	0.00560
707.71297	0.00577
705.78460	0.00558
703.85623	0.00554
701.92785	0.00584
699.99948	0.00639
698.07111	0.00673
696.14273	0.00643
694.21436	0.00603
692.28599	0.00598
690.35761	0.00605
688.42924	0.00640
686.50087	0.00730
684.57249	0.00846
682.64412	0.00929
680.71575	0.00940
678.78737	0.00895
676.85900	0.00851
674.93063	0.00839
673.00225	0.00824
671.07388	0.00909
669.14551	0.01185
667.21713	0.01175
665.28876	0.00831
663.36039	0.00697
661.43201	0.00788
659.50364	0.00918
657.57527	0.00989
655.64690	0.01070
653.71852	0.01161
651.79015	0.01181
649.86178	0.01165
647.93340	0.01124
646.00503	0.01043
644.07666	0.00971
642.14828	0.00950
640.21991	0.00925
638.29154	0.00900
636.36316	0.00975
634.43479	0.01134
632.50642	0.01274
630.57804	0.01359
628.64967	0.01462
626.72130	0.01608
624.79292	0.01699
622.86455	0.01649
620.93618	0.01445
619.00780	0.01263
617.07943	0.01369
615.15106	0.01666
613.22268	0.01823
611.29431	0.01773
609.36594	0.01701
607.43756	0.01755
605.50919	0.01964
603.58082	0.02211
601.65244	0.02396
599.72407	0.02541
