3997.51769	0.65665
3995.58931	0.65650
3993.66094	0.65631
3991.73257	0.65625
3989.80419	0.65672
3987.87582	0.65766
3985.94745	0.65821
3984.01907	0.65818
3982.09070	0.65812
3980.16233	0.65816
3978.23396	0.65802
3976.30558	0.65751
3974.37721	0.65697
3972.44884	0.65698
3970.52046	0.65769
3968.59209	0.65888
3966.66372	0.66003
3964.73534	0.66054
3962.80697	0.66024
3960.87860	0.66019
3958.95022	0.66116
3957.02185	0.66242
3955.09348	0.66334
3953.16510	0.66313
3951.23673	0.66112
3949.30836	0.65904
3947.37998	0.65983
3945.45161	0.66163
3943.52324	0.66137
3941.59486	0.66237
3939.66649	0.66640
3937.73812	0.66947
3935.80974	0.66892
3933.88137	0.66488
3931.95300	0.66112
3930.02462	0.66237
3928.09625	0.66598
3926.16788	0.66634
3924.23950	0.66530
3922.31113	0.66669
3920.38276	0.66742
3918.45439	0.66586
3916.52601	0.66701
3914.59764	0.67307
3912.66927	0.67929
3910.74089	0.68217
3908.81252	0.68097
3906.88415	0.67388
3904.95577	0.66225
3903.02740	0.65425
3901.09903	0.65484
3899.17065	0.66224
3897.24228	0.67340
3895.31391	0.68065
3893.38553	0.67894
3891.45716	0.67547
3889.52879	0.67873
3887.60041	0.68064
3885.67204	0.67649
3883.74367	0.67408
3881.81529	0.67392
3879.88692	0.67661
3877.95855	0.68461
3876.03017	0.68698
3874.10180	0.68105
3872.17343	0.67492
3870.24505	0.67209
3868.31668	0.67533
3866.38831	0.67942
3864.45994	0.67893
3862.53156	0.68213
3860.60319	0.69062
3858.67482	0.69375
3856.74644	0.68718
3854.81807	0.67244
3852.88970	0.66216
3850.96132	0.67455
3849.03295	0.69255
3847.10458	0.70137
3845.17620	0.69908
3843.24783	0.69001
3841.31946	0.67980
3839.39108	0.67216
3837.46271	0.67211
3835.53434	0.67964
3833.60596	0.68720
3831.67759	0.69304
3829.74922	0.69772
3827.82084	0.69909
3825.89247	0.69792
3823.96410	0.69348
3822.03572	0.68208
3820.10735	0.67553
3818.17898	0.68153
3816.25060	0.68841
3814.32223	0.69761
3812.39386	0.70807
3810.46548	0.71067
3808.53711	0.70350
3806.60874	0.69459
3804.68037	0.69035
3802.75199	0.68427
3800.82362	0.68021
3798.89525	0.68562
3796.96687	0.69249
3795.03850	0.70030
3793.11013	0.70894
3791.18175	0.71320
3789.25338	0.71290
3787.32501	0.70950
3785.39663	0.70501
3783.46826	0.70329
3781.53989	0.70130
3779.61151	0.69716
3777.68314	0.69880
3775.75477	0.70517
3773.82639	0.70649
3771.89802	0.69972
3769.96965	0.69081
3768.04127	0.68765
3766.11290	0.68915
3764.18453	0.69220
3762.25615	0.69226
3760.32778	0.68516
3758.39941	0.67816
3756.47103	0.67741
3754.54266	0.67402
3752.61429	0.66098
3750.68591	0.64694
3748.75754	0.64705
3746.82917	0.65102
3744.90080	0.64982
3742.97242	0.65267
3741.04405	0.65928
3739.11568	0.65820
3737.18730	0.64571
3735.25893	0.63168
3733.33056	0.63353
3731.40218	0.64818
3729.47381	0.65900
3727.54544	0.65876
3725.61706	0.65225
3723.68869	0.64780
3721.76032	0.64747
3719.83194	0.64949
3717.90357	0.65146
3715.97520	0.64951
3714.04682	0.63946
3712.11845	0.62300
3710.19008	0.61504
3708.26170	0.62194
3706.33333	0.62951
3704.40496	0.62782
3702.47658	0.61877
3700.54821	0.61221
3698.61984	0.61070
3696.69146	0.60704
3694.76309	0.59791
3692.83472	0.58244
3690.90635	0.56156
3688.97797	0.54533
3687.04960	0.54219
3685.12123	0.54229
3683.19285	0.53596
3681.26448	0.52142
3679.33611	0.50133
3677.40773	0.47717
3675.47936	0.45144
3673.55099	0.43626
3671.62261	0.42607
3669.69424	0.41032
3667.76587	0.39823
3665.83749	0.39076
3663.90912	0.37879
3661.98075	0.36192
3660.05237	0.34324
3658.12400	0.32316
3656.19563	0.30181
3654.26725	0.28331
3652.33888	0.26578
3650.41051	0.24275
3648.48213	0.22026
3646.55376	0.20896
3644.62539	0.20248
3642.69701	0.19358
3640.76864	0.18184
3638.84027	0.16935
3636.91189	0.15714
3634.98352	0.14515
3633.05515	0.13375
3631.12678	0.12285
3629.19840	0.11061
3627.27003	0.10007
3625.34166	0.09424
3623.41328	0.08887
3621.48491	0.08180
3619.55654	0.07343
3617.62816	0.06600
3615.69979	0.06051
3613.77142	0.05540
3611.84304	0.05047
3609.91467	0.04599
3607.98630	0.04179
3606.05792	0.03829
3604.12955	0.03545
3602.20118	0.03249
3600.27280	0.02938
3598.34443	0.02639
3596.41606	0.02353
3594.48768	0.02104
3592.55931	0.01906
3590.63094	0.01728
3588.70256	0.01521
3586.77419	0.01336
3584.84582	0.01233
3582.91744	0.01145
3580.98907	0.01024
3579.06070	0.00895
3577.13233	0.00795
3575.20395	0.00717
3573.27558	0.00638
3571.34721	0.00539
3569.41883	0.00426
3567.49046	0.00339
3565.56209	0.00288
3563.63371	0.00266
3561.70534	0.00237
3559.77697	0.00190
3557.84859	0.00152
3555.92022	0.00130
3553.99185	0.00109
3552.06347	0.00089
3550.13510	0.00081
3548.20673	0.00072
3546.27835	0.00046
3544.34998	0.00032
3542.42161	0.00035
3540.49323	0.00045
3538.56486	0.00061
3536.63649	0.00065
3534.70811	0.00062
3532.77974	0.00080
3530.85137	0.00097
3528.92299	0.00083
3526.99462	0.00071
3525.06625	0.00096
3523.13787	0.00124
3521.20950	0.00132
3519.28113	0.00122
3517.35276	0.00094
3515.42438	0.00062
3513.49601	0.00075
3511.56764	0.00105
3509.63926	0.00117
3507.71089	0.00140
3505.78252	0.00143
3503.85414	0.00137
3501.92577	0.00119
3499.99740	0.00088
3498.06902	0.00082
3496.14065	0.00115
3494.21228	0.00143
3492.28390	0.00133
3490.35553	0.00106
3488.42716	0.00098
3486.49878	0.00095
3484.57041	0.00080
3482.64204	0.00081
3480.71366	0.00092
3478.78529	0.00092
3476.85692	0.00097
3474.92854	0.00113
3473.00017	0.00119
3471.07180	0.00120
3469.14342	0.00123
3467.21505	0.00120
3465.28668	0.00112
3463.35831	0.00104
3461.42993	0.00108
3459.50156	0.00100
3457.57319	0.00071
3455.64481	0.00061
3453.71644	0.00084
3451.78807	0.00098
3449.85969	0.00098
3447.93132	0.00099
3446.00295	0.00101
3444.07457	0.00101
3442.14620	0.00110
3440.21783	0.00115
3438.28945	0.00116
3436.36108	0.00112
3434.43271	0.00100
3432.50433	0.00094
3430.57596	0.00096
3428.64759	0.00103
3426.71921	0.00104
3424.79084	0.00092
3422.86247	0.00087
3420.93409	0.00102
3419.00572	0.00103
3417.07735	0.00091
3415.14897	0.00088
3413.22060	0.00088
3411.29223	0.00079
3409.36385	0.00079
3407.43548	0.00081
3405.50711	0.00073
3403.57874	0.00067
3401.65036	0.00075
3399.72199	0.00092
3397.79362	0.00089
3395.86524	0.00071
3393.93687	0.00064
3392.00850	0.00075
3390.08012	0.00089
3388.15175	0.00101
3386.22338	0.00109
3384.29500	0.00111
3382.36663	0.00092
3380.43826	0.00069
3378.50988	0.00078
3376.58151	0.00099
3374.65314	0.00099
3372.72476	0.00082
3370.79639	0.00058
3368.86802	0.00047
3366.93964	0.00049
3365.01127	0.00069
3363.08290	0.00091
3361.15452	0.00109
3359.22615	0.00120
3357.29778	0.00112
3355.36940	0.00094
3353.44103	0.00073
3351.51266	0.00054
3349.58428	0.00053
3347.65591	0.00055
3345.72754	0.00056
3343.79917	0.00050
3341.87079	0.00058
3339.94242	0.00076
3338.01405	0.00079
3336.08567	0.00071
3334.15730	0.00074
3332.22893	0.00095
3330.30055	0.00129
3328.37218	0.00143
3326.44381	0.00136
3324.51543	0.00116
3322.58706	0.00094
3320.65869	0.00085
3318.73031	0.00087
3316.80194	0.00087
3314.87357	0.00088
3312.94519	0.00087
3311.01682	0.00082
3309.08845	0.00079
3307.16007	0.00070
3305.23170	0.00048
3303.30333	0.00048
3301.37495	0.00070
3299.44658	0.00096
3297.51821	0.00110
3295.58983	0.00103
3293.66146	0.00095
3291.73309	0.00104
3289.80472	0.00110
3287.87634	0.00104
3285.94797	0.00100
3284.01960	0.00100
3282.09122	0.00100
3280.16285	0.00094
3278.23448	0.00090
3276.30610	0.00096
3274.37773	0.00098
3272.44936	0.00094
3270.52098	0.00083
3268.59261	0.00078
3266.66424	0.00087
3264.73586	0.00095
3262.80749	0.00093
3260.87912	0.00093
3258.95074	0.00105
3257.02237	0.00124
3255.09400	0.00129
3253.16562	0.00101
3251.23725	0.00073
3249.30888	0.00069
3247.38050	0.00077
3245.45213	0.00091
3243.52376	0.00106
3241.59538	0.00106
3239.66701	0.00104
3237.73864	0.00107
3235.81026	0.00119
3233.88189	0.00134
3231.95352	0.00132
3230.02515	0.00106
3228.09677	0.00082
3226.16840	0.00092
3224.24003	0.00112
3222.31165	0.00114
3220.38328	0.00104
3218.45491	0.00101
3216.52653	0.00094
3214.59816	0.00097
3212.66979	0.00096
3210.74141	0.00088
3208.81304	0.00094
3206.88467	0.00094
3204.95629	0.00084
3203.02792	0.00074
3201.09955	0.00071
3199.17117	0.00069
3197.24280	0.00066
3195.31443	0.00068
3193.38605	0.00079
3191.45768	0.00073
3189.52931	0.00068
3187.60093	0.00087
3185.67256	0.00111
3183.74419	0.00123
3181.81581	0.00123
3179.88744	0.00117
3177.95907	0.00108
3176.03070	0.00098
3174.10232	0.00090
3172.17395	0.00073
3170.24558	0.00054
3168.31720	0.00057
3166.38883	0.00075
3164.46046	0.00086
3162.53208	0.00093
3160.60371	0.00094
3158.67534	0.00086
3156.74696	0.00074
3154.81859	0.00076
3152.89022	0.00094
3150.96184	0.00113
3149.03347	0.00125
3147.10510	0.00120
3145.17672	0.00107
3143.24835	0.00101
3141.31998	0.00096
3139.39160	0.00095
3137.46323	0.00100
3135.53486	0.00098
3133.60648	0.00083
3131.67811	0.00065
3129.74974	0.00063
3127.82136	0.00076
3125.89299	0.00090
3123.96462	0.00086
3122.03624	0.00079
3120.10787	0.00085
3118.17950	0.00090
3116.25113	0.00075
3114.32275	0.00065
3112.39438	0.00071
3110.46601	0.00093
3108.53763	0.00108
3106.60926	0.00094
3104.68089	0.00072
3102.75251	0.00083
3100.82414	0.00112
3098.89577	0.00117
3096.96739	0.00095
3095.03902	0.00081
3093.11065	0.00084
3091.18227	0.00100
3089.25390	0.00118
3087.32553	0.00126
3085.39715	0.00115
3083.46878	0.00096
3081.54041	0.00082
3079.61203	0.00084
3077.68366	0.00098
3075.75529	0.00101
3073.82691	0.00093
3071.89854	0.00091
3069.97017	0.00105
3068.04179	0.00114
3066.11342	0.00105
3064.18505	0.00096
3062.25668	0.00098
3060.32830	0.00083
3058.39993	0.00071
3056.47156	0.00083
3054.54318	0.00122
3052.61481	0.00125
3050.68644	0.00086
3048.75806	0.00051
3046.82969	0.00053
3044.90132	0.00082
3042.97294	0.00105
3041.04457	0.00107
3039.11620	0.00102
3037.18782	0.00093
3035.25945	0.00084
3033.33108	0.00074
3031.40270	0.00077
3029.47433	0.00090
3027.54596	0.00094
3025.61758	0.00086
3023.68921	0.00079
3021.76084	0.00090
3019.83246	0.00088
3017.90409	0.00089
3015.97572	0.00105
3014.04734	0.00133
3012.11897	0.00145
3010.19060	0.00129
3008.26222	0.00109
3006.33385	0.00108
3004.40548	0.00125
3002.47711	0.00129
3000.54873	0.00121
2998.62036	0.00126
2996.69199	0.00128
2994.76361	0.00106
2992.83524	0.00092
2990.90687	0.00091
2988.97849	0.00098
2987.05012	0.00112
2985.12175	0.00138
2983.19337	0.00160
2981.26500	0.00152
2979.33663	0.00134
2977.40825	0.00138
2975.47988	0.00138
2973.55151	0.00106
2971.62313	0.00088
2969.69476	0.00110
2967.76639	0.00137
2965.83801	0.00158
2963.90964	0.00168
2961.98127	0.00168
2960.05289	0.00157
2958.12452	0.00150
2956.19615	0.00145
2954.26777	0.00143
2952.33940	0.00156
2950.41103	0.00180
2948.48266	0.00195
2946.55428	0.00183
2944.62591	0.00145
2942.69754	0.00121
2940.76916	0.00132
2938.84079	0.00145
2936.91242	0.00145
2934.98404	0.00144
2933.05567	0.00159
2931.12730	0.00182
2929.19892	0.00180
2927.27055	0.00168
2925.34218	0.00156
2923.41380	0.00140
2921.48543	0.00127
2919.55706	0.00120
2917.62868	0.00118
2915.70031	0.00125
2913.77194	0.00127
2911.84356	0.00123
2909.91519	0.00122
2907.98682	0.00125
2906.05844	0.00125
2904.13007	0.00127
2902.20170	0.00129
2900.27332	0.00119
2898.34495	0.00107
2896.41658	0.00109
2894.48820	0.00129
2892.55983	0.00150
2890.63146	0.00151
2888.70309	0.00132
2886.77471	0.00114
2884.84634	0.00103
2882.91797	0.00093
2880.98959	0.00081
2879.06122	0.00080
2877.13285	0.00094
2875.20447	0.00118
2873.27610	0.00135
2871.34773	0.00132
2869.41935	0.00120
2867.49098	0.00114
2865.56261	0.00118
2863.63423	0.00117
2861.70586	0.00109
2859.77749	0.00111
2857.84911	0.00123
2855.92074	0.00132
2853.99237	0.00126
2852.06399	0.00107
2850.13562	0.00095
2848.20725	0.00090
2846.27887	0.00076
2844.35050	0.00077
2842.42213	0.00092
2840.49375	0.00099
2838.56538	0.00094
2836.63701	0.00078
2834.70863	0.00071
2832.78026	0.00078
2830.85189	0.00074
2828.92352	0.00065
2826.99514	0.00071
2825.06677	0.00079
2823.13840	0.00077
2821.21002	0.00072
2819.28165	0.00076
2817.35328	0.00080
2815.42490	0.00086
2813.49653	0.00087
2811.56816	0.00078
2809.63978	0.00074
2807.71141	0.00072
2805.78304	0.00084
2803.85466	0.00111
2801.92629	0.00125
2799.99792	0.00111
2798.06954	0.00098
2796.14117	0.00093
2794.21280	0.00091
2792.28442	0.00097
2790.35605	0.00096
2788.42768	0.00086
2786.49930	0.00082
2784.57093	0.00077
2782.64256	0.00064
2780.71418	0.00047
2778.78581	0.00036
2776.85744	0.00048
2774.92907	0.00080
2773.00069	0.00098
2771.07232	0.00092
2769.14395	0.00081
2767.21557	0.00073
2765.28720	0.00066
2763.35883	0.00057
2761.43045	0.00048
2759.50208	0.00038
2757.57371	0.00028
2755.64533	0.00035
2753.71696	0.00052
2751.78859	0.00057
2749.86021	0.00035
2747.93184	0.00018
2746.00347	0.00015
2744.07509	0.00028
2742.14672	0.00035
2740.21835	0.00027
2738.28997	0.00016
2736.36160	0.00022
2734.43323	0.00026
2732.50485	0.00017
2730.57648	0.00010
2728.64811	0.00018
2726.71973	0.00030
2724.79136	0.00038
2722.86299	0.00041
2720.93461	0.00051
2719.00624	0.00062
2717.07787	0.00062
2715.14950	0.00063
2713.22112	0.00074
2711.29275	0.00093
2709.36438	0.00089
2707.43600	0.00068
2705.50763	0.00064
2703.57926	0.00077
2701.65088	0.00084
2699.72251	0.00085
2697.79414	0.00096
2695.86576	0.00114
2693.93739	0.00115
2692.00902	0.00101
2690.08064	0.00088
2688.15227	0.00093
2686.22390	0.00113
2684.29552	0.00131
2682.36715	0.00134
2680.43878	0.00128
2678.51040	0.00123
2676.58203	0.00125
2674.65366	0.00141
2672.72528	0.00161
2670.79691	0.00172
2668.86854	0.00173
2666.94016	0.00175
2665.01179	0.00184
2663.08342	0.00203
2661.15505	0.00217
2659.22667	0.00213
2657.29830	0.00210
2655.36993	0.00231
2653.44155	0.00270
2651.51318	0.00300
2649.58481	0.00317
2647.65643	0.00332
2645.72806	0.00347
2643.79969	0.00357
2641.87131	0.00368
2639.94294	0.00391
2638.01457	0.00419
2636.08619	0.00443
2634.15782	0.00462
2632.22945	0.00484
2630.30107	0.00502
2628.37270	0.00520
2626.44433	0.00556
2624.51595	0.00606
2622.58758	0.00651
2620.65921	0.00683
2618.73083	0.00706
2616.80246	0.00731
2614.87409	0.00766
2612.94571	0.00798
2611.01734	0.00826
2609.08897	0.00858
2607.16059	0.00897
2605.23222	0.00942
2603.30385	0.00988
2601.37548	0.01030
2599.44710	0.01070
2597.51873	0.01119
2595.59036	0.01173
2593.66198	0.01222
2591.73361	0.01265
2589.80524	0.01309
2587.87686	0.01354
2585.94849	0.01396
2584.02012	0.01445
2582.09174	0.01504
2580.16337	0.01561
2578.23500	0.01608
2576.30662	0.01655
2574.37825	0.01697
2572.44988	0.01734
2570.52150	0.01778
2568.59313	0.01837
2566.66476	0.01899
2564.73638	0.01955
2562.80801	0.02013
2560.87964	0.02082
2558.95126	0.02155
2557.02289	0.02223
2555.09452	0.02284
2553.16614	0.02340
2551.23777	0.02387
2549.30940	0.02440
2547.38103	0.02503
2545.45265	0.02564
2543.52428	0.02621
2541.59591	0.02678
2539.66753	0.02732
2537.73916	0.02791
2535.81079	0.02857
2533.88241	0.02917
2531.95404	0.02974
2530.02567	0.03035
2528.09729	0.03098
2526.16892	0.03169
2524.24055	0.03244
2522.31217	0.03317
2520.38380	0.03386
2518.45543	0.03457
2516.52705	0.03528
2514.59868	0.03597
2512.67031	0.03668
2510.74193	0.03746
2508.81356	0.03821
2506.88519	0.03887
2504.95681	0.03950
2503.02844	0.04009
2501.10007	0.04065
2499.17169	0.04131
2497.24332	0.04210
2495.31495	0.04279
2493.38657	0.04333
2491.45820	0.04388
2489.52983	0.04452
2487.60146	0.04526
2485.67308	0.04603
2483.74471	0.04672
2481.81634	0.04741
2479.88796	0.04819
2477.95959	0.04899
2476.03122	0.04971
2474.10284	0.05042
2472.17447	0.05124
2470.24610	0.05218
2468.31772	0.05322
2466.38935	0.05437
2464.46098	0.05554
2462.53260	0.05666
2460.60423	0.05777
2458.67586	0.05896
2456.74748	0.06025
2454.81911	0.06156
2452.89074	0.06285
2450.96236	0.06413
2449.03399	0.06536
2447.10562	0.06657
2445.17724	0.06777
2443.24887	0.06899
2441.32050	0.07034
2439.39212	0.07176
2437.46375	0.07304
2435.53538	0.07417
2433.60700	0.07528
2431.67863	0.07643
2429.75026	0.07769
2427.82189	0.07897
2425.89351	0.08016
2423.96514	0.08132
2422.03677	0.08251
2420.10839	0.08371
2418.18002	0.08495
2416.25165	0.08623
2414.32327	0.08753
2412.39490	0.08889
2410.46653	0.09031
2408.53815	0.09175
2406.60978	0.09317
2404.68141	0.09462
2402.75303	0.09615
2400.82466	0.09772
2398.89629	0.09929
2396.96791	0.10091
2395.03954	0.10260
2393.11117	0.10432
2391.18279	0.10597
2389.25442	0.10757
2387.32605	0.10911
2385.39767	0.11054
2383.46930	0.11183
2381.54093	0.11300
2379.61255	0.11405
2377.68418	0.11497
2375.75581	0.11572
2373.82744	0.11641
2371.89906	0.11727
2369.97069	0.11831
2368.04232	0.11919
2366.11394	0.11983
2364.18557	0.12052
2362.25720	0.12157
2360.32882	0.12307
2358.40045	0.12477
2356.47208	0.12664
2354.54370	0.12886
2352.61533	0.13127
2350.68696	0.13341
2348.75858	0.13476
2346.83021	0.13511
2344.90184	0.13493
2342.97346	0.13533
2341.04509	0.13646
2339.11672	0.13778
2337.18834	0.13907
2335.25997	0.14016
2333.33160	0.14118
2331.40322	0.14232
2329.47485	0.14345
2327.54648	0.14429
2325.61810	0.14510
2323.68973	0.14644
2321.76136	0.14835
2319.83298	0.15039
2317.90461	0.15238
2315.97624	0.15437
2314.04787	0.15633
2312.11949	0.15834
2310.19112	0.16053
2308.26275	0.16283
2306.33437	0.16514
2304.40600	0.16735
2302.47763	0.16946
2300.54925	0.17154
2298.62088	0.17354
2296.69251	0.17542
2294.76413	0.17730
2292.83576	0.17924
2290.90739	0.18109
2288.97901	0.18282
2287.05064	0.18453
2285.12227	0.18618
2283.19389	0.18767
2281.26552	0.18904
2279.33715	0.19039
2277.40877	0.19171
2275.48040	0.19299
2273.55203	0.19423
2271.62365	0.19544
2269.69528	0.19673
2267.76691	0.19816
2265.83853	0.19957
2263.91016	0.20080
2261.98179	0.20200
2260.05342	0.20323
2258.12504	0.20447
2256.19667	0.20576
2254.26830	0.20711
2252.33992	0.20849
2250.41155	0.20986
2248.48318	0.21117
2246.55480	0.21245
2244.62643	0.21371
2242.69806	0.21493
2240.76968	0.21611
2238.84131	0.21725
2236.91294	0.21838
2234.98456	0.21946
2233.05619	0.22043
2231.12782	0.22134
2229.19944	0.22224
2227.27107	0.22318
2225.34270	0.22414
2223.41432	0.22511
2221.48595	0.22610
2219.55758	0.22715
2217.62920	0.22826
2215.70083	0.22942
2213.77246	0.23052
2211.84408	0.23153
2209.91571	0.23258
2207.98734	0.23373
2206.05896	0.23491
2204.13059	0.23611
2202.20222	0.23738
2200.27385	0.23863
2198.34547	0.23983
2196.41710	0.24098
2194.48873	0.24201
2192.56035	0.24301
2190.63198	0.24407
2188.70361	0.24514
2186.77523	0.24621
2184.84686	0.24725
2182.91849	0.24811
2180.99011	0.24883
2179.06174	0.24960
2177.13337	0.25040
2175.20499	0.25101
2173.27662	0.25140
2171.34825	0.25179
2169.41987	0.25229
2167.49150	0.25282
2165.56313	0.25336
2163.63475	0.25395
2161.70638	0.25451
2159.77801	0.25501
2157.84963	0.25559
2155.92126	0.25639
2153.99289	0.25729
2152.06451	0.25815
2150.13614	0.25902
2148.20777	0.25993
2146.27940	0.26087
2144.35102	0.26183
2142.42265	0.26285
2140.49428	0.26394
2138.56590	0.26504
2136.63753	0.26618
2134.70916	0.26742
2132.78078	0.26877
2130.85241	0.27028
2128.92404	0.27202
2126.99566	0.27385
2125.06729	0.27565
2123.13892	0.27743
2121.21054	0.27919
2119.28217	0.28095
2117.35380	0.28269
2115.42542	0.28436
2113.49705	0.28607
2111.56868	0.28790
2109.64030	0.28963
2107.71193	0.29121
2105.78356	0.29277
2103.85518	0.29427
2101.92681	0.29561
2099.99844	0.29691
2098.07006	0.29823
2096.14169	0.29950
2094.21332	0.30062
2092.28494	0.30155
2090.35657	0.30234
2088.42820	0.30311
2086.49983	0.30389
2084.57145	0.30456
2082.64308	0.30492
2080.71471	0.30502
2078.78633	0.30508
2076.85796	0.30512
2074.92959	0.30507
2073.00121	0.30491
2071.07284	0.30469
2069.14447	0.30443
2067.21609	0.30398
2065.28772	0.30351
2063.35935	0.30352
2061.43097	0.30398
2059.50260	0.30457
2057.57423	0.30519
2055.64585	0.30587
2053.71748	0.30667
2051.78911	0.30770
2049.86073	0.30884
2047.93236	0.30997
2046.00399	0.31109
2044.07561	0.31209
2042.14724	0.31303
2040.21887	0.31425
2038.29049	0.31567
2036.36212	0.31683
2034.43375	0.31764
2032.50538	0.31832
2030.57700	0.31899
2028.64863	0.31960
2026.72026	0.32000
2024.79188	0.32019
2022.86351	0.32027
2020.93514	0.32018
2019.00676	0.31978
2017.07839	0.31961
2015.15002	0.32026
2013.22164	0.32116
2011.29327	0.32167
2009.36490	0.32195
2007.43652	0.32230
2005.50815	0.32287
2003.57978	0.32356
2001.65140	0.32415
1999.72303	0.32463
1997.79466	0.32523
1995.86628	0.32568
1993.93791	0.32535
1992.00954	0.32495
1990.08116	0.32578
1988.15279	0.32741
1986.22442	0.32893
1984.29604	0.33008
1982.36767	0.33081
1980.43930	0.33130
1978.51092	0.33175
1976.58255	0.33226
1974.65418	0.33278
1972.72581	0.33317
1970.79743	0.33317
1968.86906	0.33255
1966.94069	0.33228
1965.01231	0.33332
1963.08394	0.33463
1961.15557	0.33530
1959.22719	0.33560
1957.29882	0.33571
1955.37045	0.33574
1953.44207	0.33596
1951.51370	0.33618
1949.58533	0.33603
1947.65695	0.33535
1945.72858	0.33380
1943.80021	0.33155
1941.87183	0.33076
1939.94346	0.33224
1938.01509	0.33349
1936.08671	0.33328
1934.15834	0.33246
1932.22997	0.33170
1930.30159	0.33121
1928.37322	0.33076
1926.44485	0.32964
1924.51647	0.32754
1922.58810	0.32590
1920.65973	0.32534
1918.73135	0.32468
1916.80298	0.32505
1914.87461	0.32681
1912.94624	0.32740
1911.01786	0.32624
1909.08949	0.32516
1907.16112	0.32530
1905.23274	0.32578
1903.30437	0.32567
1901.37600	0.32509
1899.44762	0.32404
1897.51925	0.32216
1895.59088	0.31999
1893.66250	0.31837
1891.73413	0.31620
1889.80576	0.31346
1887.87738	0.31237
1885.94901	0.31219
1884.02064	0.31106
1882.09226	0.30930
1880.16389	0.30733
1878.23552	0.30513
1876.30714	0.30281
1874.37877	0.30015
1872.45040	0.29600
1870.52202	0.28948
1868.59365	0.28369
1866.66528	0.28299
1864.73690	0.28465
1862.80853	0.28451
1860.88016	0.28266
1858.95179	0.28052
1857.02341	0.27861
1855.09504	0.27679
1853.16667	0.27495
1851.23829	0.27272
1849.30992	0.26955
1847.38155	0.26529
1845.45317	0.26063
1843.52480	0.25867
1841.59643	0.26041
1839.66805	0.26147
1837.73968	0.26021
1835.81131	0.25850
1833.88293	0.25646
1831.95456	0.25222
1830.02619	0.24719
1828.09781	0.24490
1826.16944	0.24388
1824.24107	0.24251
1822.31269	0.24160
1820.38432	0.23977
1818.45595	0.23615
1816.52757	0.23188
1814.59920	0.22707
1812.67083	0.22097
1810.74245	0.21449
1808.81408	0.20934
1806.88571	0.20473
1804.95733	0.19883
1803.02896	0.19105
1801.10059	0.18252
1799.17222	0.17525
1797.24384	0.16899
1795.31547	0.16174
1793.38710	0.15261
1791.45872	0.14412
1789.53035	0.13892
1787.60198	0.13433
1785.67360	0.12809
1783.74523	0.12122
1781.81686	0.11467
1779.88848	0.10851
1777.96011	0.10290
1776.03174	0.09707
1774.10336	0.08987
1772.17499	0.08181
1770.24662	0.07538
1768.31824	0.07034
1766.38987	0.06484
1764.46150	0.05855
1762.53312	0.05088
1760.60475	0.04272
1758.67638	0.03560
1756.74800	0.02857
1754.81963	0.02188
1752.89126	0.01606
1750.96288	0.01056
1749.03451	0.00601
1747.10614	0.00316
1745.17777	0.00144
1743.24939	0.00039
1741.32102	0.00064
1739.39265	0.00110
1737.46427	0.00116
1735.53590	0.00121
1733.60753	0.00135
1731.67915	0.00135
1729.75078	0.00130
1727.82241	0.00121
1725.89403	0.00112
1723.96566	0.00100
1722.03729	0.00097
1720.10891	0.00119
1718.18054	0.00147
1716.25217	0.00142
1714.32379	0.00116
1712.39542	0.00107
1710.46705	0.00110
1708.53867	0.00123
1706.61030	0.00135
1704.68193	0.00141
1702.75355	0.00160
1700.82518	0.00194
1698.89681	0.00207
1696.96843	0.00185
1695.04006	0.00150
1693.11169	0.00117
1691.18331	0.00102
1689.25494	0.00102
1687.32657	0.00111
1685.39820	0.00133
1683.46982	0.00142
1681.54145	0.00123
1679.61308	0.00105
1677.68470	0.00106
1675.75633	0.00118
1673.82796	0.00119
1671.89958	0.00118
1669.97121	0.00125
1668.04284	0.00117
1666.11446	0.00093
1664.18609	0.00072
1662.25772	0.00063
1660.32934	0.00068
1658.40097	0.00076
1656.47260	0.00084
1654.54422	0.00110
1652.61585	0.00144
1650.68748	0.00151
1648.75910	0.00156
1646.83073	0.00163
1644.90236	0.00153
1642.97398	0.00135
1641.04561	0.00120
1639.11724	0.00116
1637.18886	0.00119
1635.26049	0.00110
1633.33212	0.00087
1631.40375	0.00078
1629.47537	0.00079
1627.54700	0.00079
1625.61863	0.00067
1623.69025	0.00064
1621.76188	0.00076
1619.83351	0.00087
1617.90513	0.00098
1615.97676	0.00101
1614.04839	0.00086
1612.12001	0.00069
1610.19164	0.00066
1608.26327	0.00077
1606.33489	0.00082
1604.40652	0.00071
1602.47815	0.00058
1600.54977	0.00062
1598.62140	0.00078
1596.69303	0.00088
1594.76465	0.00089
1592.83628	0.00087
1590.90791	0.00084
1588.97953	0.00081
1587.05116	0.00075
1585.12279	0.00074
1583.19441	0.00079
1581.26604	0.00080
1579.33767	0.00080
1577.40929	0.00091
1575.48092	0.00095
1573.55255	0.00086
1571.62418	0.00082
1569.69580	0.00084
1567.76743	0.00090
1565.83906	0.00093
1563.91068	0.00097
1561.98231	0.00109
1560.05394	0.00133
1558.12556	0.00138
1556.19719	0.00114
1554.26882	0.00090
1552.34044	0.00068
1550.41207	0.00062
1548.48370	0.00075
1546.55532	0.00091
1544.62695	0.00110
1542.69858	0.00136
1540.77020	0.00152
1538.84183	0.00135
1536.91346	0.00106
1534.98508	0.00094
1533.05671	0.00096
1531.12834	0.00090
1529.19996	0.00082
1527.27159	0.00081
1525.34322	0.00090
1523.41484	0.00106
1521.48647	0.00114
1519.55810	0.00101
1517.62972	0.00095
1515.70135	0.00103
1513.77298	0.00107
1511.84461	0.00107
1509.91623	0.00114
1507.98786	0.00133
1506.05949	0.00132
1504.13111	0.00100
1502.20274	0.00080
1500.27437	0.00087
1498.34599	0.00111
1496.41762	0.00120
1494.48925	0.00104
1492.56087	0.00099
1490.63250	0.00108
1488.70413	0.00101
1486.77575	0.00075
1484.84738	0.00067
1482.91901	0.00078
1480.99063	0.00083
1479.06226	0.00076
1477.13389	0.00086
1475.20551	0.00109
1473.27714	0.00130
1471.34877	0.00129
1469.42039	0.00113
1467.49202	0.00107
1465.56365	0.00107
1463.63527	0.00108
1461.70690	0.00115
1459.77853	0.00133
1457.85016	0.00149
1455.92178	0.00132
1453.99341	0.00105
1452.06504	0.00094
1450.13666	0.00094
1448.20829	0.00110
1446.27992	0.00133
1444.35154	0.00140
1442.42317	0.00141
1440.49480	0.00142
1438.56642	0.00135
1436.63805	0.00123
1434.70968	0.00112
1432.78130	0.00109
1430.85293	0.00113
1428.92456	0.00118
1426.99618	0.00120
1425.06781	0.00115
1423.13944	0.00117
1421.21106	0.00129
1419.28269	0.00137
1417.35432	0.00124
1415.42594	0.00106
1413.49757	0.00102
1411.56920	0.00110
1409.64082	0.00109
1407.71245	0.00105
1405.78408	0.00109
1403.85570	0.00106
1401.92733	0.00106
1399.99896	0.00125
1398.07059	0.00129
1396.14221	0.00115
1394.21384	0.00107
1392.28547	0.00109
1390.35709	0.00110
1388.42872	0.00111
1386.50035	0.00109
1384.57197	0.00100
1382.64360	0.00091
1380.71523	0.00099
1378.78685	0.00113
1376.85848	0.00125
1374.93011	0.00144
1373.00173	0.00156
1371.07336	0.00145
1369.14499	0.00127
1367.21661	0.00120
1365.28824	0.00125
1363.35987	0.00140
1361.43149	0.00151
1359.50312	0.00142
1357.57475	0.00121
1355.64637	0.00106
1353.71800	0.00096
1351.78963	0.00097
1349.86125	0.00100
1347.93288	0.00116
1346.00451	0.00134
1344.07614	0.00133
1342.14776	0.00125
1340.21939	0.00120
1338.29102	0.00115
1336.36264	0.00112
1334.43427	0.00112
1332.50590	0.00111
1330.57752	0.00115
1328.64915	0.00129
1326.72078	0.00148
1324.79240	0.00162
1322.86403	0.00155
1320.93566	0.00138
1319.00728	0.00126
1317.07891	0.00118
1315.15054	0.00107
1313.22216	0.00095
1311.29379	0.00091
1309.36542	0.00101
1307.43704	0.00109
1305.50867	0.00114
1303.58030	0.00114
1301.65192	0.00117
1299.72355	0.00128
1297.79518	0.00132
1295.86680	0.00129
1293.93843	0.00129
1292.01006	0.00130
1290.08168	0.00129
1288.15331	0.00128
1286.22494	0.00134
1284.29657	0.00136
1282.36819	0.00130
1280.43982	0.00131
1278.51145	0.00152
1276.58307	0.00174
1274.65470	0.00173
1272.72633	0.00158
1270.79795	0.00154
1268.86958	0.00170
1266.94121	0.00186
1265.01283	0.00191
1263.08446	0.00193
1261.15609	0.00192
1259.22771	0.00187
1257.29934	0.00181
1255.37097	0.00172
1253.44259	0.00171
1251.51422	0.00173
1249.58585	0.00165
1247.65747	0.00158
1245.72910	0.00165
1243.80073	0.00180
1241.87235	0.00184
1239.94398	0.00176
1238.01561	0.00177
1236.08723	0.00194
1234.15886	0.00207
1232.23049	0.00214
1230.30212	0.00222
1228.37374	0.00221
1226.44537	0.00219
1224.51700	0.00232
1222.58862	0.00252
1220.66025	0.00277
1218.73188	0.00301
1216.80350	0.00306
1214.87513	0.00286
1212.94676	0.00262
1211.01838	0.00250
1209.09001	0.00245
1207.16164	0.00243
1205.23326	0.00250
1203.30489	0.00259
1201.37652	0.00257
1199.44814	0.00274
1197.51977	0.00326
1195.59140	0.00395
1193.66302	0.00447
1191.73465	0.00479
1189.80628	0.00507
1187.87790	0.00525
1185.94953	0.00528
1184.02116	0.00525
1182.09278	0.00499
1180.16441	0.00435
1178.23604	0.00354
1176.30766	0.00303
1174.37929	0.00296
1172.45092	0.00293
1170.52255	0.00258
1168.59417	0.00213
1166.66580	0.00188
1164.73743	0.00211
1162.80905	0.00265
1160.88068	0.00307
1158.95231	0.00311
1157.02393	0.00282
1155.09556	0.00239
1153.16719	0.00226
1151.23881	0.00257
1149.31044	0.00284
1147.38207	0.00289
1145.45369	0.00307
1143.52532	0.00318
1141.59695	0.00289
1139.66857	0.00257
1137.74020	0.00263
1135.81183	0.00286
1133.88345	0.00298
1131.95508	0.00307
1130.02671	0.00322
1128.09833	0.00322
1126.16996	0.00318
1124.24159	0.00320
1122.31321	0.00307
1120.38484	0.00274
1118.45647	0.00244
1116.52809	0.00224
1114.59972	0.00221
1112.67135	0.00238
1110.74298	0.00259
1108.81460	0.00276
1106.88623	0.00281
1104.95786	0.00273
1103.02948	0.00277
1101.10111	0.00281
1099.17274	0.00263
1097.24436	0.00233
1095.31599	0.00222
1093.38762	0.00248
1091.45924	0.00287
1089.53087	0.00287
1087.60250	0.00274
1085.67412	0.00283
1083.74575	0.00271
1081.81738	0.00243
1079.88900	0.00261
1077.96063	0.00323
1076.03226	0.00352
1074.10388	0.00334
1072.17551	0.00317
1070.24714	0.00309
1068.31876	0.00287
1066.39039	0.00255
1064.46202	0.00238
1062.53364	0.00243
1060.60527	0.00263
1058.67690	0.00278
1056.74853	0.00270
1054.82015	0.00255
1052.89178	0.00261
1050.96341	0.00280
1049.03503	0.00300
1047.10666	0.00321
1045.17829	0.00325
1043.24991	0.00324
1041.32154	0.00333
1039.39317	0.00329
1037.46479	0.00304
1035.53642	0.00283
1033.60805	0.00282
1031.67967	0.00284
1029.75130	0.00264
1027.82293	0.00243
1025.89455	0.00242
1023.96618	0.00249
1022.03781	0.00248
1020.10943	0.00251
1018.18106	0.00261
1016.25269	0.00274
1014.32431	0.00275
1012.39594	0.00258
1010.46757	0.00248
1008.53919	0.00246
1006.61082	0.00225
1004.68245	0.00195
1002.75407	0.00198
1000.82570	0.00225
998.89733	0.00236
996.96896	0.00239
995.04058	0.00255
993.11221	0.00287
991.18384	0.00324
989.25546	0.00364
987.32709	0.00421
985.39872	0.00469
983.47034	0.00471
981.54197	0.00460
979.61360	0.00484
977.68522	0.00530
975.75685	0.00577
973.82848	0.00649
971.90010	0.00790
969.97173	0.01009
968.04336	0.01276
966.11498	0.01541
964.18661	0.01724
962.25824	0.01732
960.32986	0.01524
958.40149	0.01157
956.47312	0.00817
954.54474	0.00666
952.61637	0.00701
950.68800	0.00887
948.75962	0.01195
946.83125	0.01530
944.90288	0.01810
942.97451	0.02036
941.04613	0.02229
939.11776	0.02393
937.18939	0.02515
935.26101	0.02599
933.33264	0.02650
931.40427	0.02648
929.47589	0.02607
927.54752	0.02568
925.61915	0.02514
923.69077	0.02413
921.76240	0.02293
919.83403	0.02220
917.90565	0.02218
915.97728	0.02241
914.04891	0.02224
912.12053	0.02150
910.19216	0.02022
908.26379	0.01825
906.33541	0.01574
904.40704	0.01319
902.47867	0.01091
900.55029	0.00916
898.62192	0.00811
896.69355	0.00746
894.76517	0.00689
892.83680	0.00644
890.90843	0.00613
888.98005	0.00589
887.05168	0.00580
885.12331	0.00586
883.19494	0.00563
881.26656	0.00505
879.33819	0.00472
877.40982	0.00491
875.48144	0.00518
873.55307	0.00517
871.62470	0.00505
869.69632	0.00505
867.76795	0.00517
865.83958	0.00536
863.91120	0.00566
861.98283	0.00573
860.05446	0.00522
858.12608	0.00468
856.19771	0.00474
854.26934	0.00490
852.34096	0.00461
850.41259	0.00422
848.48422	0.00394
846.55584	0.00373
844.62747	0.00366
842.69910	0.00395
840.77072	0.00450
838.84235	0.00492
836.91398	0.00490
834.98560	0.00449
833.05723	0.00405
831.12886	0.00382
829.20049	0.00377
827.27211	0.00378
825.34374	0.00393
823.41537	0.00424
821.48699	0.00450
819.55862	0.00464
817.63025	0.00469
815.70187	0.00460
813.77350	0.00433
811.84513	0.00425
809.91675	0.00449
807.98838	0.00475
806.06001	0.00507
804.13163	0.00545
802.20326	0.00564
800.27489	0.00557
798.34651	0.00530
796.41814	0.00498
794.48977	0.00498
792.56139	0.00544
790.63302	0.00581
788.70465	0.00549
786.77627	0.00482
784.84790	0.00444
782.91953	0.00437
780.99115	0.00440
779.06278	0.00441
777.13441	0.00432
775.20603	0.00415
773.27766	0.00411
771.34929	0.00419
769.42092	0.00421
767.49254	0.00421
765.56417	0.00438
763.63580	0.00466
761.70742	0.00478
759.77905	0.00477
757.85068	0.00484
755.92230	0.00480
753.99393	0.00447
752.06556	0.00429
750.13718	0.00461
748.20881	0.00520
746.28044	0.00550
744.35206	0.00512
742.42369	0.00440
740.49532	0.00402
738.56694	0.00417
736.63857	0.00444
734.71020	0.00455
732.78182	0.00460
730.85345	0.00443
728.92508	0.00419
726.99670	0.00432
725.06833	0.00473
723.13996	0.00513
721.21158	0.00540
719.28321	0.00537
717.35484	0.00510
715.42647	0.00497
713.49809	0.00520
711.56972	0.00537
709.64135	0.00510
707.71297	0.00481
705.78460	0.00503
703.85623	0.00545
701.92785	0.00576
699.99948	0.00602
698.07111	0.00611
696.14273	0.00612
694.21436	0.00644
692.28599	0.00696
690.35761	0.00706
688.42924	0.00703
686.50087	0.00715
684.57249	0.00700
682.64412	0.00652
680.71575	0.00667
678.78737	0.00747
676.85900	0.00766
674.93063	0.00763
673.00225	0.00835
671.07388	0.00978
669.14551	0.01147
667.21713	0.01067
665.28876	0.00854
663.36039	0.00823
661.43201	0.00915
659.50364	0.00997
657.57527	0.01015
655.64690	0.01004
653.71852	0.00986
651.79015	0.00969
649.86178	0.00960
647.93340	0.00955
646.00503	0.00996
644.07666	0.01054
642.14828	0.01065
640.21991	0.01101
638.29154	0.01164
636.36316	0.01178
634.43479	0.01141
632.50642	0.01205
630.57804	0.01355
628.64967	0.01435
626.72130	0.01475
624.79292	0.01549
622.86455	0.01673
620.93618	0.01798
619.00780	0.01872
617.07943	0.01829
615.15106	0.01741
613.22268	0.01753
611.29431	0.01878
609.36594	0.01993
607.43756	0.02038
605.50919	0.02188
603.58082	0.02424
601.65244	0.02657
599.72407	0.03047
