3997.51769	0.48833
3995.58931	0.48878
3993.66094	0.48957
3991.73257	0.49021
3989.80419	0.49028
3987.87582	0.48987
3985.94745	0.48976
3984.01907	0.49013
3982.09070	0.49050
3980.16233	0.49073
3978.23396	0.49097
3976.30558	0.49141
3974.37721	0.49178
3972.44884	0.49192
3970.52046	0.49212
3968.59209	0.49199
3966.66372	0.49163
3964.73534	0.49221
3962.80697	0.49371
3960.87860	0.49495
3958.95022	0.49556
3957.02185	0.49604
3955.09348	0.49698
3953.16510	0.49857
3951.23673	0.50029
3949.30836	0.50099
3947.37998	0.50021
3945.45161	0.49939
3943.52324	0.49961
3941.59486	0.50002
3939.66649	0.50003
3937.73812	0.50020
3935.80974	0.50093
3933.88137	0.50233
3931.95300	0.50382
3930.02462	0.50429
3928.09625	0.50436
3926.16788	0.50518
3924.23950	0.50615
3922.31113	0.50651
3920.38276	0.50708
3918.45439	0.50822
3916.52601	0.50883
3914.59764	0.50873
3912.66927	0.50896
3910.74089	0.50950
3908.81252	0.51011
3906.88415	0.51200
3904.95577	0.51585
3903.02740	0.51957
3901.09903	0.52061
3899.17065	0.51909
3897.24228	0.51693
3895.31391	0.51652
3893.38553	0.51883
3891.45716	0.52144
3889.52879	0.52138
3887.60041	0.52123
3885.67204	0.52265
3883.74367	0.52395
3881.81529	0.52502
3879.88692	0.52500
3877.95855	0.52353
3876.03017	0.52349
3874.10180	0.52543
3872.17343	0.52813
3870.24505	0.53044
3868.31668	0.53063
3866.38831	0.53063
3864.45994	0.53214
3862.53156	0.53260
3860.60319	0.53133
3858.67482	0.53061
3856.74644	0.53220
3854.81807	0.53718
3852.88970	0.54105
3850.96132	0.53768
3849.03295	0.53374
3847.10458	0.53262
3845.17620	0.53410
3843.24783	0.53666
3841.31946	0.53875
3839.39108	0.54018
3837.46271	0.54018
3835.53434	0.53831
3833.60596	0.53648
3831.67759	0.53528
3829.74922	0.53456
3827.82084	0.53469
3825.89247	0.53554
3823.96410	0.53758
3822.03572	0.54057
3820.10735	0.54081
3818.17898	0.53881
3816.25060	0.53751
3814.32223	0.53557
3812.39386	0.53378
3810.46548	0.53369
3808.53711	0.53510
3806.60874	0.53673
3804.68037	0.53810
3802.75199	0.54002
3800.82362	0.54034
3798.89525	0.53829
3796.96687	0.53653
3795.03850	0.53467
3793.11013	0.53285
3791.18175	0.53185
3789.25338	0.53138
3787.32501	0.53154
3785.39663	0.53202
3783.46826	0.53170
3781.53989	0.53119
3779.61151	0.53128
3777.68314	0.53073
3775.75477	0.52954
3773.82639	0.52913
3771.89802	0.52983
3769.96965	0.53074
3768.04127	0.53063
3766.11290	0.52985
3764.18453	0.52859
3762.25615	0.52776
3760.32778	0.52858
3758.39941	0.52937
3756.47103	0.52907
3754.54266	0.52968
3752.61429	0.53223
3750.68591	0.53380
3748.75754	0.53225
3746.82917	0.53185
3744.90080	0.53157
3742.97242	0.52734
3741.04405	0.52334
3739.11568	0.52284
3737.18730	0.52490
3735.25893	0.52675
3733.33056	0.52467
3731.40218	0.51959
3729.47381	0.51559
3727.54544	0.51385
3725.61706	0.51294
3723.68869	0.51113
3721.76032	0.50829
3719.83194	0.50525
3717.90357	0.50281
3715.97520	0.50151
3714.04682	0.50138
3712.11845	0.50130
3710.19008	0.49748
3708.26170	0.49036
3706.33333	0.48459
3704.40496	0.48150
3702.47658	0.47919
3700.54821	0.47513
3698.61984	0.46999
3696.69146	0.46502
3694.76309	0.46064
3692.83472	0.45736
3690.90635	0.45384
3688.97797	0.44648
3687.04960	0.43549
3685.12123	0.42524
3683.19285	0.41614
3681.26448	0.40738
3679.33611	0.39936
3677.40773	0.39210
3675.47936	0.38163
3673.55099	0.36809
3671.62261	0.35637
3669.69424	0.34211
3667.76587	0.32596
3665.83749	0.31251
3663.90912	0.29976
3661.98075	0.28685
3660.05237	0.27474
3658.12400	0.26321
3656.19563	0.24981
3654.26725	0.23636
3652.33888	0.22596
3650.41051	0.21525
3648.48213	0.20007
3646.55376	0.18447
3644.62539	0.17240
3642.69701	0.16183
3640.76864	0.15120
3638.84027	0.14088
3636.91189	0.13146
3634.98352	0.12277
3633.05515	0.11470
3631.12678	0.10753
3629.19840	0.09928
3627.27003	0.08944
3625.34166	0.08166
3623.41328	0.07571
3621.48491	0.07049
3619.55654	0.06497
3617.62816	0.05924
3615.69979	0.05433
3613.77142	0.04965
3611.84304	0.04503
3609.91467	0.04118
3607.98630	0.03770
3606.05792	0.03412
3604.12955	0.03097
3602.20118	0.02817
3600.27280	0.02557
3598.34443	0.02318
3596.41606	0.02097
3594.48768	0.01894
3592.55931	0.01728
3590.63094	0.01594
3588.70256	0.01434
3586.77419	0.01265
3584.84582	0.01143
3582.91744	0.01081
3580.98907	0.01049
3579.06070	0.00960
3577.13233	0.00818
3575.20395	0.00700
3573.27558	0.00625
3571.34721	0.00555
3569.41883	0.00486
3567.49046	0.00444
3565.56209	0.00407
3563.63371	0.00371
3561.70534	0.00342
3559.77697	0.00310
3557.84859	0.00232
3555.92022	0.00167
3553.99185	0.00222
3552.06347	0.00252
3550.13510	0.00215
3548.20673	0.00151
3546.27835	0.00110
3544.34998	0.00124
3542.42161	0.00155
3540.49323	0.00121
3538.56486	0.00083
3536.63649	0.00078
3534.70811	0.00142
3532.77974	0.00127
3530.85137	0.00085
3528.92299	0.00100
3526.99462	0.00126
3525.06625	0.00118
3523.13787	0.00107
3521.20950	0.00055
3519.28113	0.00041
3517.35276	0.00058
3515.42438	0.00060
3513.49601	0.00081
3511.56764	0.00092
3509.63926	0.00090
3507.71089	0.00068
3505.78252	0.00075
3503.85414	0.00108
3501.92577	0.00130
3499.99740	0.00126
3498.06902	0.00103
3496.14065	0.00077
3494.21228	0.00080
3492.28390	0.00111
3490.35553	0.00083
3488.42716	0.00056
3486.49878	0.00043
3484.57041	0.00072
3482.64204	0.00112
3480.71366	0.00092
3478.78529	0.00101
3476.85692	0.00132
3474.92854	0.00132
3473.00017	0.00093
3471.07180	0.00057
3469.14342	0.00125
3467.21505	0.00129
3465.28668	0.00094
3463.35831	0.00066
3461.42993	0.00040
3459.50156	0.00080
3457.57319	0.00059
3455.64481	0.00051
3453.71644	0.00097
3451.78807	0.00108
3449.85969	0.00086
3447.93132	0.00080
3446.00295	0.00094
3444.07457	0.00128
3442.14620	0.00157
3440.21783	0.00150
3438.28945	0.00110
3436.36108	0.00072
3434.43271	0.00062
3432.50433	0.00060
3430.57596	0.00070
3428.64759	0.00122
3426.71921	0.00147
3424.79084	0.00146
3422.86247	0.00137
3420.93409	0.00109
3419.00572	0.00086
3417.07735	0.00106
3415.14897	0.00123
3413.22060	0.00120
3411.29223	0.00086
3409.36385	0.00055
3407.43548	0.00029
3405.50711	0.00063
3403.57874	0.00070
3401.65036	0.00075
3399.72199	0.00085
3397.79362	0.00114
3395.86524	0.00118
3393.93687	0.00085
3392.00850	0.00076
3390.08012	0.00057
3388.15175	0.00049
3386.22338	0.00041
3384.29500	0.00078
3382.36663	0.00111
3380.43826	0.00080
3378.50988	0.00040
3376.58151	0.00078
3374.65314	0.00106
3372.72476	0.00062
3370.79639	0.00044
3368.86802	0.00053
3366.93964	0.00064
3365.01127	0.00048
3363.08290	0.00034
3361.15452	0.00033
3359.22615	0.00089
3357.29778	0.00098
3355.36940	0.00082
3353.44103	0.00066
3351.51266	0.00081
3349.58428	0.00096
3347.65591	0.00091
3345.72754	0.00109
3343.79917	0.00129
3341.87079	0.00087
3339.94242	0.00048
3338.01405	0.00045
3336.08567	0.00023
3334.15730	0.00024
3332.22893	0.00071
3330.30055	0.00133
3328.37218	0.00164
3326.44381	0.00137
3324.51543	0.00111
3322.58706	0.00094
3320.65869	0.00069
3318.73031	0.00060
3316.80194	0.00055
3314.87357	0.00049
3312.94519	0.00074
3311.01682	0.00090
3309.08845	0.00088
3307.16007	0.00072
3305.23170	0.00072
3303.30333	0.00134
3301.37495	0.00103
3299.44658	0.00038
3297.51821	0.00064
3295.58983	0.00034
3293.66146	0.00041
3291.73309	0.00070
3289.80472	0.00053
3287.87634	0.00076
3285.94797	0.00086
3284.01960	0.00093
3282.09122	0.00077
3280.16285	0.00072
3278.23448	0.00132
3276.30610	0.00146
3274.37773	0.00124
3272.44936	0.00089
3270.52098	0.00043
3268.59261	0.00040
3266.66424	0.00049
3264.73586	0.00059
3262.80749	0.00036
3260.87912	0.00116
3258.95074	0.00142
3257.02237	0.00094
3255.09400	0.00046
3253.16562	0.00044
3251.23725	0.00053
3249.30888	0.00044
3247.38050	0.00028
3245.45213	0.00016
3243.52376	0.00055
3241.59538	0.00078
3239.66701	0.00084
3237.73864	0.00076
3235.81026	0.00085
3233.88189	0.00098
3231.95352	0.00064
3230.02515	0.00031
3228.09677	0.00049
3226.16840	0.00054
3224.24003	0.00113
3222.31165	0.00134
3220.38328	0.00093
3218.45491	0.00080
3216.52653	0.00074
3214.59816	0.00053
3212.66979	0.00064
3210.74141	0.00053
3208.81304	0.00010
3206.88467	0.00045
3204.95629	0.00075
3203.02792	0.00097
3201.09955	0.00046
3199.17117	0.00077
3197.24280	0.00133
3195.31443	0.00134
3193.38605	0.00103
3191.45768	0.00098
3189.52931	0.00084
3187.60093	0.00069
3185.67256	0.00060
3183.74419	0.00051
3181.81581	0.00034
3179.88744	0.00055
3177.95907	0.00096
3176.03070	0.00074
3174.10232	0.00065
3172.17395	0.00132
3170.24558	0.00151
3168.31720	0.00103
3166.38883	0.00045
3164.46046	0.00035
3162.53208	0.00066
3160.60371	0.00090
3158.67534	0.00124
3156.74696	0.00107
3154.81859	0.00098
3152.89022	0.00095
3150.96184	0.00119
3149.03347	0.00128
3147.10510	0.00113
3145.17672	0.00048
3143.24835	0.00046
3141.31998	0.00074
3139.39160	0.00061
3137.46323	0.00067
3135.53486	0.00061
3133.60648	0.00038
3131.67811	0.00076
3129.74974	0.00084
3127.82136	0.00079
3125.89299	0.00077
3123.96462	0.00078
3122.03624	0.00105
3120.10787	0.00116
3118.17950	0.00079
3116.25113	0.00040
3114.32275	0.00082
3112.39438	0.00117
3110.46601	0.00125
3108.53763	0.00111
3106.60926	0.00086
3104.68089	0.00062
3102.75251	0.00089
3100.82414	0.00097
3098.89577	0.00089
3096.96739	0.00054
3095.03902	0.00057
3093.11065	0.00057
3091.18227	0.00052
3089.25390	0.00088
3087.32553	0.00100
3085.39715	0.00091
3083.46878	0.00088
3081.54041	0.00078
3079.61203	0.00070
3077.68366	0.00074
3075.75529	0.00069
3073.82691	0.00042
3071.89854	0.00078
3069.97017	0.00129
3068.04179	0.00146
3066.11342	0.00133
3064.18505	0.00111
3062.25668	0.00073
3060.32830	0.00084
3058.39993	0.00088
3056.47156	0.00084
3054.54318	0.00079
3052.61481	0.00063
3050.68644	0.00026
3048.75806	0.00068
3046.82969	0.00100
3044.90132	0.00127
3042.97294	0.00099
3041.04457	0.00075
3039.11620	0.00078
3037.18782	0.00064
3035.25945	0.00052
3033.33108	0.00097
3031.40270	0.00123
3029.47433	0.00104
3027.54596	0.00095
3025.61758	0.00066
3023.68921	0.00073
3021.76084	0.00101
3019.83246	0.00121
3017.90409	0.00090
3015.97572	0.00047
3014.04734	0.00032
3012.11897	0.00090
3010.19060	0.00129
3008.26222	0.00098
3006.33385	0.00056
3004.40548	0.00076
3002.47711	0.00098
3000.54873	0.00082
2998.62036	0.00053
2996.69199	0.00064
2994.76361	0.00082
2992.83524	0.00073
2990.90687	0.00057
2988.97849	0.00062
2987.05012	0.00056
2985.12175	0.00076
2983.19337	0.00091
2981.26500	0.00149
2979.33663	0.00169
2977.40825	0.00170
2975.47988	0.00176
2973.55151	0.00166
2971.62313	0.00154
2969.69476	0.00093
2967.76639	0.00076
2965.83801	0.00112
2963.90964	0.00116
2961.98127	0.00133
2960.05289	0.00145
2958.12452	0.00112
2956.19615	0.00088
2954.26777	0.00092
2952.33940	0.00113
2950.41103	0.00125
2948.48266	0.00103
2946.55428	0.00064
2944.62591	0.00091
2942.69754	0.00165
2940.76916	0.00185
2938.84079	0.00134
2936.91242	0.00087
2934.98404	0.00073
2933.05567	0.00049
2931.12730	0.00050
2929.19892	0.00120
2927.27055	0.00121
2925.34218	0.00087
2923.41380	0.00091
2921.48543	0.00109
2919.55706	0.00113
2917.62868	0.00111
2915.70031	0.00080
2913.77194	0.00132
2911.84356	0.00139
2909.91519	0.00112
2907.98682	0.00122
2906.05844	0.00071
2904.13007	0.00050
2902.20170	0.00073
2900.27332	0.00063
2898.34495	0.00069
2896.41658	0.00054
2894.48820	0.00072
2892.55983	0.00072
2890.63146	0.00061
2888.70309	0.00031
2886.77471	0.00036
2884.84634	0.00056
2882.91797	0.00075
2880.98959	0.00099
2879.06122	0.00111
2877.13285	0.00118
2875.20447	0.00075
2873.27610	0.00072
2871.34773	0.00065
2869.41935	0.00076
2867.49098	0.00119
2865.56261	0.00099
2863.63423	0.00063
2861.70586	0.00076
2859.77749	0.00107
2857.84911	0.00092
2855.92074	0.00050
2853.99237	0.00033
2852.06399	0.00042
2850.13562	0.00068
2848.20725	0.00054
2846.27887	0.00080
2844.35050	0.00075
2842.42213	0.00013
2840.49375	0.00088
2838.56538	0.00100
2836.63701	0.00073
2834.70863	0.00057
2832.78026	0.00039
2830.85189	0.00051
2828.92352	0.00053
2826.99514	0.00063
2825.06677	0.00094
2823.13840	0.00097
2821.21002	0.00084
2819.28165	0.00063
2817.35328	0.00058
2815.42490	0.00080
2813.49653	0.00099
2811.56816	0.00106
2809.63978	0.00110
2807.71141	0.00087
2805.78304	0.00066
2803.85466	0.00062
2801.92629	0.00081
2799.99792	0.00095
2798.06954	0.00109
2796.14117	0.00105
2794.21280	0.00091
2792.28442	0.00093
2790.35605	0.00090
2788.42768	0.00091
2786.49930	0.00080
2784.57093	0.00065
2782.64256	0.00072
2780.71418	0.00085
2778.78581	0.00089
2776.85744	0.00078
2774.92907	0.00043
2773.00069	0.00061
2771.07232	0.00106
2769.14395	0.00114
2767.21557	0.00112
2765.28720	0.00100
2763.35883	0.00038
2761.43045	0.00085
2759.50208	0.00102
2757.57371	0.00098
2755.64533	0.00068
2753.71696	0.00078
2751.78859	0.00087
2749.86021	0.00082
2747.93184	0.00077
2746.00347	0.00118
2744.07509	0.00155
2742.14672	0.00148
2740.21835	0.00144
2738.28997	0.00152
2736.36160	0.00151
2734.43323	0.00130
2732.50485	0.00114
2730.57648	0.00115
2728.64811	0.00111
2726.71973	0.00106
2724.79136	0.00099
2722.86299	0.00129
2720.93461	0.00186
2719.00624	0.00215
2717.07787	0.00196
2715.14950	0.00170
2713.22112	0.00189
2711.29275	0.00231
2709.36438	0.00252
2707.43600	0.00239
2705.50763	0.00198
2703.57926	0.00175
2701.65088	0.00185
2699.72251	0.00202
2697.79414	0.00235
2695.86576	0.00268
2693.93739	0.00273
2692.00902	0.00275
2690.08064	0.00299
2688.15227	0.00309
2686.22390	0.00284
2684.29552	0.00257
2682.36715	0.00245
2680.43878	0.00239
2678.51040	0.00249
2676.58203	0.00283
2674.65366	0.00308
2672.72528	0.00316
2670.79691	0.00320
2668.86854	0.00314
2666.94016	0.00298
2665.01179	0.00299
2663.08342	0.00332
2661.15505	0.00381
2659.22667	0.00406
2657.29830	0.00401
2655.36993	0.00404
2653.44155	0.00438
2651.51318	0.00477
2649.58481	0.00495
2647.65643	0.00502
2645.72806	0.00514
2643.79969	0.00530
2641.87131	0.00543
2639.94294	0.00554
2638.01457	0.00577
2636.08619	0.00606
2634.15782	0.00638
2632.22945	0.00667
2630.30107	0.00668
2628.37270	0.00652
2626.44433	0.00681
2624.51595	0.00748
2622.58758	0.00793
2620.65921	0.00815
2618.73083	0.00854
2616.80246	0.00914
2614.87409	0.00973
2612.94571	0.01013
2611.01734	0.01033
2609.08897	0.01042
2607.16059	0.01052
2605.23222	0.01085
2603.30385	0.01144
2601.37548	0.01204
2599.44710	0.01264
2597.51873	0.01330
2595.59036	0.01385
2593.66198	0.01414
2591.73361	0.01433
2589.80524	0.01471
2587.87686	0.01525
2585.94849	0.01580
2584.02012	0.01631
2582.09174	0.01682
2580.16337	0.01738
2578.23500	0.01789
2576.30662	0.01829
2574.37825	0.01894
2572.44988	0.01997
2570.52150	0.02071
2568.59313	0.02087
2566.66476	0.02102
2564.73638	0.02142
2562.80801	0.02177
2560.87964	0.02209
2558.95126	0.02268
2557.02289	0.02337
2555.09452	0.02394
2553.16614	0.02465
2551.23777	0.02548
2549.30940	0.02600
2547.38103	0.02630
2545.45265	0.02685
2543.52428	0.02764
2541.59591	0.02824
2539.66753	0.02861
2537.73916	0.02901
2535.81079	0.02951
2533.88241	0.03007
2531.95404	0.03073
2530.02567	0.03149
2528.09729	0.03239
2526.16892	0.03336
2524.24055	0.03415
2522.31217	0.03473
2520.38380	0.03524
2518.45543	0.03569
2516.52705	0.03612
2514.59868	0.03660
2512.67031	0.03720
2510.74193	0.03789
2508.81356	0.03859
2506.88519	0.03928
2504.95681	0.04000
2503.02844	0.04084
2501.10007	0.04175
2499.17169	0.04232
2497.24332	0.04245
2495.31495	0.04267
2493.38657	0.04320
2491.45820	0.04370
2489.52983	0.04412
2487.60146	0.04471
2485.67308	0.04541
2483.74471	0.04611
2481.81634	0.04685
2479.88796	0.04747
2477.95959	0.04796
2476.03122	0.04872
2474.10284	0.04978
2472.17447	0.05078
2470.24610	0.05162
2468.31772	0.05251
2466.38935	0.05346
2464.46098	0.05432
2462.53260	0.05514
2460.60423	0.05621
2458.67586	0.05753
2456.74748	0.05882
2454.81911	0.06001
2452.89074	0.06105
2450.96236	0.06187
2449.03399	0.06281
2447.10562	0.06400
2445.17724	0.06506
2443.24887	0.06588
2441.32050	0.06686
2439.39212	0.06820
2437.46375	0.06951
2435.53538	0.07056
2433.60700	0.07164
2431.67863	0.07293
2429.75026	0.07416
2427.82189	0.07522
2425.89351	0.07610
2423.96514	0.07682
2422.03677	0.07763
2420.10839	0.07868
2418.18002	0.07989
2416.25165	0.08104
2414.32327	0.08210
2412.39490	0.08310
2410.46653	0.08405
2408.53815	0.08524
2406.60978	0.08668
2404.68141	0.08806
2402.75303	0.08946
2400.82466	0.09093
2398.89629	0.09225
2396.96791	0.09360
2395.03954	0.09510
2393.11117	0.09656
2391.18279	0.09801
2389.25442	0.09943
2387.32605	0.10060
2385.39767	0.10176
2383.46930	0.10330
2381.54093	0.10517
2379.61255	0.10710
2377.68418	0.10883
2375.75581	0.11044
2373.82744	0.11220
2371.89906	0.11417
2369.97069	0.11642
2368.04232	0.11867
2366.11394	0.12027
2364.18557	0.12143
2362.25720	0.12287
2360.32882	0.12512
2358.40045	0.12804
2356.47208	0.12984
2354.54370	0.12953
2352.61533	0.12863
2350.68696	0.12832
2348.75858	0.12862
2346.83021	0.12978
2344.90184	0.13210
2342.97346	0.13430
2341.04509	0.13495
2339.11672	0.13546
2337.18834	0.13690
2335.25997	0.13782
2333.33160	0.13749
2331.40322	0.13722
2329.47485	0.13785
2327.54648	0.13881
2325.61810	0.13957
2323.68973	0.14049
2321.76136	0.14173
2319.83298	0.14279
2317.90461	0.14366
2315.97624	0.14463
2314.04787	0.14571
2312.11949	0.14698
2310.19112	0.14834
2308.26275	0.14940
2306.33437	0.15038
2304.40600	0.15170
2302.47763	0.15315
2300.54925	0.15433
2298.62088	0.15538
2296.69251	0.15662
2294.76413	0.15806
2292.83576	0.15955
2290.90739	0.16091
2288.97901	0.16206
2287.05064	0.16321
2285.12227	0.16447
2283.19389	0.16585
2281.26552	0.16722
2279.33715	0.16841
2277.40877	0.16949
2275.48040	0.17068
2273.55203	0.17193
2271.62365	0.17303
2269.69528	0.17388
2267.76691	0.17466
2265.83853	0.17579
2263.91016	0.17716
2261.98179	0.17827
2260.05342	0.17909
2258.12504	0.17997
2256.19667	0.18108
2254.26830	0.18221
2252.33992	0.18324
2250.41155	0.18426
2248.48318	0.18529
2246.55480	0.18624
2244.62643	0.18706
2242.69806	0.18791
2240.76968	0.18885
2238.84131	0.18966
2236.91294	0.19037
2234.98456	0.19119
2233.05619	0.19210
2231.12782	0.19294
2229.19944	0.19368
2227.27107	0.19444
2225.34270	0.19530
2223.41432	0.19630
2221.48595	0.19731
2219.55758	0.19827
2217.62920	0.19924
2215.70083	0.20022
2213.77246	0.20104
2211.84408	0.20183
2209.91571	0.20293
2207.98734	0.20420
2206.05896	0.20523
2204.13059	0.20596
2202.20222	0.20657
2200.27385	0.20732
2198.34547	0.20836
2196.41710	0.20955
2194.48873	0.21063
2192.56035	0.21146
2190.63198	0.21206
2188.70361	0.21252
2186.77523	0.21298
2184.84686	0.21368
2182.91849	0.21468
2180.99011	0.21579
2179.06174	0.21668
2177.13337	0.21717
2175.20499	0.21735
2173.27662	0.21755
2171.34825	0.21795
2169.41987	0.21843
2167.49150	0.21886
2165.56313	0.21928
2163.63475	0.21960
2161.70638	0.21980
2159.77801	0.22010
2157.84963	0.22065
2155.92126	0.22133
2153.99289	0.22206
2152.06451	0.22293
2150.13614	0.22386
2148.20777	0.22449
2146.27940	0.22495
2144.35102	0.22579
2142.42265	0.22697
2140.49428	0.22791
2138.56590	0.22856
2136.63753	0.22948
2134.70916	0.23083
2132.78078	0.23213
2130.85241	0.23315
2128.92404	0.23417
2126.99566	0.23538
2125.06729	0.23679
2123.13892	0.23836
2121.21054	0.23993
2119.28217	0.24129
2117.35380	0.24243
2115.42542	0.24360
2113.49705	0.24487
2111.56868	0.24608
2109.64030	0.24722
2107.71193	0.24833
2105.78356	0.24957
2103.85518	0.25094
2101.92681	0.25228
2099.99844	0.25338
2098.07006	0.25413
2096.14169	0.25464
2094.21332	0.25521
2092.28494	0.25613
2090.35657	0.25730
2088.42820	0.25825
2086.49983	0.25888
2084.57145	0.25947
2082.64308	0.25997
2080.71471	0.26030
2078.78633	0.26064
2076.85796	0.26093
2074.92959	0.26093
2073.00121	0.26062
2071.07284	0.26021
2069.14447	0.26008
2067.21609	0.26028
2065.28772	0.26037
2063.35935	0.26022
2061.43097	0.26027
2059.50260	0.26076
2057.57423	0.26137
2055.64585	0.26185
2053.71748	0.26231
2051.78911	0.26302
2049.86073	0.26407
2047.93236	0.26519
2046.00399	0.26605
2044.07561	0.26684
2042.14724	0.26771
2040.21887	0.26849
2038.29049	0.26927
2036.36212	0.26999
2034.43375	0.27061
2032.50538	0.27133
2030.57700	0.27197
2028.64863	0.27233
2026.72026	0.27265
2024.79188	0.27300
2022.86351	0.27316
2020.93514	0.27329
2019.00676	0.27354
2017.07839	0.27378
2015.15002	0.27386
2013.22164	0.27386
2011.29327	0.27405
2009.36490	0.27455
2007.43652	0.27507
2005.50815	0.27545
2003.57978	0.27589
2001.65140	0.27661
1999.72303	0.27749
1997.79466	0.27812
1995.86628	0.27854
1993.93791	0.27933
1992.00954	0.28030
1990.08116	0.28066
1988.15279	0.28068
1986.22442	0.28108
1984.29604	0.28172
1982.36767	0.28210
1980.43930	0.28223
1978.51092	0.28249
1976.58255	0.28291
1974.65418	0.28334
1972.72581	0.28369
1970.79743	0.28411
1968.86906	0.28473
1966.94069	0.28530
1965.01231	0.28549
1963.08394	0.28548
1961.15557	0.28555
1959.22719	0.28559
1957.29882	0.28570
1955.37045	0.28600
1953.44207	0.28618
1951.51370	0.28610
1949.58533	0.28614
1947.65695	0.28633
1945.72858	0.28646
1943.80021	0.28650
1941.87183	0.28620
1939.94346	0.28548
1938.01509	0.28481
1936.08671	0.28450
1934.15834	0.28446
1932.22997	0.28420
1930.30159	0.28358
1928.37322	0.28308
1926.44485	0.28310
1924.51647	0.28339
1922.58810	0.28337
1920.65973	0.28307
1918.73135	0.28281
1916.80298	0.28228
1914.87461	0.28158
1912.94624	0.28125
1911.01786	0.28125
1909.08949	0.28107
1907.16112	0.28069
1905.23274	0.28047
1903.30437	0.28030
1901.37600	0.27974
1899.44762	0.27887
1897.51925	0.27811
1895.59088	0.27747
1893.66250	0.27680
1891.73413	0.27614
1889.80576	0.27530
1887.87738	0.27387
1885.94901	0.27220
1884.02064	0.27066
1882.09226	0.26915
1880.16389	0.26761
1878.23552	0.26603
1876.30714	0.26430
1874.37877	0.26228
1872.45040	0.26056
1870.52202	0.25970
1868.59365	0.25859
1866.66528	0.25605
1864.73690	0.25300
1862.80853	0.25042
1860.88016	0.24837
1858.95179	0.24655
1857.02341	0.24471
1855.09504	0.24294
1853.16667	0.24160
1851.23829	0.24065
1849.30992	0.23974
1847.38155	0.23888
1845.45317	0.23814
1843.52480	0.23686
1841.59643	0.23489
1839.66805	0.23322
1837.73968	0.23198
1835.81131	0.23068
1833.88293	0.22941
1831.95456	0.22850
1830.02619	0.22741
1828.09781	0.22557
1826.16944	0.22340
1824.24107	0.22078
1822.31269	0.21785
1820.38432	0.21507
1818.45595	0.21207
1816.52757	0.20854
1814.59920	0.20481
1812.67083	0.20107
1810.74245	0.19681
1808.81408	0.19207
1806.88571	0.18734
1804.95733	0.18264
1803.02896	0.17756
1801.10059	0.17165
1799.17222	0.16531
1797.24384	0.15941
1795.31547	0.15410
1793.38710	0.14837
1791.45872	0.14119
1789.53035	0.13397
1787.60198	0.12779
1785.67360	0.12199
1783.74523	0.11632
1781.81686	0.11094
1779.88848	0.10548
1777.96011	0.10003
1776.03174	0.09502
1774.10336	0.08999
1772.17499	0.08388
1770.24662	0.07721
1768.31824	0.07102
1766.38987	0.06511
1764.46150	0.05955
1762.53312	0.05324
1760.60475	0.04604
1758.67638	0.03932
1756.74800	0.03250
1754.81963	0.02604
1752.89126	0.02051
1750.96288	0.01500
1749.03451	0.00973
1747.10614	0.00590
1745.17777	0.00347
1743.24939	0.00194
1741.32102	0.00082
1739.39265	0.00043
1737.46427	0.00082
1735.53590	0.00089
1733.60753	0.00070
1731.67915	0.00052
1729.75078	0.00053
1727.82241	0.00052
1725.89403	0.00057
1723.96566	0.00048
1722.03729	0.00024
1720.10891	0.00023
1718.18054	0.00069
1716.25217	0.00092
1714.32379	0.00088
1712.39542	0.00084
1710.46705	0.00070
1708.53867	0.00046
1706.61030	0.00050
1704.68193	0.00096
1702.75355	0.00077
1700.82518	0.00044
1698.89681	0.00102
1696.96843	0.00119
1695.04006	0.00074
1693.11169	0.00021
1691.18331	0.00044
1689.25494	0.00076
1687.32657	0.00088
1685.39820	0.00107
1683.46982	0.00078
1681.54145	0.00087
1679.61308	0.00101
1677.68470	0.00106
1675.75633	0.00109
1673.82796	0.00083
1671.89958	0.00030
1669.97121	0.00041
1668.04284	0.00049
1666.11446	0.00046
1664.18609	0.00067
1662.25772	0.00071
1660.32934	0.00083
1658.40097	0.00086
1656.47260	0.00060
1654.54422	0.00051
1652.61585	0.00091
1650.68748	0.00131
1648.75910	0.00133
1646.83073	0.00111
1644.90236	0.00098
1642.97398	0.00080
1641.04561	0.00076
1639.11724	0.00072
1637.18886	0.00066
1635.26049	0.00098
1633.33212	0.00146
1631.40375	0.00147
1629.47537	0.00127
1627.54700	0.00076
1625.61863	0.00025
1623.69025	0.00037
1621.76188	0.00017
1619.83351	0.00053
1617.90513	0.00081
1615.97676	0.00080
1614.04839	0.00053
1612.12001	0.00051
1610.19164	0.00116
1608.26327	0.00147
1606.33489	0.00107
1604.40652	0.00064
1602.47815	0.00056
1600.54977	0.00084
1598.62140	0.00092
1596.69303	0.00081
1594.76465	0.00062
1592.83628	0.00048
1590.90791	0.00051
1588.97953	0.00049
1587.05116	0.00064
1585.12279	0.00071
1583.19441	0.00071
1581.26604	0.00093
1579.33767	0.00119
1577.40929	0.00099
1575.48092	0.00042
1573.55255	0.00052
1571.62418	0.00056
1569.69580	0.00050
1567.76743	0.00057
1565.83906	0.00066
1563.91068	0.00073
1561.98231	0.00086
1560.05394	0.00108
1558.12556	0.00108
1556.19719	0.00094
1554.26882	0.00087
1552.34044	0.00063
1550.41207	0.00043
1548.48370	0.00036
1546.55532	0.00057
1544.62695	0.00102
1542.69858	0.00138
1540.77020	0.00123
1538.84183	0.00071
1536.91346	0.00057
1534.98508	0.00057
1533.05671	0.00091
1531.12834	0.00064
1529.19996	0.00037
1527.27159	0.00104
1525.34322	0.00153
1523.41484	0.00143
1521.48647	0.00092
1519.55810	0.00073
1517.62972	0.00066
1515.70135	0.00088
1513.77298	0.00080
1511.84461	0.00061
1509.91623	0.00070
1507.98786	0.00054
1506.05949	0.00057
1504.13111	0.00061
1502.20274	0.00098
1500.27437	0.00101
1498.34599	0.00065
1496.41762	0.00037
1494.48925	0.00034
1492.56087	0.00038
1490.63250	0.00052
1488.70413	0.00057
1486.77575	0.00058
1484.84738	0.00038
1482.91901	0.00092
1480.99063	0.00126
1479.06226	0.00117
1477.13389	0.00110
1475.20551	0.00096
1473.27714	0.00058
1471.34877	0.00029
1469.42039	0.00036
1467.49202	0.00044
1465.56365	0.00027
1463.63527	0.00059
1461.70690	0.00072
1459.77853	0.00078
1457.85016	0.00118
1455.92178	0.00128
1453.99341	0.00094
1452.06504	0.00036
1450.13666	0.00023
1448.20829	0.00014
1446.27992	0.00029
1444.35154	0.00046
1442.42317	0.00060
1440.49480	0.00066
1438.56642	0.00075
1436.63805	0.00070
1434.70968	0.00062
1432.78130	0.00099
1430.85293	0.00112
1428.92456	0.00105
1426.99618	0.00082
1425.06781	0.00072
1423.13944	0.00082
1421.21106	0.00079
1419.28269	0.00048
1417.35432	0.00019
1415.42594	0.00055
1413.49757	0.00106
1411.56920	0.00103
1409.64082	0.00065
1407.71245	0.00082
1405.78408	0.00104
1403.85570	0.00101
1401.92733	0.00095
1399.99896	0.00088
1398.07059	0.00089
1396.14221	0.00069
1394.21384	0.00075
1392.28547	0.00104
1390.35709	0.00104
1388.42872	0.00059
1386.50035	0.00030
1384.57197	0.00068
1382.64360	0.00072
1380.71523	0.00048
1378.78685	0.00045
1376.85848	0.00048
1374.93011	0.00062
1373.00173	0.00082
1371.07336	0.00065
1369.14499	0.00028
1367.21661	0.00054
1365.28824	0.00060
1363.35987	0.00067
1361.43149	0.00069
1359.50312	0.00034
1357.57475	0.00054
1355.64637	0.00097
1353.71800	0.00095
1351.78963	0.00113
1349.86125	0.00086
1347.93288	0.00099
1346.00451	0.00084
1344.07614	0.00035
1342.14776	0.00051
1340.21939	0.00061
1338.29102	0.00041
1336.36264	0.00026
1334.43427	0.00038
1332.50590	0.00035
1330.57752	0.00046
1328.64915	0.00052
1326.72078	0.00053
1324.79240	0.00053
1322.86403	0.00042
1320.93566	0.00030
1319.00728	0.00047
1317.07891	0.00069
1315.15054	0.00064
1313.22216	0.00066
1311.29379	0.00085
1309.36542	0.00086
1307.43704	0.00072
1305.50867	0.00074
1303.58030	0.00073
1301.65192	0.00072
1299.72355	0.00071
1297.79518	0.00093
1295.86680	0.00059
1293.93843	0.00045
1292.01006	0.00102
1290.08168	0.00154
1288.15331	0.00130
1286.22494	0.00084
1284.29657	0.00070
1282.36819	0.00050
1280.43982	0.00051
1278.51145	0.00064
1276.58307	0.00094
1274.65470	0.00129
1272.72633	0.00130
1270.79795	0.00119
1268.86958	0.00141
1266.94121	0.00127
1265.01283	0.00124
1263.08446	0.00088
1261.15609	0.00064
1259.22771	0.00117
1257.29934	0.00155
1255.37097	0.00152
1253.44259	0.00143
1251.51422	0.00161
1249.58585	0.00172
1247.65747	0.00158
1245.72910	0.00144
1243.80073	0.00149
1241.87235	0.00114
1239.94398	0.00035
1238.01561	0.00089
1236.08723	0.00110
1234.15886	0.00175
1232.23049	0.00227
1230.30212	0.00210
1228.37374	0.00197
1226.44537	0.00170
1224.51700	0.00127
1222.58862	0.00096
1220.66025	0.00116
1218.73188	0.00226
1216.80350	0.00331
1214.87513	0.00337
1212.94676	0.00269
1211.01838	0.00218
1209.09001	0.00262
1207.16164	0.00356
1205.23326	0.00380
1203.30489	0.00304
1201.37652	0.00250
1199.44814	0.00341
1197.51977	0.00516
1195.59140	0.00625
1193.66302	0.00664
1191.73465	0.00736
1189.80628	0.00798
1187.87790	0.00790
1185.94953	0.00735
1184.02116	0.00669
1182.09278	0.00610
1180.16441	0.00593
1178.23604	0.00604
1176.30766	0.00563
1174.37929	0.00451
1172.45092	0.00322
1170.52255	0.00218
1168.59417	0.00151
1166.66580	0.00124
1164.73743	0.00140
1162.80905	0.00145
1160.88068	0.00148
1158.95231	0.00128
1157.02393	0.00167
1155.09556	0.00176
1153.16719	0.00151
1151.23881	0.00087
1149.31044	0.00063
1147.38207	0.00102
1145.45369	0.00200
1143.52532	0.00323
1141.59695	0.00353
1139.66857	0.00342
1137.74020	0.00359
1135.81183	0.00348
1133.88345	0.00269
1131.95508	0.00159
1130.02671	0.00099
1128.09833	0.00150
1126.16996	0.00151
1124.24159	0.00153
1122.31321	0.00217
1120.38484	0.00256
1118.45647	0.00232
1116.52809	0.00223
1114.59972	0.00242
1112.67135	0.00231
1110.74298	0.00133
1108.81460	0.00121
1106.88623	0.00183
1104.95786	0.00165
1103.02948	0.00138
1101.10111	0.00192
1099.17274	0.00255
1097.24436	0.00239
1095.31599	0.00137
1093.38762	0.00048
1091.45924	0.00060
1089.53087	0.00095
1087.60250	0.00146
1085.67412	0.00216
1083.74575	0.00266
1081.81738	0.00237
1079.88900	0.00115
1077.96063	0.00063
1076.03226	0.00088
1074.10388	0.00138
1072.17551	0.00169
1070.24714	0.00128
1068.31876	0.00141
1066.39039	0.00108
1064.46202	0.00069
1062.53364	0.00072
1060.60527	0.00043
1058.67690	0.00055
1056.74853	0.00119
1054.82015	0.00197
1052.89178	0.00247
1050.96341	0.00251
1049.03503	0.00246
1047.10666	0.00227
1045.17829	0.00183
1043.24991	0.00177
1041.32154	0.00188
1039.39317	0.00210
1037.46479	0.00205
1035.53642	0.00163
1033.60805	0.00174
1031.67967	0.00184
1029.75130	0.00141
1027.82293	0.00105
1025.89455	0.00074
1023.96618	0.00059
1022.03781	0.00033
1020.10943	0.00058
1018.18106	0.00077
1016.25269	0.00055
1014.32431	0.00054
1012.39594	0.00150
1010.46757	0.00193
1008.53919	0.00220
1006.61082	0.00238
1004.68245	0.00270
1002.75407	0.00272
1000.82570	0.00279
998.89733	0.00308
996.96896	0.00367
995.04058	0.00483
993.11221	0.00597
991.18384	0.00639
989.25546	0.00617
987.32709	0.00621
985.39872	0.00693
983.47034	0.00787
981.54197	0.00850
979.61360	0.00852
977.68522	0.00852
975.75685	0.00935
973.82848	0.01109
971.90010	0.01316
969.97173	0.01544
968.04336	0.01825
966.11498	0.02115
964.18661	0.02300
962.25824	0.02291
960.32986	0.02032
958.40149	0.01599
956.47312	0.01214
954.54474	0.01024
952.61637	0.01045
950.68800	0.01284
948.75962	0.01703
946.83125	0.02167
944.90288	0.02560
942.97451	0.02840
941.04613	0.03010
939.11776	0.03140
937.18939	0.03283
935.26101	0.03401
933.33264	0.03472
931.40427	0.03494
929.47589	0.03441
927.54752	0.03308
925.61915	0.03158
923.69077	0.02990
921.76240	0.02813
919.83403	0.02746
917.90565	0.02769
915.97728	0.02769
914.04891	0.02745
912.12053	0.02675
910.19216	0.02504
908.26379	0.02267
906.33541	0.01999
904.40704	0.01689
902.47867	0.01387
900.55029	0.01171
898.62192	0.01077
896.69355	0.01062
894.76517	0.01073
892.83680	0.01041
890.90843	0.00920
888.98005	0.00779
887.05168	0.00710
885.12331	0.00699
883.19494	0.00698
881.26656	0.00661
879.33819	0.00630
877.40982	0.00705
875.48144	0.00851
873.55307	0.00900
871.62470	0.00844
869.69632	0.00793
867.76795	0.00774
865.83958	0.00737
863.91120	0.00675
861.98283	0.00624
860.05446	0.00588
858.12608	0.00533
856.19771	0.00452
854.26934	0.00363
852.34096	0.00315
850.41259	0.00319
848.48422	0.00357
846.55584	0.00429
844.62747	0.00520
842.69910	0.00570
840.77072	0.00585
838.84235	0.00534
836.91398	0.00454
834.98560	0.00423
833.05723	0.00366
831.12886	0.00298
829.20049	0.00292
827.27211	0.00348
825.34374	0.00366
823.41537	0.00343
821.48699	0.00359
819.55862	0.00419
817.63025	0.00450
815.70187	0.00415
813.77350	0.00294
811.84513	0.00248
809.91675	0.00163
807.98838	0.00233
806.06001	0.00252
804.13163	0.00196
802.20326	0.00176
800.27489	0.00124
798.34651	0.00144
796.41814	0.00230
794.48977	0.00236
792.56139	0.00177
790.63302	0.00164
788.70465	0.00225
786.77627	0.00177
784.84790	0.00192
782.91953	0.00162
780.99115	0.00145
779.06278	0.00092
777.13441	0.00061
775.20603	0.00221
773.27766	0.00296
771.34929	0.00233
769.42092	0.00126
767.49254	0.00183
765.56417	0.00211
763.63580	0.00173
761.70742	0.00129
759.77905	0.00151
757.85068	0.00182
755.92230	0.00131
753.99393	0.00169
752.06556	0.00209
750.13718	0.00258
748.20881	0.00240
746.28044	0.00157
744.35206	0.00247
742.42369	0.00256
740.49532	0.00213
738.56694	0.00226
736.63857	0.00133
734.71020	0.00183
732.78182	0.00173
730.85345	0.00153
728.92508	0.00157
726.99670	0.00144
725.06833	0.00130
723.13996	0.00191
721.21158	0.00192
719.28321	0.00217
717.35484	0.00242
715.42647	0.00266
713.49809	0.00301
711.56972	0.00246
709.64135	0.00259
707.71297	0.00359
705.78460	0.00282
703.85623	0.00085
701.92785	0.00216
699.99948	0.00324
698.07111	0.00363
696.14273	0.00486
694.21436	0.00570
692.28599	0.00630
690.35761	0.00590
688.42924	0.00459
686.50087	0.00381
684.57249	0.00382
682.64412	0.00285
680.71575	0.00442
678.78737	0.00640
676.85900	0.00540
674.93063	0.00294
673.00225	0.00393
671.07388	0.00337
669.14551	0.00241
667.21713	0.00278
665.28876	0.00279
663.36039	0.00412
661.43201	0.00520
659.50364	0.00552
657.57527	0.00574
655.64690	0.00572
653.71852	0.00719
651.79015	0.00899
649.86178	0.00811
647.93340	0.00284
646.00503	0.00383
644.07666	0.00672
642.14828	0.00776
640.21991	0.00553
638.29154	0.00391
636.36316	0.00830
634.43479	0.01028
632.50642	0.00935
630.57804	0.00986
628.64967	0.00817
626.72130	0.00538
624.79292	0.00667
622.86455	0.00941
620.93618	0.00928
619.00780	0.00511
617.07943	0.00757
615.15106	0.01067
613.22268	0.00711
611.29431	0.00554
609.36594	0.00849
607.43756	0.00810
605.50919	0.01129
603.58082	0.01008
601.65244	0.00708
599.72407	0.00693
