3997.51769	0.45139
3995.58931	0.45179
3993.66094	0.45156
3991.73257	0.45110
3989.80419	0.45107
3987.87582	0.45135
3985.94745	0.45182
3984.01907	0.45234
3982.09070	0.45247
3980.16233	0.45231
3978.23396	0.45247
3976.30558	0.45319
3974.37721	0.45389
3972.44884	0.45382
3970.52046	0.45330
3968.59209	0.45305
3966.66372	0.45336
3964.73534	0.45415
3962.80697	0.45509
3960.87860	0.45595
3958.95022	0.45671
3957.02185	0.45758
3955.09348	0.45838
3953.16510	0.45884
3951.23673	0.45922
3949.30836	0.45921
3947.37998	0.45882
3945.45161	0.45900
3943.52324	0.45933
3941.59486	0.45902
3939.66649	0.45889
3937.73812	0.45907
3935.80974	0.45932
3933.88137	0.46064
3931.95300	0.46266
3930.02462	0.46336
3928.09625	0.46307
3926.16788	0.46329
3924.23950	0.46375
3922.31113	0.46373
3920.38276	0.46376
3918.45439	0.46420
3916.52601	0.46464
3914.59764	0.46470
3912.66927	0.46452
3910.74089	0.46452
3908.81252	0.46516
3906.88415	0.46739
3904.95577	0.47127
3903.02740	0.47437
3901.09903	0.47495
3899.17065	0.47364
3897.24228	0.47200
3895.31391	0.47204
3893.38553	0.47418
3891.45716	0.47639
3889.52879	0.47666
3887.60041	0.47689
3885.67204	0.47805
3883.74367	0.47875
3881.81529	0.47946
3879.88692	0.47988
3877.95855	0.47899
3876.03017	0.47893
3874.10180	0.48063
3872.17343	0.48268
3870.24505	0.48384
3868.31668	0.48344
3866.38831	0.48353
3864.45994	0.48493
3862.53156	0.48442
3860.60319	0.48203
3858.67482	0.48114
3856.74644	0.48282
3854.81807	0.48739
3852.88970	0.49174
3850.96132	0.48951
3849.03295	0.48535
3847.10458	0.48308
3845.17620	0.48335
3843.24783	0.48539
3841.31946	0.48756
3839.39108	0.48932
3837.46271	0.49054
3835.53434	0.49052
3833.60596	0.48965
3831.67759	0.48847
3829.74922	0.48760
3827.82084	0.48776
3825.89247	0.48848
3823.96410	0.48979
3822.03572	0.49251
3820.10735	0.49386
3818.17898	0.49243
3816.25060	0.49052
3814.32223	0.48772
3812.39386	0.48521
3810.46548	0.48456
3808.53711	0.48562
3806.60874	0.48695
3804.68037	0.48776
3802.75199	0.48944
3800.82362	0.49057
3798.89525	0.48911
3796.96687	0.48730
3795.03850	0.48552
3793.11013	0.48388
3791.18175	0.48307
3789.25338	0.48278
3787.32501	0.48295
3785.39663	0.48346
3783.46826	0.48362
3781.53989	0.48363
3779.61151	0.48385
3777.68314	0.48350
3775.75477	0.48279
3773.82639	0.48311
3771.89802	0.48485
3769.96965	0.48668
3768.04127	0.48682
3766.11290	0.48562
3764.18453	0.48399
3762.25615	0.48313
3760.32778	0.48384
3758.39941	0.48438
3756.47103	0.48384
3754.54266	0.48442
3752.61429	0.48744
3750.68591	0.48989
3748.75754	0.48804
3746.82917	0.48567
3744.90080	0.48343
3742.97242	0.47955
3741.04405	0.47681
3739.11568	0.47694
3737.18730	0.47952
3735.25893	0.48163
3733.33056	0.47930
3731.40218	0.47477
3729.47381	0.47186
3727.54544	0.47090
3725.61706	0.47026
3723.68869	0.46865
3721.76032	0.46665
3719.83194	0.46448
3717.90357	0.46199
3715.97520	0.46029
3714.04682	0.46027
3712.11845	0.46139
3710.19008	0.45984
3708.26170	0.45429
3706.33333	0.44866
3704.40496	0.44503
3702.47658	0.44255
3700.54821	0.43895
3698.61984	0.43452
3696.69146	0.43043
3694.76309	0.42679
3692.83472	0.42381
3690.90635	0.42086
3688.97797	0.41485
3687.04960	0.40474
3685.12123	0.39479
3683.19285	0.38664
3681.26448	0.37964
3679.33611	0.37330
3677.40773	0.36727
3675.47936	0.35833
3673.55099	0.34675
3671.62261	0.33711
3669.69424	0.32509
3667.76587	0.31041
3665.83749	0.29795
3663.90912	0.28656
3661.98075	0.27522
3660.05237	0.26458
3658.12400	0.25453
3656.19563	0.24272
3654.26725	0.23072
3652.33888	0.22157
3650.41051	0.21187
3648.48213	0.19729
3646.55376	0.18230
3644.62539	0.17088
3642.69701	0.16112
3640.76864	0.15150
3638.84027	0.14205
3636.91189	0.13315
3634.98352	0.12460
3633.05515	0.11652
3631.12678	0.10956
3629.19840	0.10179
3627.27003	0.09276
3625.34166	0.08549
3623.41328	0.07945
3621.48491	0.07388
3619.55654	0.06804
3617.62816	0.06223
3615.69979	0.05762
3613.77142	0.05366
3611.84304	0.04972
3609.91467	0.04582
3607.98630	0.04172
3606.05792	0.03771
3604.12955	0.03445
3602.20118	0.03160
3600.27280	0.02883
3598.34443	0.02632
3596.41606	0.02395
3594.48768	0.02125
3592.55931	0.01853
3590.63094	0.01659
3588.70256	0.01548
3586.77419	0.01480
3584.84582	0.01382
3582.91744	0.01248
3580.98907	0.01112
3579.06070	0.01011
3577.13233	0.00944
3575.20395	0.00865
3573.27558	0.00796
3571.34721	0.00745
3569.41883	0.00685
3567.49046	0.00587
3565.56209	0.00478
3563.63371	0.00398
3561.70534	0.00322
3559.77697	0.00266
3557.84859	0.00258
3555.92022	0.00254
3553.99185	0.00209
3552.06347	0.00161
3550.13510	0.00171
3548.20673	0.00222
3546.27835	0.00240
3544.34998	0.00156
3542.42161	0.00058
3540.49323	0.00054
3538.56486	0.00094
3536.63649	0.00121
3534.70811	0.00080
3532.77974	0.00064
3530.85137	0.00055
3528.92299	0.00048
3526.99462	0.00098
3525.06625	0.00102
3523.13787	0.00100
3521.20950	0.00140
3519.28113	0.00116
3517.35276	0.00090
3515.42438	0.00121
3513.49601	0.00156
3511.56764	0.00103
3509.63926	0.00052
3507.71089	0.00103
3505.78252	0.00104
3503.85414	0.00143
3501.92577	0.00200
3499.99740	0.00176
3498.06902	0.00134
3496.14065	0.00085
3494.21228	0.00055
3492.28390	0.00058
3490.35553	0.00098
3488.42716	0.00106
3486.49878	0.00086
3484.57041	0.00052
3482.64204	0.00038
3480.71366	0.00033
3478.78529	0.00042
3476.85692	0.00065
3474.92854	0.00048
3473.00017	0.00045
3471.07180	0.00069
3469.14342	0.00070
3467.21505	0.00079
3465.28668	0.00050
3463.35831	0.00045
3461.42993	0.00094
3459.50156	0.00134
3457.57319	0.00159
3455.64481	0.00137
3453.71644	0.00089
3451.78807	0.00100
3449.85969	0.00123
3447.93132	0.00095
3446.00295	0.00089
3444.07457	0.00082
3442.14620	0.00068
3440.21783	0.00063
3438.28945	0.00113
3436.36108	0.00146
3434.43271	0.00148
3432.50433	0.00150
3430.57596	0.00107
3428.64759	0.00054
3426.71921	0.00085
3424.79084	0.00111
3422.86247	0.00122
3420.93409	0.00100
3419.00572	0.00106
3417.07735	0.00126
3415.14897	0.00157
3413.22060	0.00126
3411.29223	0.00084
3409.36385	0.00033
3407.43548	0.00047
3405.50711	0.00063
3403.57874	0.00106
3401.65036	0.00122
3399.72199	0.00045
3397.79362	0.00087
3395.86524	0.00149
3393.93687	0.00135
3392.00850	0.00097
3390.08012	0.00076
3388.15175	0.00038
3386.22338	0.00065
3384.29500	0.00104
3382.36663	0.00110
3380.43826	0.00081
3378.50988	0.00071
3376.58151	0.00083
3374.65314	0.00058
3372.72476	0.00052
3370.79639	0.00073
3368.86802	0.00081
3366.93964	0.00111
3365.01127	0.00111
3363.08290	0.00077
3361.15452	0.00060
3359.22615	0.00048
3357.29778	0.00071
3355.36940	0.00102
3353.44103	0.00096
3351.51266	0.00088
3349.58428	0.00065
3347.65591	0.00056
3345.72754	0.00105
3343.79917	0.00066
3341.87079	0.00022
3339.94242	0.00057
3338.01405	0.00122
3336.08567	0.00130
3334.15730	0.00094
3332.22893	0.00090
3330.30055	0.00124
3328.37218	0.00133
3326.44381	0.00116
3324.51543	0.00105
3322.58706	0.00121
3320.65869	0.00178
3318.73031	0.00175
3316.80194	0.00140
3314.87357	0.00085
3312.94519	0.00082
3311.01682	0.00092
3309.08845	0.00081
3307.16007	0.00085
3305.23170	0.00107
3303.30333	0.00113
3301.37495	0.00113
3299.44658	0.00091
3297.51821	0.00089
3295.58983	0.00073
3293.66146	0.00092
3291.73309	0.00109
3289.80472	0.00092
3287.87634	0.00068
3285.94797	0.00038
3284.01960	0.00058
3282.09122	0.00058
3280.16285	0.00032
3278.23448	0.00041
3276.30610	0.00066
3274.37773	0.00089
3272.44936	0.00106
3270.52098	0.00068
3268.59261	0.00060
3266.66424	0.00063
3264.73586	0.00067
3262.80749	0.00096
3260.87912	0.00104
3258.95074	0.00115
3257.02237	0.00134
3255.09400	0.00117
3253.16562	0.00068
3251.23725	0.00096
3249.30888	0.00062
3247.38050	0.00034
3245.45213	0.00069
3243.52376	0.00102
3241.59538	0.00126
3239.66701	0.00090
3237.73864	0.00054
3235.81026	0.00025
3233.88189	0.00032
3231.95352	0.00049
3230.02515	0.00063
3228.09677	0.00062
3226.16840	0.00046
3224.24003	0.00050
3222.31165	0.00061
3220.38328	0.00064
3218.45491	0.00064
3216.52653	0.00062
3214.59816	0.00073
3212.66979	0.00061
3210.74141	0.00042
3208.81304	0.00027
3206.88467	0.00093
3204.95629	0.00097
3203.02792	0.00045
3201.09955	0.00083
3199.17117	0.00146
3197.24280	0.00152
3195.31443	0.00093
3193.38605	0.00082
3191.45768	0.00075
3189.52931	0.00049
3187.60093	0.00099
3185.67256	0.00118
3183.74419	0.00108
3181.81581	0.00100
3179.88744	0.00042
3177.95907	0.00058
3176.03070	0.00051
3174.10232	0.00098
3172.17395	0.00089
3170.24558	0.00054
3168.31720	0.00072
3166.38883	0.00089
3164.46046	0.00083
3162.53208	0.00067
3160.60371	0.00022
3158.67534	0.00083
3156.74696	0.00136
3154.81859	0.00131
3152.89022	0.00083
3150.96184	0.00095
3149.03347	0.00141
3147.10510	0.00093
3145.17672	0.00079
3143.24835	0.00070
3141.31998	0.00084
3139.39160	0.00099
3137.46323	0.00098
3135.53486	0.00097
3133.60648	0.00078
3131.67811	0.00061
3129.74974	0.00035
3127.82136	0.00076
3125.89299	0.00104
3123.96462	0.00109
3122.03624	0.00099
3120.10787	0.00096
3118.17950	0.00107
3116.25113	0.00108
3114.32275	0.00092
3112.39438	0.00086
3110.46601	0.00096
3108.53763	0.00100
3106.60926	0.00088
3104.68089	0.00081
3102.75251	0.00081
3100.82414	0.00067
3098.89577	0.00074
3096.96739	0.00090
3095.03902	0.00093
3093.11065	0.00065
3091.18227	0.00050
3089.25390	0.00075
3087.32553	0.00033
3085.39715	0.00073
3083.46878	0.00060
3081.54041	0.00104
3079.61203	0.00166
3077.68366	0.00131
3075.75529	0.00067
3073.82691	0.00053
3071.89854	0.00081
3069.97017	0.00110
3068.04179	0.00128
3066.11342	0.00113
3064.18505	0.00055
3062.25668	0.00023
3060.32830	0.00044
3058.39993	0.00086
3056.47156	0.00122
3054.54318	0.00107
3052.61481	0.00050
3050.68644	0.00043
3048.75806	0.00027
3046.82969	0.00024
3044.90132	0.00093
3042.97294	0.00121
3041.04457	0.00094
3039.11620	0.00085
3037.18782	0.00081
3035.25945	0.00086
3033.33108	0.00092
3031.40270	0.00088
3029.47433	0.00075
3027.54596	0.00105
3025.61758	0.00127
3023.68921	0.00110
3021.76084	0.00073
3019.83246	0.00041
3017.90409	0.00041
3015.97572	0.00037
3014.04734	0.00053
3012.11897	0.00089
3010.19060	0.00085
3008.26222	0.00047
3006.33385	0.00058
3004.40548	0.00098
3002.47711	0.00097
3000.54873	0.00068
2998.62036	0.00062
2996.69199	0.00072
2994.76361	0.00074
2992.83524	0.00095
2990.90687	0.00101
2988.97849	0.00085
2987.05012	0.00139
2985.12175	0.00160
2983.19337	0.00146
2981.26500	0.00113
2979.33663	0.00061
2977.40825	0.00104
2975.47988	0.00148
2973.55151	0.00093
2971.62313	0.00094
2969.69476	0.00064
2967.76639	0.00067
2965.83801	0.00140
2963.90964	0.00124
2961.98127	0.00170
2960.05289	0.00211
2958.12452	0.00178
2956.19615	0.00106
2954.26777	0.00053
2952.33940	0.00077
2950.41103	0.00086
2948.48266	0.00111
2946.55428	0.00112
2944.62591	0.00105
2942.69754	0.00140
2940.76916	0.00167
2938.84079	0.00135
2936.91242	0.00113
2934.98404	0.00120
2933.05567	0.00140
2931.12730	0.00156
2929.19892	0.00150
2927.27055	0.00108
2925.34218	0.00128
2923.41380	0.00133
2921.48543	0.00092
2919.55706	0.00069
2917.62868	0.00087
2915.70031	0.00086
2913.77194	0.00108
2911.84356	0.00120
2909.91519	0.00129
2907.98682	0.00114
2906.05844	0.00088
2904.13007	0.00092
2902.20170	0.00095
2900.27332	0.00129
2898.34495	0.00120
2896.41658	0.00083
2894.48820	0.00094
2892.55983	0.00109
2890.63146	0.00109
2888.70309	0.00103
2886.77471	0.00094
2884.84634	0.00089
2882.91797	0.00062
2880.98959	0.00032
2879.06122	0.00076
2877.13285	0.00111
2875.20447	0.00119
2873.27610	0.00110
2871.34773	0.00092
2869.41935	0.00073
2867.49098	0.00063
2865.56261	0.00058
2863.63423	0.00029
2861.70586	0.00054
2859.77749	0.00023
2857.84911	0.00055
2855.92074	0.00055
2853.99237	0.00066
2852.06399	0.00092
2850.13562	0.00102
2848.20725	0.00093
2846.27887	0.00096
2844.35050	0.00092
2842.42213	0.00071
2840.49375	0.00073
2838.56538	0.00085
2836.63701	0.00081
2834.70863	0.00058
2832.78026	0.00084
2830.85189	0.00119
2828.92352	0.00104
2826.99514	0.00067
2825.06677	0.00062
2823.13840	0.00080
2821.21002	0.00081
2819.28165	0.00053
2817.35328	0.00035
2815.42490	0.00042
2813.49653	0.00026
2811.56816	0.00078
2809.63978	0.00107
2807.71141	0.00082
2805.78304	0.00079
2803.85466	0.00122
2801.92629	0.00134
2799.99792	0.00125
2798.06954	0.00121
2796.14117	0.00115
2794.21280	0.00095
2792.28442	0.00067
2790.35605	0.00042
2788.42768	0.00035
2786.49930	0.00062
2784.57093	0.00051
2782.64256	0.00055
2780.71418	0.00044
2778.78581	0.00051
2776.85744	0.00084
2774.92907	0.00076
2773.00069	0.00039
2771.07232	0.00034
2769.14395	0.00021
2767.21557	0.00058
2765.28720	0.00114
2763.35883	0.00100
2761.43045	0.00043
2759.50208	0.00059
2757.57371	0.00100
2755.64533	0.00148
2753.71696	0.00137
2751.78859	0.00078
2749.86021	0.00032
2747.93184	0.00040
2746.00347	0.00060
2744.07509	0.00070
2742.14672	0.00086
2740.21835	0.00132
2738.28997	0.00164
2736.36160	0.00164
2734.43323	0.00130
2732.50485	0.00133
2730.57648	0.00176
2728.64811	0.00189
2726.71973	0.00182
2724.79136	0.00185
2722.86299	0.00172
2720.93461	0.00154
2719.00624	0.00173
2717.07787	0.00214
2715.14950	0.00229
2713.22112	0.00225
2711.29275	0.00222
2709.36438	0.00225
2707.43600	0.00228
2705.50763	0.00203
2703.57926	0.00172
2701.65088	0.00185
2699.72251	0.00197
2697.79414	0.00174
2695.86576	0.00174
2693.93739	0.00214
2692.00902	0.00246
2690.08064	0.00235
2688.15227	0.00228
2686.22390	0.00252
2684.29552	0.00264
2682.36715	0.00245
2680.43878	0.00228
2678.51040	0.00245
2676.58203	0.00278
2674.65366	0.00286
2672.72528	0.00283
2670.79691	0.00297
2668.86854	0.00313
2666.94016	0.00319
2665.01179	0.00326
2663.08342	0.00335
2661.15505	0.00353
2659.22667	0.00390
2657.29830	0.00421
2655.36993	0.00420
2653.44155	0.00413
2651.51318	0.00439
2649.58481	0.00480
2647.65643	0.00506
2645.72806	0.00522
2643.79969	0.00531
2641.87131	0.00541
2639.94294	0.00548
2638.01457	0.00537
2636.08619	0.00530
2634.15782	0.00564
2632.22945	0.00614
2630.30107	0.00630
2628.37270	0.00632
2626.44433	0.00675
2624.51595	0.00744
2622.58758	0.00797
2620.65921	0.00823
2618.73083	0.00845
2616.80246	0.00883
2614.87409	0.00936
2612.94571	0.00998
2611.01734	0.01059
2609.08897	0.01102
2607.16059	0.01116
2605.23222	0.01122
2603.30385	0.01140
2601.37548	0.01179
2599.44710	0.01254
2597.51873	0.01339
2595.59036	0.01388
2593.66198	0.01402
2591.73361	0.01419
2589.80524	0.01447
2587.87686	0.01478
2585.94849	0.01522
2584.02012	0.01588
2582.09174	0.01649
2580.16337	0.01694
2578.23500	0.01751
2576.30662	0.01823
2574.37825	0.01871
2572.44988	0.01893
2570.52150	0.01921
2568.59313	0.01968
2566.66476	0.02027
2564.73638	0.02081
2562.80801	0.02120
2560.87964	0.02156
2558.95126	0.02198
2557.02289	0.02250
2555.09452	0.02305
2553.16614	0.02349
2551.23777	0.02383
2549.30940	0.02421
2547.38103	0.02475
2545.45265	0.02540
2543.52428	0.02599
2541.59591	0.02654
2539.66753	0.02714
2537.73916	0.02786
2535.81079	0.02848
2533.88241	0.02882
2531.95404	0.02916
2530.02567	0.02970
2528.09729	0.03018
2526.16892	0.03040
2524.24055	0.03069
2522.31217	0.03152
2520.38380	0.03255
2518.45543	0.03333
2516.52705	0.03385
2514.59868	0.03421
2512.67031	0.03469
2510.74193	0.03545
2508.81356	0.03628
2506.88519	0.03692
2504.95681	0.03728
2503.02844	0.03762
2501.10007	0.03821
2499.17169	0.03883
2497.24332	0.03937
2495.31495	0.03988
2493.38657	0.04054
2491.45820	0.04138
2489.52983	0.04210
2487.60146	0.04260
2485.67308	0.04303
2483.74471	0.04351
2481.81634	0.04404
2479.88796	0.04456
2477.95959	0.04521
2476.03122	0.04599
2474.10284	0.04652
2472.17447	0.04694
2470.24610	0.04767
2468.31772	0.04861
2466.38935	0.04952
2464.46098	0.05038
2462.53260	0.05131
2460.60423	0.05246
2458.67586	0.05371
2456.74748	0.05475
2454.81911	0.05574
2452.89074	0.05688
2450.96236	0.05796
2449.03399	0.05874
2447.10562	0.05926
2445.17724	0.06006
2443.24887	0.06130
2441.32050	0.06237
2439.39212	0.06308
2437.46375	0.06376
2435.53538	0.06461
2433.60700	0.06556
2431.67863	0.06650
2429.75026	0.06758
2427.82189	0.06875
2425.89351	0.06977
2423.96514	0.07070
2422.03677	0.07169
2420.10839	0.07268
2418.18002	0.07358
2416.25165	0.07453
2414.32327	0.07553
2412.39490	0.07644
2410.46653	0.07742
2408.53815	0.07869
2406.60978	0.08000
2404.68141	0.08107
2402.75303	0.08204
2400.82466	0.08319
2398.89629	0.08450
2396.96791	0.08572
2395.03954	0.08688
2393.11117	0.08809
2391.18279	0.08911
2389.25442	0.09009
2387.32605	0.09152
2385.39767	0.09313
2383.46930	0.09448
2381.54093	0.09591
2379.61255	0.09750
2377.68418	0.09902
2375.75581	0.10091
2373.82744	0.10316
2371.89906	0.10528
2369.97069	0.10755
2368.04232	0.10956
2366.11394	0.11069
2364.18557	0.11161
2362.25720	0.11283
2360.32882	0.11455
2358.40045	0.11601
2356.47208	0.11646
2354.54370	0.11697
2352.61533	0.11810
2350.68696	0.11893
2348.75858	0.11928
2346.83021	0.11956
2344.90184	0.12014
2342.97346	0.12139
2341.04509	0.12308
2339.11672	0.12448
2337.18834	0.12512
2335.25997	0.12559
2333.33160	0.12652
2331.40322	0.12743
2329.47485	0.12821
2327.54648	0.12910
2325.61810	0.12971
2323.68973	0.13016
2321.76136	0.13084
2319.83298	0.13148
2317.90461	0.13213
2315.97624	0.13328
2314.04787	0.13461
2312.11949	0.13550
2310.19112	0.13621
2308.26275	0.13710
2306.33437	0.13813
2304.40600	0.13931
2302.47763	0.14074
2300.54925	0.14219
2298.62088	0.14342
2296.69251	0.14450
2294.76413	0.14559
2292.83576	0.14676
2290.90739	0.14788
2288.97901	0.14882
2287.05064	0.14982
2285.12227	0.15106
2283.19389	0.15246
2281.26552	0.15382
2279.33715	0.15491
2277.40877	0.15569
2275.48040	0.15651
2273.55203	0.15768
2271.62365	0.15906
2269.69528	0.16036
2267.76691	0.16133
2265.83853	0.16212
2263.91016	0.16312
2261.98179	0.16432
2260.05342	0.16535
2258.12504	0.16619
2256.19667	0.16706
2254.26830	0.16808
2252.33992	0.16923
2250.41155	0.17030
2248.48318	0.17134
2246.55480	0.17238
2244.62643	0.17323
2242.69806	0.17393
2240.76968	0.17466
2238.84131	0.17538
2236.91294	0.17620
2234.98456	0.17719
2233.05619	0.17806
2231.12782	0.17864
2229.19944	0.17904
2227.27107	0.17936
2225.34270	0.17979
2223.41432	0.18053
2221.48595	0.18158
2219.55758	0.18275
2217.62920	0.18380
2215.70083	0.18458
2213.77246	0.18516
2211.84408	0.18586
2209.91571	0.18682
2207.98734	0.18796
2206.05896	0.18912
2204.13059	0.19013
2202.20222	0.19094
2200.27385	0.19174
2198.34547	0.19276
2196.41710	0.19376
2194.48873	0.19443
2192.56035	0.19500
2190.63198	0.19573
2188.70361	0.19667
2186.77523	0.19771
2184.84686	0.19859
2182.91849	0.19918
2180.99011	0.19960
2179.06174	0.20015
2177.13337	0.20086
2175.20499	0.20133
2173.27662	0.20149
2171.34825	0.20163
2169.41987	0.20183
2167.49150	0.20213
2165.56313	0.20255
2163.63475	0.20301
2161.70638	0.20342
2159.77801	0.20382
2157.84963	0.20423
2155.92126	0.20465
2153.99289	0.20522
2152.06451	0.20593
2150.13614	0.20665
2148.20777	0.20734
2146.27940	0.20797
2144.35102	0.20864
2142.42265	0.20945
2140.49428	0.21031
2138.56590	0.21122
2136.63753	0.21229
2134.70916	0.21338
2132.78078	0.21433
2130.85241	0.21529
2128.92404	0.21626
2126.99566	0.21727
2125.06729	0.21856
2123.13892	0.22005
2121.21054	0.22138
2119.28217	0.22238
2117.35380	0.22330
2115.42542	0.22441
2113.49705	0.22553
2111.56868	0.22646
2109.64030	0.22735
2107.71193	0.22827
2105.78356	0.22909
2103.85518	0.22985
2101.92681	0.23070
2099.99844	0.23156
2098.07006	0.23246
2096.14169	0.23338
2094.21332	0.23404
2092.28494	0.23456
2090.35657	0.23530
2088.42820	0.23609
2086.49983	0.23661
2084.57145	0.23705
2082.64308	0.23754
2080.71471	0.23799
2078.78633	0.23836
2076.85796	0.23865
2074.92959	0.23874
2073.00121	0.23856
2071.07284	0.23828
2069.14447	0.23823
2067.21609	0.23847
2065.28772	0.23874
2063.35935	0.23891
2061.43097	0.23907
2059.50260	0.23937
2057.57423	0.23983
2055.64585	0.24019
2053.71748	0.24042
2051.78911	0.24079
2049.86073	0.24144
2047.93236	0.24212
2046.00399	0.24266
2044.07561	0.24310
2042.14724	0.24349
2040.21887	0.24397
2038.29049	0.24455
2036.36212	0.24510
2034.43375	0.24546
2032.50538	0.24558
2030.57700	0.24569
2028.64863	0.24598
2026.72026	0.24633
2024.79188	0.24657
2022.86351	0.24663
2020.93514	0.24664
2019.00676	0.24683
2017.07839	0.24716
2015.15002	0.24747
2013.22164	0.24767
2011.29327	0.24778
2009.36490	0.24787
2007.43652	0.24806
2005.50815	0.24842
2003.57978	0.24892
2001.65140	0.24945
1999.72303	0.24996
1997.79466	0.25028
1995.86628	0.25038
1993.93791	0.25070
1992.00954	0.25128
1990.08116	0.25156
1988.15279	0.25151
1986.22442	0.25147
1984.29604	0.25137
1982.36767	0.25116
1980.43930	0.25113
1978.51092	0.25141
1976.58255	0.25183
1974.65418	0.25226
1972.72581	0.25266
1970.79743	0.25299
1968.86906	0.25342
1966.94069	0.25384
1965.01231	0.25396
1963.08394	0.25387
1961.15557	0.25387
1959.22719	0.25400
1957.29882	0.25419
1955.37045	0.25441
1953.44207	0.25449
1951.51370	0.25443
1949.58533	0.25444
1947.65695	0.25451
1945.72858	0.25451
1943.80021	0.25429
1941.87183	0.25373
1939.94346	0.25297
1938.01509	0.25223
1936.08671	0.25147
1934.15834	0.25079
1932.22997	0.25019
1930.30159	0.24966
1928.37322	0.24931
1926.44485	0.24905
1924.51647	0.24876
1922.58810	0.24850
1920.65973	0.24825
1918.73135	0.24785
1916.80298	0.24725
1914.87461	0.24666
1912.94624	0.24645
1911.01786	0.24668
1909.08949	0.24678
1907.16112	0.24623
1905.23274	0.24540
1903.30437	0.24489
1901.37600	0.24459
1899.44762	0.24408
1897.51925	0.24337
1895.59088	0.24265
1893.66250	0.24196
1891.73413	0.24138
1889.80576	0.24066
1887.87738	0.23921
1885.94901	0.23738
1884.02064	0.23581
1882.09226	0.23434
1880.16389	0.23271
1878.23552	0.23103
1876.30714	0.22939
1874.37877	0.22789
1872.45040	0.22679
1870.52202	0.22608
1868.59365	0.22501
1866.66528	0.22304
1864.73690	0.22085
1862.80853	0.21892
1860.88016	0.21707
1858.95179	0.21540
1857.02341	0.21405
1855.09504	0.21278
1853.16667	0.21148
1851.23829	0.21038
1849.30992	0.20963
1847.38155	0.20902
1845.45317	0.20822
1843.52480	0.20683
1841.59643	0.20515
1839.66805	0.20375
1837.73968	0.20252
1835.81131	0.20125
1833.88293	0.20003
1831.95456	0.19909
1830.02619	0.19808
1828.09781	0.19650
1826.16944	0.19465
1824.24107	0.19244
1822.31269	0.18980
1820.38432	0.18712
1818.45595	0.18450
1816.52757	0.18181
1814.59920	0.17905
1812.67083	0.17628
1810.74245	0.17303
1808.81408	0.16890
1806.88571	0.16430
1804.95733	0.15985
1803.02896	0.15566
1801.10059	0.15116
1799.17222	0.14608
1797.24384	0.14103
1795.31547	0.13645
1793.38710	0.13166
1791.45872	0.12587
1789.53035	0.12006
1787.60198	0.11482
1785.67360	0.10973
1783.74523	0.10485
1781.81686	0.10018
1779.88848	0.09531
1777.96011	0.09061
1776.03174	0.08652
1774.10336	0.08236
1772.17499	0.07694
1770.24662	0.07092
1768.31824	0.06550
1766.38987	0.06034
1764.46150	0.05543
1762.53312	0.04989
1760.60475	0.04354
1758.67638	0.03758
1756.74800	0.03142
1754.81963	0.02531
1752.89126	0.01999
1750.96288	0.01459
1749.03451	0.00936
1747.10614	0.00574
1745.17777	0.00356
1743.24939	0.00219
1741.32102	0.00114
1739.39265	0.00046
1737.46427	0.00077
1735.53590	0.00077
1733.60753	0.00049
1731.67915	0.00067
1729.75078	0.00073
1727.82241	0.00052
1725.89403	0.00060
1723.96566	0.00047
1722.03729	0.00056
1720.10891	0.00076
1718.18054	0.00117
1716.25217	0.00098
1714.32379	0.00072
1712.39542	0.00056
1710.46705	0.00053
1708.53867	0.00065
1706.61030	0.00071
1704.68193	0.00079
1702.75355	0.00096
1700.82518	0.00139
1698.89681	0.00143
1696.96843	0.00110
1695.04006	0.00111
1693.11169	0.00117
1691.18331	0.00106
1689.25494	0.00083
1687.32657	0.00040
1685.39820	0.00070
1683.46982	0.00118
1681.54145	0.00089
1679.61308	0.00078
1677.68470	0.00085
1675.75633	0.00098
1673.82796	0.00071
1671.89958	0.00059
1669.97121	0.00069
1668.04284	0.00070
1666.11446	0.00085
1664.18609	0.00103
1662.25772	0.00094
1660.32934	0.00088
1658.40097	0.00078
1656.47260	0.00076
1654.54422	0.00114
1652.61585	0.00104
1650.68748	0.00062
1648.75910	0.00085
1646.83073	0.00089
1644.90236	0.00104
1642.97398	0.00096
1641.04561	0.00063
1639.11724	0.00022
1637.18886	0.00055
1635.26049	0.00075
1633.33212	0.00073
1631.40375	0.00046
1629.47537	0.00064
1627.54700	0.00074
1625.61863	0.00042
1623.69025	0.00034
1621.76188	0.00049
1619.83351	0.00080
1617.90513	0.00106
1615.97676	0.00094
1614.04839	0.00047
1612.12001	0.00066
1610.19164	0.00067
1608.26327	0.00059
1606.33489	0.00050
1604.40652	0.00060
1602.47815	0.00056
1600.54977	0.00054
1598.62140	0.00053
1596.69303	0.00056
1594.76465	0.00066
1592.83628	0.00085
1590.90791	0.00081
1588.97953	0.00079
1587.05116	0.00051
1585.12279	0.00031
1583.19441	0.00049
1581.26604	0.00069
1579.33767	0.00079
1577.40929	0.00059
1575.48092	0.00086
1573.55255	0.00109
1571.62418	0.00097
1569.69580	0.00087
1567.76743	0.00065
1565.83906	0.00052
1563.91068	0.00067
1561.98231	0.00087
1560.05394	0.00131
1558.12556	0.00173
1556.19719	0.00136
1554.26882	0.00109
1552.34044	0.00060
1550.41207	0.00032
1548.48370	0.00046
1546.55532	0.00060
1544.62695	0.00066
1542.69858	0.00080
1540.77020	0.00096
1538.84183	0.00096
1536.91346	0.00093
1534.98508	0.00097
1533.05671	0.00091
1531.12834	0.00065
1529.19996	0.00051
1527.27159	0.00077
1525.34322	0.00102
1523.41484	0.00078
1521.48647	0.00050
1519.55810	0.00052
1517.62972	0.00047
1515.70135	0.00051
1513.77298	0.00027
1511.84461	0.00048
1509.91623	0.00085
1507.98786	0.00098
1506.05949	0.00102
1504.13111	0.00081
1502.20274	0.00072
1500.27437	0.00084
1498.34599	0.00086
1496.41762	0.00131
1494.48925	0.00126
1492.56087	0.00093
1490.63250	0.00084
1488.70413	0.00094
1486.77575	0.00101
1484.84738	0.00098
1482.91901	0.00094
1480.99063	0.00083
1479.06226	0.00062
1477.13389	0.00054
1475.20551	0.00069
1473.27714	0.00057
1471.34877	0.00067
1469.42039	0.00087
1467.49202	0.00091
1465.56365	0.00095
1463.63527	0.00099
1461.70690	0.00080
1459.77853	0.00075
1457.85016	0.00084
1455.92178	0.00061
1453.99341	0.00062
1452.06504	0.00074
1450.13666	0.00070
1448.20829	0.00058
1446.27992	0.00069
1444.35154	0.00070
1442.42317	0.00062
1440.49480	0.00056
1438.56642	0.00074
1436.63805	0.00090
1434.70968	0.00070
1432.78130	0.00059
1430.85293	0.00044
1428.92456	0.00041
1426.99618	0.00030
1425.06781	0.00048
1423.13944	0.00066
1421.21106	0.00051
1419.28269	0.00077
1417.35432	0.00077
1415.42594	0.00056
1413.49757	0.00062
1411.56920	0.00071
1409.64082	0.00046
1407.71245	0.00035
1405.78408	0.00042
1403.85570	0.00064
1401.92733	0.00062
1399.99896	0.00074
1398.07059	0.00099
1396.14221	0.00087
1394.21384	0.00067
1392.28547	0.00086
1390.35709	0.00076
1388.42872	0.00068
1386.50035	0.00075
1384.57197	0.00055
1382.64360	0.00062
1380.71523	0.00070
1378.78685	0.00083
1376.85848	0.00082
1374.93011	0.00033
1373.00173	0.00048
1371.07336	0.00038
1369.14499	0.00031
1367.21661	0.00043
1365.28824	0.00073
1363.35987	0.00098
1361.43149	0.00064
1359.50312	0.00074
1357.57475	0.00085
1355.64637	0.00076
1353.71800	0.00041
1351.78963	0.00040
1349.86125	0.00082
1347.93288	0.00107
1346.00451	0.00101
1344.07614	0.00088
1342.14776	0.00093
1340.21939	0.00071
1338.29102	0.00052
1336.36264	0.00057
1334.43427	0.00050
1332.50590	0.00039
1330.57752	0.00079
1328.64915	0.00113
1326.72078	0.00122
1324.79240	0.00105
1322.86403	0.00095
1320.93566	0.00090
1319.00728	0.00059
1317.07891	0.00086
1315.15054	0.00111
1313.22216	0.00083
1311.29379	0.00078
1309.36542	0.00114
1307.43704	0.00115
1305.50867	0.00097
1303.58030	0.00102
1301.65192	0.00068
1299.72355	0.00023
1297.79518	0.00070
1295.86680	0.00092
1293.93843	0.00096
1292.01006	0.00126
1290.08168	0.00124
1288.15331	0.00104
1286.22494	0.00113
1284.29657	0.00089
1282.36819	0.00066
1280.43982	0.00124
1278.51145	0.00167
1276.58307	0.00199
1274.65470	0.00165
1272.72633	0.00115
1270.79795	0.00075
1268.86958	0.00053
1266.94121	0.00102
1265.01283	0.00158
1263.08446	0.00133
1261.15609	0.00059
1259.22771	0.00080
1257.29934	0.00088
1255.37097	0.00128
1253.44259	0.00140
1251.51422	0.00120
1249.58585	0.00117
1247.65747	0.00130
1245.72910	0.00150
1243.80073	0.00174
1241.87235	0.00198
1239.94398	0.00175
1238.01561	0.00125
1236.08723	0.00106
1234.15886	0.00154
1232.23049	0.00234
1230.30212	0.00322
1228.37374	0.00371
1226.44537	0.00314
1224.51700	0.00205
1222.58862	0.00197
1220.66025	0.00272
1218.73188	0.00400
1216.80350	0.00428
1214.87513	0.00351
1212.94676	0.00301
1211.01838	0.00344
1209.09001	0.00367
1207.16164	0.00353
1205.23326	0.00378
1203.30489	0.00434
1201.37652	0.00472
1199.44814	0.00510
1197.51977	0.00569
1195.59140	0.00663
1193.66302	0.00750
1191.73465	0.00768
1189.80628	0.00748
1187.87790	0.00726
1185.94953	0.00712
1184.02116	0.00726
1182.09278	0.00750
1180.16441	0.00751
1178.23604	0.00697
1176.30766	0.00549
1174.37929	0.00360
1172.45092	0.00231
1170.52255	0.00193
1168.59417	0.00203
1166.66580	0.00206
1164.73743	0.00125
1162.80905	0.00074
1160.88068	0.00104
1158.95231	0.00108
1157.02393	0.00187
1155.09556	0.00201
1153.16719	0.00188
1151.23881	0.00239
1149.31044	0.00306
1147.38207	0.00355
1145.45369	0.00426
1143.52532	0.00488
1141.59695	0.00460
1139.66857	0.00356
1137.74020	0.00238
1135.81183	0.00183
1133.88345	0.00160
1131.95508	0.00088
1130.02671	0.00034
1128.09833	0.00059
1126.16996	0.00143
1124.24159	0.00151
1122.31321	0.00096
1120.38484	0.00089
1118.45647	0.00066
1116.52809	0.00133
1114.59972	0.00202
1112.67135	0.00145
1110.74298	0.00091
1108.81460	0.00103
1106.88623	0.00106
1104.95786	0.00148
1103.02948	0.00170
1101.10111	0.00133
1099.17274	0.00123
1097.24436	0.00141
1095.31599	0.00125
1093.38762	0.00120
1091.45924	0.00205
1089.53087	0.00198
1087.60250	0.00156
1085.67412	0.00115
1083.74575	0.00123
1081.81738	0.00172
1079.88900	0.00128
1077.96063	0.00129
1076.03226	0.00165
1074.10388	0.00170
1072.17551	0.00144
1070.24714	0.00114
1068.31876	0.00162
1066.39039	0.00224
1064.46202	0.00170
1062.53364	0.00076
1060.60527	0.00054
1058.67690	0.00088
1056.74853	0.00122
1054.82015	0.00185
1052.89178	0.00262
1050.96341	0.00306
1049.03503	0.00298
1047.10666	0.00231
1045.17829	0.00172
1043.24991	0.00221
1041.32154	0.00269
1039.39317	0.00200
1037.46479	0.00119
1035.53642	0.00067
1033.60805	0.00062
1031.67967	0.00042
1029.75130	0.00091
1027.82293	0.00126
1025.89455	0.00146
1023.96618	0.00166
1022.03781	0.00183
1020.10943	0.00199
1018.18106	0.00163
1016.25269	0.00099
1014.32431	0.00195
1012.39594	0.00289
1010.46757	0.00271
1008.53919	0.00193
1006.61082	0.00234
1004.68245	0.00248
1002.75407	0.00278
1000.82570	0.00331
998.89733	0.00383
996.96896	0.00395
995.04058	0.00394
993.11221	0.00446
991.18384	0.00509
989.25546	0.00591
987.32709	0.00719
985.39872	0.00848
983.47034	0.00930
981.54197	0.00963
979.61360	0.00972
977.68522	0.00986
975.75685	0.01023
973.82848	0.01158
971.90010	0.01430
969.97173	0.01783
968.04336	0.02115
966.11498	0.02383
964.18661	0.02586
962.25824	0.02631
960.32986	0.02408
958.40149	0.01962
956.47312	0.01546
954.54474	0.01423
952.61637	0.01581
950.68800	0.01812
948.75962	0.02069
946.83125	0.02406
944.90288	0.02703
942.97451	0.02868
941.04613	0.03016
939.11776	0.03192
937.18939	0.03300
935.26101	0.03307
933.33264	0.03285
931.40427	0.03280
929.47589	0.03283
927.54752	0.03243
925.61915	0.03127
923.69077	0.02970
921.76240	0.02798
919.83403	0.02656
917.90565	0.02605
915.97728	0.02612
914.04891	0.02591
912.12053	0.02517
910.19216	0.02413
908.26379	0.02271
906.33541	0.02067
904.40704	0.01805
902.47867	0.01538
900.55029	0.01362
898.62192	0.01279
896.69355	0.01168
894.76517	0.01007
892.83680	0.00917
890.90843	0.00908
888.98005	0.00838
887.05168	0.00727
885.12331	0.00673
883.19494	0.00687
881.26656	0.00718
879.33819	0.00753
877.40982	0.00817
875.48144	0.00865
873.55307	0.00845
871.62470	0.00824
869.69632	0.00874
867.76795	0.00870
865.83958	0.00790
863.91120	0.00733
861.98283	0.00687
860.05446	0.00604
858.12608	0.00554
856.19771	0.00623
854.26934	0.00720
852.34096	0.00670
850.41259	0.00517
848.48422	0.00438
846.55584	0.00430
844.62747	0.00423
842.69910	0.00405
840.77072	0.00422
838.84235	0.00476
836.91398	0.00526
834.98560	0.00480
833.05723	0.00341
831.12886	0.00293
829.20049	0.00411
827.27211	0.00523
825.34374	0.00588
823.41537	0.00565
821.48699	0.00398
819.55862	0.00221
817.63025	0.00204
815.70187	0.00322
813.77350	0.00397
811.84513	0.00407
809.91675	0.00369
807.98838	0.00346
806.06001	0.00322
804.13163	0.00256
802.20326	0.00172
800.27489	0.00207
798.34651	0.00214
796.41814	0.00183
794.48977	0.00226
792.56139	0.00246
790.63302	0.00197
788.70465	0.00171
786.77627	0.00134
784.84790	0.00136
782.91953	0.00201
780.99115	0.00198
779.06278	0.00136
777.13441	0.00197
775.20603	0.00215
773.27766	0.00207
771.34929	0.00165
769.42092	0.00148
767.49254	0.00117
765.56417	0.00181
763.63580	0.00220
761.70742	0.00155
759.77905	0.00079
757.85068	0.00075
755.92230	0.00238
753.99393	0.00306
752.06556	0.00287
750.13718	0.00324
748.20881	0.00330
746.28044	0.00242
744.35206	0.00165
742.42369	0.00194
740.49532	0.00199
738.56694	0.00172
736.63857	0.00203
734.71020	0.00227
732.78182	0.00237
730.85345	0.00331
728.92508	0.00370
726.99670	0.00322
725.06833	0.00317
723.13996	0.00387
721.21158	0.00387
719.28321	0.00270
717.35484	0.00153
715.42647	0.00214
713.49809	0.00257
711.56972	0.00245
709.64135	0.00221
707.71297	0.00175
705.78460	0.00160
703.85623	0.00222
701.92785	0.00255
699.99948	0.00218
698.07111	0.00150
696.14273	0.00256
694.21436	0.00429
692.28599	0.00399
690.35761	0.00349
688.42924	0.00346
686.50087	0.00309
684.57249	0.00321
682.64412	0.00178
680.71575	0.00227
678.78737	0.00267
676.85900	0.00336
674.93063	0.00463
673.00225	0.00576
671.07388	0.00696
669.14551	0.00846
667.21713	0.00711
665.28876	0.00407
663.36039	0.00455
661.43201	0.00631
659.50364	0.00567
657.57527	0.00322
655.64690	0.00212
653.71852	0.00274
651.79015	0.00347
649.86178	0.00682
647.93340	0.00671
646.00503	0.00571
644.07666	0.00729
642.14828	0.00613
640.21991	0.00475
638.29154	0.00572
636.36316	0.00570
634.43479	0.00447
632.50642	0.00411
630.57804	0.00657
628.64967	0.01114
626.72130	0.01203
624.79292	0.00903
622.86455	0.00827
620.93618	0.01166
619.00780	0.01427
617.07943	0.01341
615.15106	0.00897
613.22268	0.00682
611.29431	0.00747
609.36594	0.01004
607.43756	0.01070
605.50919	0.01310
603.58082	0.01254
601.65244	0.00915
599.72407	0.01121
