3997.51769	0.14483
3995.58931	0.14472
3993.66094	0.14480
3991.73257	0.14459
3989.80419	0.14414
3987.87582	0.14396
3985.94745	0.14419
3984.01907	0.14465
3982.09070	0.14507
3980.16233	0.14526
3978.23396	0.14543
3976.30558	0.14597
3974.37721	0.14638
3972.44884	0.14599
3970.52046	0.14535
3968.59209	0.14496
3966.66372	0.14487
3964.73534	0.14527
3962.80697	0.14579
3960.87860	0.14596
3958.95022	0.14625
3957.02185	0.14705
3955.09348	0.14792
3953.16510	0.14853
3951.23673	0.14881
3949.30836	0.14882
3947.37998	0.14858
3945.45161	0.14829
3943.52324	0.14842
3941.59486	0.14927
3939.66649	0.15026
3937.73812	0.15062
3935.80974	0.15052
3933.88137	0.15045
3931.95300	0.15030
3930.02462	0.15005
3928.09625	0.15019
3926.16788	0.15075
3924.23950	0.15134
3922.31113	0.15186
3920.38276	0.15246
3918.45439	0.15271
3916.52601	0.15214
3914.59764	0.15163
3912.66927	0.15201
3910.74089	0.15299
3908.81252	0.15407
3906.88415	0.15504
3904.95577	0.15582
3903.02740	0.15646
3901.09903	0.15716
3899.17065	0.15746
3897.24228	0.15693
3895.31391	0.15657
3893.38553	0.15695
3891.45716	0.15727
3889.52879	0.15706
3887.60041	0.15735
3885.67204	0.15849
3883.74367	0.15960
3881.81529	0.16026
3879.88692	0.16043
3877.95855	0.16031
3876.03017	0.16050
3874.10180	0.16091
3872.17343	0.16144
3870.24505	0.16195
3868.31668	0.16194
3866.38831	0.16214
3864.45994	0.16293
3862.53156	0.16332
3860.60319	0.16334
3858.67482	0.16365
3856.74644	0.16403
3854.81807	0.16438
3852.88970	0.16510
3850.96132	0.16538
3849.03295	0.16485
3847.10458	0.16423
3845.17620	0.16413
3843.24783	0.16455
3841.31946	0.16537
3839.39108	0.16659
3837.46271	0.16707
3835.53434	0.16633
3833.60596	0.16578
3831.67759	0.16573
3829.74922	0.16567
3827.82084	0.16567
3825.89247	0.16565
3823.96410	0.16584
3822.03572	0.16664
3820.10735	0.16703
3818.17898	0.16657
3816.25060	0.16578
3814.32223	0.16474
3812.39386	0.16448
3810.46548	0.16507
3808.53711	0.16584
3806.60874	0.16628
3804.68037	0.16631
3802.75199	0.16666
3800.82362	0.16732
3798.89525	0.16718
3796.96687	0.16626
3795.03850	0.16517
3793.11013	0.16472
3791.18175	0.16483
3789.25338	0.16494
3787.32501	0.16505
3785.39663	0.16516
3783.46826	0.16497
3781.53989	0.16470
3779.61151	0.16477
3777.68314	0.16482
3775.75477	0.16429
3773.82639	0.16372
3771.89802	0.16374
3769.96965	0.16407
3768.04127	0.16418
3766.11290	0.16394
3764.18453	0.16326
3762.25615	0.16295
3760.32778	0.16341
3758.39941	0.16355
3756.47103	0.16319
3754.54266	0.16323
3752.61429	0.16367
3750.68591	0.16376
3748.75754	0.16340
3746.82917	0.16363
3744.90080	0.16408
3742.97242	0.16333
3741.04405	0.16208
3739.11568	0.16163
3737.18730	0.16230
3735.25893	0.16311
3733.33056	0.16208
3731.40218	0.15992
3729.47381	0.15843
3727.54544	0.15770
3725.61706	0.15709
3723.68869	0.15632
3721.76032	0.15556
3719.83194	0.15467
3717.90357	0.15349
3715.97520	0.15253
3714.04682	0.15224
3712.11845	0.15216
3710.19008	0.15100
3708.26170	0.14896
3706.33333	0.14699
3704.40496	0.14537
3702.47658	0.14401
3700.54821	0.14232
3698.61984	0.14042
3696.69146	0.13873
3694.76309	0.13705
3692.83472	0.13544
3690.90635	0.13385
3688.97797	0.13087
3687.04960	0.12631
3685.12123	0.12229
3683.19285	0.11887
3681.26448	0.11537
3679.33611	0.11201
3677.40773	0.10904
3675.47936	0.10497
3673.55099	0.09998
3671.62261	0.09596
3669.69424	0.09116
3667.76587	0.08558
3665.83749	0.08098
3663.90912	0.07679
3661.98075	0.07266
3660.05237	0.06876
3658.12400	0.06481
3656.19563	0.06024
3654.26725	0.05633
3652.33888	0.05404
3650.41051	0.05166
3648.48213	0.04700
3646.55376	0.04179
3644.62539	0.03822
3642.69701	0.03570
3640.76864	0.03330
3638.84027	0.03057
3636.91189	0.02779
3634.98352	0.02542
3633.05515	0.02327
3631.12678	0.02107
3629.19840	0.01888
3627.27003	0.01739
3625.34166	0.01630
3623.41328	0.01511
3621.48491	0.01419
3619.55654	0.01328
3617.62816	0.01193
3615.69979	0.01057
3613.77142	0.00948
3611.84304	0.00872
3609.91467	0.00831
3607.98630	0.00777
3606.05792	0.00669
3604.12955	0.00575
3602.20118	0.00542
3600.27280	0.00512
3598.34443	0.00455
3596.41606	0.00403
3594.48768	0.00380
3592.55931	0.00353
3590.63094	0.00322
3588.70256	0.00313
3586.77419	0.00284
3584.84582	0.00215
3582.91744	0.00150
3580.98907	0.00117
3579.06070	0.00113
3577.13233	0.00151
3575.20395	0.00180
3573.27558	0.00168
3571.34721	0.00153
3569.41883	0.00152
3567.49046	0.00165
3565.56209	0.00171
3563.63371	0.00122
3561.70534	0.00081
3559.77697	0.00063
3557.84859	0.00062
3555.92022	0.00090
3553.99185	0.00071
3552.06347	0.00079
3550.13510	0.00092
3548.20673	0.00072
3546.27835	0.00037
3544.34998	0.00050
3542.42161	0.00085
3540.49323	0.00082
3538.56486	0.00094
3536.63649	0.00130
3534.70811	0.00098
3532.77974	0.00075
3530.85137	0.00080
3528.92299	0.00060
3526.99462	0.00084
3525.06625	0.00082
3523.13787	0.00056
3521.20950	0.00083
3519.28113	0.00107
3517.35276	0.00096
3515.42438	0.00062
3513.49601	0.00028
3511.56764	0.00045
3509.63926	0.00073
3507.71089	0.00112
3505.78252	0.00130
3503.85414	0.00111
3501.92577	0.00121
3499.99740	0.00132
3498.06902	0.00076
3496.14065	0.00040
3494.21228	0.00087
3492.28390	0.00102
3490.35553	0.00097
3488.42716	0.00080
3486.49878	0.00050
3484.57041	0.00058
3482.64204	0.00057
3480.71366	0.00070
3478.78529	0.00104
3476.85692	0.00107
3474.92854	0.00088
3473.00017	0.00109
3471.07180	0.00088
3469.14342	0.00084
3467.21505	0.00095
3465.28668	0.00079
3463.35831	0.00063
3461.42993	0.00103
3459.50156	0.00075
3457.57319	0.00022
3455.64481	0.00036
3453.71644	0.00044
3451.78807	0.00055
3449.85969	0.00059
3447.93132	0.00092
3446.00295	0.00080
3444.07457	0.00036
3442.14620	0.00055
3440.21783	0.00056
3438.28945	0.00058
3436.36108	0.00082
3434.43271	0.00117
3432.50433	0.00106
3430.57596	0.00121
3428.64759	0.00149
3426.71921	0.00198
3424.79084	0.00152
3422.86247	0.00069
3420.93409	0.00081
3419.00572	0.00112
3417.07735	0.00080
3415.14897	0.00043
3413.22060	0.00070
3411.29223	0.00093
3409.36385	0.00107
3407.43548	0.00115
3405.50711	0.00091
3403.57874	0.00071
3401.65036	0.00067
3399.72199	0.00044
3397.79362	0.00040
3395.86524	0.00057
3393.93687	0.00037
3392.00850	0.00027
3390.08012	0.00085
3388.15175	0.00114
3386.22338	0.00103
3384.29500	0.00066
3382.36663	0.00068
3380.43826	0.00081
3378.50988	0.00066
3376.58151	0.00070
3374.65314	0.00100
3372.72476	0.00140
3370.79639	0.00145
3368.86802	0.00090
3366.93964	0.00054
3365.01127	0.00036
3363.08290	0.00031
3361.15452	0.00035
3359.22615	0.00077
3357.29778	0.00111
3355.36940	0.00095
3353.44103	0.00091
3351.51266	0.00083
3349.58428	0.00061
3347.65591	0.00053
3345.72754	0.00057
3343.79917	0.00077
3341.87079	0.00113
3339.94242	0.00123
3338.01405	0.00093
3336.08567	0.00059
3334.15730	0.00085
3332.22893	0.00129
3330.30055	0.00111
3328.37218	0.00075
3326.44381	0.00063
3324.51543	0.00053
3322.58706	0.00060
3320.65869	0.00073
3318.73031	0.00071
3316.80194	0.00035
3314.87357	0.00069
3312.94519	0.00045
3311.01682	0.00071
3309.08845	0.00049
3307.16007	0.00055
3305.23170	0.00122
3303.30333	0.00089
3301.37495	0.00059
3299.44658	0.00044
3297.51821	0.00049
3295.58983	0.00076
3293.66146	0.00096
3291.73309	0.00078
3289.80472	0.00053
3287.87634	0.00073
3285.94797	0.00118
3284.01960	0.00122
3282.09122	0.00090
3280.16285	0.00073
3278.23448	0.00084
3276.30610	0.00083
3274.37773	0.00037
3272.44936	0.00025
3270.52098	0.00052
3268.59261	0.00067
3266.66424	0.00111
3264.73586	0.00132
3262.80749	0.00077
3260.87912	0.00055
3258.95074	0.00100
3257.02237	0.00087
3255.09400	0.00096
3253.16562	0.00113
3251.23725	0.00114
3249.30888	0.00103
3247.38050	0.00073
3245.45213	0.00086
3243.52376	0.00061
3241.59538	0.00045
3239.66701	0.00052
3237.73864	0.00047
3235.81026	0.00049
3233.88189	0.00053
3231.95352	0.00046
3230.02515	0.00063
3228.09677	0.00114
3226.16840	0.00118
3224.24003	0.00088
3222.31165	0.00060
3220.38328	0.00079
3218.45491	0.00110
3216.52653	0.00101
3214.59816	0.00059
3212.66979	0.00021
3210.74141	0.00023
3208.81304	0.00048
3206.88467	0.00063
3204.95629	0.00058
3203.02792	0.00070
3201.09955	0.00056
3199.17117	0.00046
3197.24280	0.00052
3195.31443	0.00070
3193.38605	0.00059
3191.45768	0.00042
3189.52931	0.00035
3187.60093	0.00023
3185.67256	0.00019
3183.74419	0.00039
3181.81581	0.00050
3179.88744	0.00069
3177.95907	0.00075
3176.03070	0.00083
3174.10232	0.00079
3172.17395	0.00069
3170.24558	0.00062
3168.31720	0.00074
3166.38883	0.00114
3164.46046	0.00126
3162.53208	0.00107
3160.60371	0.00065
3158.67534	0.00035
3156.74696	0.00056
3154.81859	0.00074
3152.89022	0.00054
3150.96184	0.00061
3149.03347	0.00070
3147.10510	0.00097
3145.17672	0.00131
3143.24835	0.00140
3141.31998	0.00115
3139.39160	0.00078
3137.46323	0.00044
3135.53486	0.00027
3133.60648	0.00068
3131.67811	0.00093
3129.74974	0.00101
3127.82136	0.00109
3125.89299	0.00101
3123.96462	0.00084
3122.03624	0.00071
3120.10787	0.00094
3118.17950	0.00072
3116.25113	0.00024
3114.32275	0.00062
3112.39438	0.00083
3110.46601	0.00092
3108.53763	0.00094
3106.60926	0.00096
3104.68089	0.00084
3102.75251	0.00084
3100.82414	0.00076
3098.89577	0.00071
3096.96739	0.00070
3095.03902	0.00079
3093.11065	0.00103
3091.18227	0.00099
3089.25390	0.00090
3087.32553	0.00082
3085.39715	0.00068
3083.46878	0.00058
3081.54041	0.00065
3079.61203	0.00066
3077.68366	0.00059
3075.75529	0.00043
3073.82691	0.00048
3071.89854	0.00059
3069.97017	0.00094
3068.04179	0.00119
3066.11342	0.00121
3064.18505	0.00101
3062.25668	0.00083
3060.32830	0.00060
3058.39993	0.00084
3056.47156	0.00096
3054.54318	0.00101
3052.61481	0.00089
3050.68644	0.00038
3048.75806	0.00025
3046.82969	0.00033
3044.90132	0.00060
3042.97294	0.00067
3041.04457	0.00053
3039.11620	0.00079
3037.18782	0.00113
3035.25945	0.00110
3033.33108	0.00105
3031.40270	0.00110
3029.47433	0.00086
3027.54596	0.00065
3025.61758	0.00098
3023.68921	0.00092
3021.76084	0.00073
3019.83246	0.00070
3017.90409	0.00059
3015.97572	0.00059
3014.04734	0.00081
3012.11897	0.00113
3010.19060	0.00108
3008.26222	0.00102
3006.33385	0.00133
3004.40548	0.00139
3002.47711	0.00069
3000.54873	0.00022
2998.62036	0.00017
2996.69199	0.00019
2994.76361	0.00013
2992.83524	0.00023
2990.90687	0.00048
2988.97849	0.00056
2987.05012	0.00039
2985.12175	0.00082
2983.19337	0.00101
2981.26500	0.00126
2979.33663	0.00165
2977.40825	0.00164
2975.47988	0.00118
2973.55151	0.00097
2971.62313	0.00116
2969.69476	0.00120
2967.76639	0.00078
2965.83801	0.00056
2963.90964	0.00080
2961.98127	0.00141
2960.05289	0.00174
2958.12452	0.00126
2956.19615	0.00100
2954.26777	0.00145
2952.33940	0.00136
2950.41103	0.00109
2948.48266	0.00127
2946.55428	0.00127
2944.62591	0.00072
2942.69754	0.00091
2940.76916	0.00100
2938.84079	0.00116
2936.91242	0.00152
2934.98404	0.00151
2933.05567	0.00097
2931.12730	0.00120
2929.19892	0.00143
2927.27055	0.00094
2925.34218	0.00040
2923.41380	0.00037
2921.48543	0.00041
2919.55706	0.00023
2917.62868	0.00049
2915.70031	0.00080
2913.77194	0.00071
2911.84356	0.00081
2909.91519	0.00093
2907.98682	0.00072
2906.05844	0.00067
2904.13007	0.00043
2902.20170	0.00033
2900.27332	0.00095
2898.34495	0.00132
2896.41658	0.00109
2894.48820	0.00093
2892.55983	0.00114
2890.63146	0.00132
2888.70309	0.00101
2886.77471	0.00066
2884.84634	0.00086
2882.91797	0.00091
2880.98959	0.00140
2879.06122	0.00127
2877.13285	0.00070
2875.20447	0.00065
2873.27610	0.00080
2871.34773	0.00060
2869.41935	0.00036
2867.49098	0.00048
2865.56261	0.00091
2863.63423	0.00085
2861.70586	0.00055
2859.77749	0.00091
2857.84911	0.00080
2855.92074	0.00039
2853.99237	0.00049
2852.06399	0.00073
2850.13562	0.00057
2848.20725	0.00110
2846.27887	0.00149
2844.35050	0.00141
2842.42213	0.00096
2840.49375	0.00055
2838.56538	0.00070
2836.63701	0.00085
2834.70863	0.00065
2832.78026	0.00071
2830.85189	0.00076
2828.92352	0.00070
2826.99514	0.00067
2825.06677	0.00062
2823.13840	0.00045
2821.21002	0.00027
2819.28165	0.00037
2817.35328	0.00050
2815.42490	0.00043
2813.49653	0.00049
2811.56816	0.00042
2809.63978	0.00052
2807.71141	0.00043
2805.78304	0.00038
2803.85466	0.00022
2801.92629	0.00045
2799.99792	0.00049
2798.06954	0.00028
2796.14117	0.00077
2794.21280	0.00109
2792.28442	0.00074
2790.35605	0.00053
2788.42768	0.00080
2786.49930	0.00093
2784.57093	0.00099
2782.64256	0.00071
2780.71418	0.00025
2778.78581	0.00050
2776.85744	0.00066
2774.92907	0.00063
2773.00069	0.00050
2771.07232	0.00040
2769.14395	0.00029
2767.21557	0.00013
2765.28720	0.00041
2763.35883	0.00093
2761.43045	0.00141
2759.50208	0.00136
2757.57371	0.00084
2755.64533	0.00039
2753.71696	0.00056
2751.78859	0.00085
2749.86021	0.00100
2747.93184	0.00072
2746.00347	0.00032
2744.07509	0.00044
2742.14672	0.00079
2740.21835	0.00085
2738.28997	0.00068
2736.36160	0.00044
2734.43323	0.00052
2732.50485	0.00093
2730.57648	0.00082
2728.64811	0.00074
2726.71973	0.00102
2724.79136	0.00107
2722.86299	0.00075
2720.93461	0.00027
2719.00624	0.00068
2717.07787	0.00070
2715.14950	0.00060
2713.22112	0.00091
2711.29275	0.00092
2709.36438	0.00080
2707.43600	0.00073
2705.50763	0.00054
2703.57926	0.00055
2701.65088	0.00079
2699.72251	0.00082
2697.79414	0.00055
2695.86576	0.00040
2693.93739	0.00027
2692.00902	0.00023
2690.08064	0.00054
2688.15227	0.00076
2686.22390	0.00068
2684.29552	0.00032
2682.36715	0.00031
2680.43878	0.00035
2678.51040	0.00044
2676.58203	0.00064
2674.65366	0.00081
2672.72528	0.00068
2670.79691	0.00042
2668.86854	0.00077
2666.94016	0.00115
2665.01179	0.00119
2663.08342	0.00103
2661.15505	0.00092
2659.22667	0.00104
2657.29830	0.00115
2655.36993	0.00103
2653.44155	0.00075
2651.51318	0.00066
2649.58481	0.00072
2647.65643	0.00098
2645.72806	0.00105
2643.79969	0.00087
2641.87131	0.00074
2639.94294	0.00080
2638.01457	0.00073
2636.08619	0.00059
2634.15782	0.00063
2632.22945	0.00076
2630.30107	0.00088
2628.37270	0.00110
2626.44433	0.00120
2624.51595	0.00106
2622.58758	0.00104
2620.65921	0.00119
2618.73083	0.00115
2616.80246	0.00104
2614.87409	0.00143
2612.94571	0.00173
2611.01734	0.00165
2609.08897	0.00153
2607.16059	0.00166
2605.23222	0.00179
2603.30385	0.00170
2601.37548	0.00161
2599.44710	0.00165
2597.51873	0.00171
2595.59036	0.00200
2593.66198	0.00239
2591.73361	0.00241
2589.80524	0.00232
2587.87686	0.00265
2585.94849	0.00295
2584.02012	0.00287
2582.09174	0.00271
2580.16337	0.00269
2578.23500	0.00276
2576.30662	0.00294
2574.37825	0.00329
2572.44988	0.00345
2570.52150	0.00353
2568.59313	0.00373
2566.66476	0.00390
2564.73638	0.00398
2562.80801	0.00406
2560.87964	0.00425
2558.95126	0.00456
2557.02289	0.00478
2555.09452	0.00486
2553.16614	0.00489
2551.23777	0.00479
2549.30940	0.00473
2547.38103	0.00496
2545.45265	0.00523
2543.52428	0.00532
2541.59591	0.00518
2539.66753	0.00502
2537.73916	0.00515
2535.81079	0.00544
2533.88241	0.00574
2531.95404	0.00616
2530.02567	0.00640
2528.09729	0.00628
2526.16892	0.00608
2524.24055	0.00601
2522.31217	0.00616
2520.38380	0.00657
2518.45543	0.00693
2516.52705	0.00696
2514.59868	0.00683
2512.67031	0.00700
2510.74193	0.00739
2508.81356	0.00767
2506.88519	0.00781
2504.95681	0.00787
2503.02844	0.00796
2501.10007	0.00816
2499.17169	0.00838
2497.24332	0.00859
2495.31495	0.00892
2493.38657	0.00922
2491.45820	0.00931
2489.52983	0.00936
2487.60146	0.00946
2485.67308	0.00944
2483.74471	0.00933
2481.81634	0.00929
2479.88796	0.00941
2477.95959	0.00962
2476.03122	0.00968
2474.10284	0.00972
2472.17447	0.00998
2470.24610	0.01031
2468.31772	0.01070
2466.38935	0.01119
2464.46098	0.01163
2462.53260	0.01184
2460.60423	0.01199
2458.67586	0.01236
2456.74748	0.01284
2454.81911	0.01321
2452.89074	0.01351
2450.96236	0.01360
2449.03399	0.01355
2447.10562	0.01379
2445.17724	0.01429
2443.24887	0.01455
2441.32050	0.01458
2439.39212	0.01476
2437.46375	0.01513
2435.53538	0.01560
2433.60700	0.01601
2431.67863	0.01614
2429.75026	0.01612
2427.82189	0.01622
2425.89351	0.01641
2423.96514	0.01667
2422.03677	0.01704
2420.10839	0.01754
2418.18002	0.01805
2416.25165	0.01842
2414.32327	0.01872
2412.39490	0.01900
2410.46653	0.01916
2408.53815	0.01925
2406.60978	0.01951
2404.68141	0.02000
2402.75303	0.02051
2400.82466	0.02081
2398.89629	0.02099
2396.96791	0.02129
2395.03954	0.02168
2393.11117	0.02200
2391.18279	0.02240
2389.25442	0.02307
2387.32605	0.02371
2385.39767	0.02430
2383.46930	0.02489
2381.54093	0.02527
2379.61255	0.02561
2377.68418	0.02638
2375.75581	0.02712
2373.82744	0.02735
2371.89906	0.02746
2369.97069	0.02748
2368.04232	0.02723
2366.11394	0.02719
2364.18557	0.02812
2362.25720	0.03042
2360.32882	0.03232
2358.40045	0.03208
2356.47208	0.03094
2354.54370	0.03071
2352.61533	0.03116
2350.68696	0.03126
2348.75858	0.03087
2346.83021	0.03049
2344.90184	0.03063
2342.97346	0.03080
2341.04509	0.03052
2339.11672	0.03083
2337.18834	0.03201
2335.25997	0.03323
2333.33160	0.03363
2331.40322	0.03305
2329.47485	0.03269
2327.54648	0.03321
2325.61810	0.03371
2323.68973	0.03353
2321.76136	0.03307
2319.83298	0.03318
2317.90461	0.03407
2315.97624	0.03507
2314.04787	0.03559
2312.11949	0.03584
2310.19112	0.03627
2308.26275	0.03677
2306.33437	0.03709
2304.40600	0.03749
2302.47763	0.03818
2300.54925	0.03886
2298.62088	0.03927
2296.69251	0.03943
2294.76413	0.03959
2292.83576	0.03990
2290.90739	0.04027
2288.97901	0.04070
2287.05064	0.04105
2285.12227	0.04117
2283.19389	0.04143
2281.26552	0.04201
2279.33715	0.04250
2277.40877	0.04262
2275.48040	0.04265
2273.55203	0.04295
2271.62365	0.04349
2269.69528	0.04395
2267.76691	0.04420
2265.83853	0.04430
2263.91016	0.04441
2261.98179	0.04479
2260.05342	0.04532
2258.12504	0.04573
2256.19667	0.04604
2254.26830	0.04629
2252.33992	0.04655
2250.41155	0.04687
2248.48318	0.04719
2246.55480	0.04752
2244.62643	0.04793
2242.69806	0.04832
2240.76968	0.04850
2238.84131	0.04850
2236.91294	0.04861
2234.98456	0.04885
2233.05619	0.04914
2231.12782	0.04943
2229.19944	0.04972
2227.27107	0.04990
2225.34270	0.04994
2223.41432	0.05005
2221.48595	0.05037
2219.55758	0.05076
2217.62920	0.05105
2215.70083	0.05121
2213.77246	0.05136
2211.84408	0.05164
2209.91571	0.05196
2207.98734	0.05220
2206.05896	0.05250
2204.13059	0.05286
2202.20222	0.05311
2200.27385	0.05331
2198.34547	0.05349
2196.41710	0.05362
2194.48873	0.05386
2192.56035	0.05423
2190.63198	0.05463
2188.70361	0.05503
2186.77523	0.05530
2184.84686	0.05547
2182.91849	0.05566
2180.99011	0.05578
2179.06174	0.05577
2177.13337	0.05580
2175.20499	0.05597
2173.27662	0.05625
2171.34825	0.05649
2169.41987	0.05648
2167.49150	0.05628
2165.56313	0.05619
2163.63475	0.05633
2161.70638	0.05657
2159.77801	0.05692
2157.84963	0.05742
2155.92126	0.05786
2153.99289	0.05800
2152.06451	0.05781
2150.13614	0.05758
2148.20777	0.05766
2146.27940	0.05801
2144.35102	0.05836
2142.42265	0.05861
2140.49428	0.05885
2138.56590	0.05909
2136.63753	0.05932
2134.70916	0.05953
2132.78078	0.05981
2130.85241	0.06045
2128.92404	0.06127
2126.99566	0.06171
2125.06729	0.06177
2123.13892	0.06182
2121.21054	0.06202
2119.28217	0.06240
2117.35380	0.06296
2115.42542	0.06357
2113.49705	0.06415
2111.56868	0.06459
2109.64030	0.06495
2107.71193	0.06549
2105.78356	0.06606
2103.85518	0.06632
2101.92681	0.06640
2099.99844	0.06673
2098.07006	0.06715
2096.14169	0.06735
2094.21332	0.06755
2092.28494	0.06784
2090.35657	0.06800
2088.42820	0.06805
2086.49983	0.06821
2084.57145	0.06840
2082.64308	0.06847
2080.71471	0.06852
2078.78633	0.06867
2076.85796	0.06889
2074.92959	0.06907
2073.00121	0.06909
2071.07284	0.06896
2069.14447	0.06884
2067.21609	0.06872
2065.28772	0.06846
2063.35935	0.06822
2061.43097	0.06831
2059.50260	0.06869
2057.57423	0.06914
2055.64585	0.06947
2053.71748	0.06956
2051.78911	0.06963
2049.86073	0.06996
2047.93236	0.07044
2046.00399	0.07090
2044.07561	0.07134
2042.14724	0.07171
2040.21887	0.07198
2038.29049	0.07221
2036.36212	0.07248
2034.43375	0.07280
2032.50538	0.07305
2030.57700	0.07313
2028.64863	0.07317
2026.72026	0.07329
2024.79188	0.07349
2022.86351	0.07363
2020.93514	0.07355
2019.00676	0.07331
2017.07839	0.07320
2015.15002	0.07334
2013.22164	0.07354
2011.29327	0.07374
2009.36490	0.07406
2007.43652	0.07442
2005.50815	0.07466
2003.57978	0.07479
2001.65140	0.07494
1999.72303	0.07512
1997.79466	0.07538
1995.86628	0.07574
1993.93791	0.07608
1992.00954	0.07633
1990.08116	0.07644
1988.15279	0.07651
1986.22442	0.07669
1984.29604	0.07700
1982.36767	0.07726
1980.43930	0.07743
1978.51092	0.07762
1976.58255	0.07784
1974.65418	0.07803
1972.72581	0.07810
1970.79743	0.07805
1968.86906	0.07820
1966.94069	0.07853
1965.01231	0.07876
1963.08394	0.07887
1961.15557	0.07883
1959.22719	0.07868
1957.29882	0.07872
1955.37045	0.07898
1953.44207	0.07916
1951.51370	0.07915
1949.58533	0.07913
1947.65695	0.07920
1945.72858	0.07921
1943.80021	0.07922
1941.87183	0.07944
1939.94346	0.07973
1938.01509	0.07980
1936.08671	0.07957
1934.15834	0.07926
1932.22997	0.07904
1930.30159	0.07883
1928.37322	0.07861
1926.44485	0.07852
1924.51647	0.07867
1922.58810	0.07899
1920.65973	0.07902
1918.73135	0.07863
1916.80298	0.07823
1914.87461	0.07808
1912.94624	0.07800
1911.01786	0.07800
1909.08949	0.07812
1907.16112	0.07820
1905.23274	0.07810
1903.30437	0.07774
1901.37600	0.07720
1899.44762	0.07680
1897.51925	0.07659
1895.59088	0.07636
1893.66250	0.07608
1891.73413	0.07599
1889.80576	0.07594
1887.87738	0.07544
1885.94901	0.07466
1884.02064	0.07407
1882.09226	0.07373
1880.16389	0.07344
1878.23552	0.07300
1876.30714	0.07254
1874.37877	0.07217
1872.45040	0.07190
1870.52202	0.07173
1868.59365	0.07134
1866.66528	0.07051
1864.73690	0.06956
1862.80853	0.06886
1860.88016	0.06836
1858.95179	0.06776
1857.02341	0.06713
1855.09504	0.06670
1853.16667	0.06645
1851.23829	0.06618
1849.30992	0.06574
1847.38155	0.06523
1845.45317	0.06492
1843.52480	0.06464
1841.59643	0.06423
1839.66805	0.06385
1837.73968	0.06350
1835.81131	0.06301
1833.88293	0.06237
1831.95456	0.06183
1830.02619	0.06149
1828.09781	0.06125
1826.16944	0.06094
1824.24107	0.06020
1822.31269	0.05913
1820.38432	0.05824
1818.45595	0.05744
1816.52757	0.05640
1814.59920	0.05527
1812.67083	0.05418
1810.74245	0.05285
1808.81408	0.05121
1806.88571	0.04960
1804.95733	0.04820
1803.02896	0.04684
1801.10059	0.04529
1799.17222	0.04353
1797.24384	0.04174
1795.31547	0.04011
1793.38710	0.03846
1791.45872	0.03635
1789.53035	0.03416
1787.60198	0.03235
1785.67360	0.03073
1783.74523	0.02921
1781.81686	0.02772
1779.88848	0.02612
1777.96011	0.02465
1776.03174	0.02347
1774.10336	0.02234
1772.17499	0.02085
1770.24662	0.01913
1768.31824	0.01748
1766.38987	0.01573
1764.46150	0.01392
1762.53312	0.01200
1760.60475	0.01004
1758.67638	0.00816
1756.74800	0.00629
1754.81963	0.00490
1752.89126	0.00389
1750.96288	0.00268
1749.03451	0.00155
1747.10614	0.00076
1745.17777	0.00040
1743.24939	0.00029
1741.32102	0.00050
1739.39265	0.00064
1737.46427	0.00092
1735.53590	0.00113
1733.60753	0.00092
1731.67915	0.00074
1729.75078	0.00062
1727.82241	0.00035
1725.89403	0.00025
1723.96566	0.00040
1722.03729	0.00062
1720.10891	0.00107
1718.18054	0.00142
1716.25217	0.00137
1714.32379	0.00093
1712.39542	0.00067
1710.46705	0.00076
1708.53867	0.00107
1706.61030	0.00110
1704.68193	0.00075
1702.75355	0.00103
1700.82518	0.00059
1698.89681	0.00055
1696.96843	0.00103
1695.04006	0.00138
1693.11169	0.00137
1691.18331	0.00098
1689.25494	0.00094
1687.32657	0.00093
1685.39820	0.00086
1683.46982	0.00127
1681.54145	0.00127
1679.61308	0.00106
1677.68470	0.00097
1675.75633	0.00084
1673.82796	0.00047
1671.89958	0.00027
1669.97121	0.00038
1668.04284	0.00043
1666.11446	0.00054
1664.18609	0.00072
1662.25772	0.00074
1660.32934	0.00074
1658.40097	0.00089
1656.47260	0.00141
1654.54422	0.00223
1652.61585	0.00202
1650.68748	0.00133
1648.75910	0.00107
1646.83073	0.00089
1644.90236	0.00082
1642.97398	0.00094
1641.04561	0.00085
1639.11724	0.00070
1637.18886	0.00072
1635.26049	0.00070
1633.33212	0.00054
1631.40375	0.00057
1629.47537	0.00049
1627.54700	0.00050
1625.61863	0.00059
1623.69025	0.00056
1621.76188	0.00041
1619.83351	0.00026
1617.90513	0.00043
1615.97676	0.00067
1614.04839	0.00061
1612.12001	0.00083
1610.19164	0.00060
1608.26327	0.00028
1606.33489	0.00014
1604.40652	0.00039
1602.47815	0.00065
1600.54977	0.00072
1598.62140	0.00056
1596.69303	0.00041
1594.76465	0.00040
1592.83628	0.00036
1590.90791	0.00053
1588.97953	0.00057
1587.05116	0.00060
1585.12279	0.00061
1583.19441	0.00056
1581.26604	0.00073
1579.33767	0.00047
1577.40929	0.00028
1575.48092	0.00049
1573.55255	0.00046
1571.62418	0.00087
1569.69580	0.00098
1567.76743	0.00071
1565.83906	0.00052
1563.91068	0.00055
1561.98231	0.00061
1560.05394	0.00086
1558.12556	0.00139
1556.19719	0.00121
1554.26882	0.00077
1552.34044	0.00049
1550.41207	0.00042
1548.48370	0.00044
1546.55532	0.00043
1544.62695	0.00060
1542.69858	0.00091
1540.77020	0.00072
1538.84183	0.00038
1536.91346	0.00044
1534.98508	0.00073
1533.05671	0.00104
1531.12834	0.00109
1529.19996	0.00064
1527.27159	0.00046
1525.34322	0.00074
1523.41484	0.00078
1521.48647	0.00067
1519.55810	0.00082
1517.62972	0.00061
1515.70135	0.00037
1513.77298	0.00037
1511.84461	0.00032
1509.91623	0.00041
1507.98786	0.00104
1506.05949	0.00083
1504.13111	0.00032
1502.20274	0.00063
1500.27437	0.00075
1498.34599	0.00080
1496.41762	0.00104
1494.48925	0.00102
1492.56087	0.00081
1490.63250	0.00072
1488.70413	0.00065
1486.77575	0.00064
1484.84738	0.00068
1482.91901	0.00034
1480.99063	0.00028
1479.06226	0.00026
1477.13389	0.00025
1475.20551	0.00081
1473.27714	0.00109
1471.34877	0.00109
1469.42039	0.00117
1467.49202	0.00070
1465.56365	0.00040
1463.63527	0.00039
1461.70690	0.00060
1459.77853	0.00062
1457.85016	0.00072
1455.92178	0.00157
1453.99341	0.00164
1452.06504	0.00110
1450.13666	0.00062
1448.20829	0.00073
1446.27992	0.00035
1444.35154	0.00050
1442.42317	0.00093
1440.49480	0.00085
1438.56642	0.00093
1436.63805	0.00098
1434.70968	0.00076
1432.78130	0.00040
1430.85293	0.00022
1428.92456	0.00075
1426.99618	0.00069
1425.06781	0.00046
1423.13944	0.00058
1421.21106	0.00063
1419.28269	0.00060
1417.35432	0.00058
1415.42594	0.00041
1413.49757	0.00032
1411.56920	0.00042
1409.64082	0.00063
1407.71245	0.00104
1405.78408	0.00123
1403.85570	0.00114
1401.92733	0.00104
1399.99896	0.00101
1398.07059	0.00096
1396.14221	0.00069
1394.21384	0.00063
1392.28547	0.00076
1390.35709	0.00084
1388.42872	0.00080
1386.50035	0.00052
1384.57197	0.00015
1382.64360	0.00029
1380.71523	0.00070
1378.78685	0.00114
1376.85848	0.00146
1374.93011	0.00151
1373.00173	0.00126
1371.07336	0.00091
1369.14499	0.00100
1367.21661	0.00117
1365.28824	0.00098
1363.35987	0.00085
1361.43149	0.00069
1359.50312	0.00075
1357.57475	0.00071
1355.64637	0.00088
1353.71800	0.00109
1351.78963	0.00109
1349.86125	0.00126
1347.93288	0.00091
1346.00451	0.00055
1344.07614	0.00081
1342.14776	0.00121
1340.21939	0.00130
1338.29102	0.00092
1336.36264	0.00094
1334.43427	0.00108
1332.50590	0.00082
1330.57752	0.00075
1328.64915	0.00067
1326.72078	0.00075
1324.79240	0.00086
1322.86403	0.00089
1320.93566	0.00075
1319.00728	0.00053
1317.07891	0.00052
1315.15054	0.00049
1313.22216	0.00074
1311.29379	0.00089
1309.36542	0.00072
1307.43704	0.00037
1305.50867	0.00050
1303.58030	0.00062
1301.65192	0.00061
1299.72355	0.00031
1297.79518	0.00044
1295.86680	0.00067
1293.93843	0.00085
1292.01006	0.00082
1290.08168	0.00062
1288.15331	0.00060
1286.22494	0.00088
1284.29657	0.00096
1282.36819	0.00103
1280.43982	0.00107
1278.51145	0.00131
1276.58307	0.00092
1274.65470	0.00089
1272.72633	0.00095
1270.79795	0.00070
1268.86958	0.00136
1266.94121	0.00145
1265.01283	0.00118
1263.08446	0.00082
1261.15609	0.00076
1259.22771	0.00114
1257.29934	0.00121
1255.37097	0.00155
1253.44259	0.00159
1251.51422	0.00123
1249.58585	0.00098
1247.65747	0.00099
1245.72910	0.00097
1243.80073	0.00093
1241.87235	0.00076
1239.94398	0.00032
1238.01561	0.00015
1236.08723	0.00062
1234.15886	0.00138
1232.23049	0.00155
1230.30212	0.00090
1228.37374	0.00058
1226.44537	0.00105
1224.51700	0.00204
1222.58862	0.00282
1220.66025	0.00212
1218.73188	0.00192
1216.80350	0.00249
1214.87513	0.00235
1212.94676	0.00187
1211.01838	0.00151
1209.09001	0.00136
1207.16164	0.00157
1205.23326	0.00134
1203.30489	0.00099
1201.37652	0.00124
1199.44814	0.00139
1197.51977	0.00189
1195.59140	0.00214
1193.66302	0.00142
1191.73465	0.00125
1189.80628	0.00146
1187.87790	0.00193
1185.94953	0.00171
1184.02116	0.00105
1182.09278	0.00126
1180.16441	0.00107
1178.23604	0.00111
1176.30766	0.00163
1174.37929	0.00182
1172.45092	0.00154
1170.52255	0.00141
1168.59417	0.00118
1166.66580	0.00177
1164.73743	0.00205
1162.80905	0.00113
1160.88068	0.00138
1158.95231	0.00179
1157.02393	0.00120
1155.09556	0.00103
1153.16719	0.00150
1151.23881	0.00106
1149.31044	0.00077
1147.38207	0.00091
1145.45369	0.00115
1143.52532	0.00117
1141.59695	0.00135
1139.66857	0.00081
1137.74020	0.00106
1135.81183	0.00137
1133.88345	0.00133
1131.95508	0.00128
1130.02671	0.00180
1128.09833	0.00180
1126.16996	0.00146
1124.24159	0.00163
1122.31321	0.00131
1120.38484	0.00082
1118.45647	0.00070
1116.52809	0.00056
1114.59972	0.00066
1112.67135	0.00099
1110.74298	0.00126
1108.81460	0.00166
1106.88623	0.00186
1104.95786	0.00257
1103.02948	0.00313
1101.10111	0.00272
1099.17274	0.00258
1097.24436	0.00240
1095.31599	0.00089
1093.38762	0.00095
1091.45924	0.00215
1089.53087	0.00226
1087.60250	0.00198
1085.67412	0.00165
1083.74575	0.00095
1081.81738	0.00163
1079.88900	0.00179
1077.96063	0.00089
1076.03226	0.00065
1074.10388	0.00125
1072.17551	0.00155
1070.24714	0.00201
1068.31876	0.00130
1066.39039	0.00107
1064.46202	0.00129
1062.53364	0.00143
1060.60527	0.00220
1058.67690	0.00216
1056.74853	0.00146
1054.82015	0.00189
1052.89178	0.00187
1050.96341	0.00131
1049.03503	0.00099
1047.10666	0.00072
1045.17829	0.00068
1043.24991	0.00032
1041.32154	0.00116
1039.39317	0.00179
1037.46479	0.00194
1035.53642	0.00222
1033.60805	0.00210
1031.67967	0.00172
1029.75130	0.00159
1027.82293	0.00124
1025.89455	0.00083
1023.96618	0.00101
1022.03781	0.00157
1020.10943	0.00154
1018.18106	0.00171
1016.25269	0.00150
1014.32431	0.00107
1012.39594	0.00085
1010.46757	0.00071
1008.53919	0.00073
1006.61082	0.00086
1004.68245	0.00082
1002.75407	0.00070
1000.82570	0.00076
998.89733	0.00120
996.96896	0.00194
995.04058	0.00189
993.11221	0.00162
991.18384	0.00151
989.25546	0.00129
987.32709	0.00100
985.39872	0.00074
983.47034	0.00062
981.54197	0.00112
979.61360	0.00130
977.68522	0.00175
975.75685	0.00205
973.82848	0.00191
971.90010	0.00162
969.97173	0.00173
968.04336	0.00256
966.11498	0.00342
964.18661	0.00421
962.25824	0.00464
960.32986	0.00418
958.40149	0.00288
956.47312	0.00178
954.54474	0.00139
952.61637	0.00151
950.68800	0.00170
948.75962	0.00271
946.83125	0.00387
944.90288	0.00421
942.97451	0.00428
941.04613	0.00467
939.11776	0.00513
937.18939	0.00544
935.26101	0.00549
933.33264	0.00508
931.40427	0.00460
929.47589	0.00469
927.54752	0.00475
925.61915	0.00440
923.69077	0.00426
921.76240	0.00429
919.83403	0.00451
917.90565	0.00479
915.97728	0.00493
914.04891	0.00508
912.12053	0.00521
910.19216	0.00527
908.26379	0.00473
906.33541	0.00362
904.40704	0.00248
902.47867	0.00249
900.55029	0.00287
898.62192	0.00251
896.69355	0.00233
894.76517	0.00286
892.83680	0.00310
890.90843	0.00227
888.98005	0.00166
887.05168	0.00204
885.12331	0.00178
883.19494	0.00186
881.26656	0.00227
879.33819	0.00242
877.40982	0.00208
875.48144	0.00172
873.55307	0.00131
871.62470	0.00143
869.69632	0.00238
867.76795	0.00213
865.83958	0.00200
863.91120	0.00289
861.98283	0.00355
860.05446	0.00408
858.12608	0.00336
856.19771	0.00201
854.26934	0.00163
852.34096	0.00182
850.41259	0.00153
848.48422	0.00192
846.55584	0.00210
844.62747	0.00221
842.69910	0.00208
840.77072	0.00229
838.84235	0.00214
836.91398	0.00219
834.98560	0.00258
833.05723	0.00224
831.12886	0.00140
829.20049	0.00131
827.27211	0.00215
825.34374	0.00184
823.41537	0.00179
821.48699	0.00139
819.55862	0.00133
817.63025	0.00217
815.70187	0.00210
813.77350	0.00324
811.84513	0.00360
809.91675	0.00231
807.98838	0.00149
806.06001	0.00121
804.13163	0.00067
802.20326	0.00084
800.27489	0.00132
798.34651	0.00142
796.41814	0.00188
794.48977	0.00204
792.56139	0.00150
790.63302	0.00138
788.70465	0.00097
786.77627	0.00167
784.84790	0.00277
782.91953	0.00287
780.99115	0.00232
779.06278	0.00193
777.13441	0.00241
775.20603	0.00267
773.27766	0.00216
771.34929	0.00154
769.42092	0.00192
767.49254	0.00250
765.56417	0.00182
763.63580	0.00181
761.70742	0.00259
759.77905	0.00228
757.85068	0.00324
755.92230	0.00375
753.99393	0.00415
752.06556	0.00412
750.13718	0.00319
748.20881	0.00275
746.28044	0.00253
744.35206	0.00071
742.42369	0.00070
740.49532	0.00144
738.56694	0.00186
736.63857	0.00203
734.71020	0.00207
732.78182	0.00279
730.85345	0.00278
728.92508	0.00256
726.99670	0.00267
725.06833	0.00267
723.13996	0.00227
721.21158	0.00177
719.28321	0.00212
717.35484	0.00202
715.42647	0.00219
713.49809	0.00237
711.56972	0.00219
709.64135	0.00161
707.71297	0.00143
705.78460	0.00126
703.85623	0.00182
701.92785	0.00231
699.99948	0.00265
698.07111	0.00248
696.14273	0.00222
694.21436	0.00223
692.28599	0.00241
690.35761	0.00271
688.42924	0.00297
686.50087	0.00405
684.57249	0.00579
682.64412	0.00664
680.71575	0.00590
678.78737	0.00406
676.85900	0.00228
674.93063	0.00303
673.00225	0.00530
671.07388	0.00740
669.14551	0.00790
667.21713	0.00431
665.28876	0.00497
663.36039	0.00645
661.43201	0.00825
659.50364	0.00690
657.57527	0.00380
655.64690	0.00273
653.71852	0.00408
651.79015	0.00483
649.86178	0.00560
647.93340	0.00664
646.00503	0.00539
644.07666	0.00501
642.14828	0.00517
640.21991	0.00478
638.29154	0.00567
636.36316	0.00672
634.43479	0.00819
632.50642	0.00942
630.57804	0.00781
628.64967	0.00566
626.72130	0.00654
624.79292	0.00844
622.86455	0.01116
620.93618	0.00936
619.00780	0.00735
617.07943	0.00585
615.15106	0.00216
613.22268	0.00398
611.29431	0.00775
609.36594	0.01296
607.43756	0.01614
605.50919	0.01270
603.58082	0.00741
601.65244	0.00833
599.72407	0.00701
