3997.51769	0.37303
3995.58931	0.37372
3993.66094	0.37454
3991.73257	0.37518
3989.80419	0.37584
3987.87582	0.37623
3985.94745	0.37622
3984.01907	0.37605
3982.09070	0.37594
3980.16233	0.37609
3978.23396	0.37635
3976.30558	0.37661
3974.37721	0.37704
3972.44884	0.37719
3970.52046	0.37689
3968.59209	0.37701
3966.66372	0.37787
3964.73534	0.37880
3962.80697	0.37958
3960.87860	0.38037
3958.95022	0.38096
3957.02185	0.38122
3955.09348	0.38168
3953.16510	0.38282
3951.23673	0.38421
3949.30836	0.38540
3947.37998	0.38592
3945.45161	0.38565
3943.52324	0.38537
3941.59486	0.38550
3939.66649	0.38580
3937.73812	0.38625
3935.80974	0.38692
3933.88137	0.38798
3931.95300	0.38931
3930.02462	0.38993
3928.09625	0.38991
3926.16788	0.39020
3924.23950	0.39044
3922.31113	0.39035
3920.38276	0.39096
3918.45439	0.39238
3916.52601	0.39312
3914.59764	0.39254
3912.66927	0.39191
3910.74089	0.39231
3908.81252	0.39362
3906.88415	0.39531
3904.95577	0.39734
3903.02740	0.39936
3901.09903	0.40020
3899.17065	0.39965
3897.24228	0.39902
3895.31391	0.39942
3893.38553	0.40071
3891.45716	0.40179
3889.52879	0.40205
3887.60041	0.40261
3885.67204	0.40368
3883.74367	0.40401
3881.81529	0.40402
3879.88692	0.40415
3877.95855	0.40384
3876.03017	0.40417
3874.10180	0.40596
3872.17343	0.40828
3870.24505	0.40978
3868.31668	0.40949
3866.38831	0.40889
3864.45994	0.40940
3862.53156	0.40983
3860.60319	0.40963
3858.67482	0.41002
3856.74644	0.41139
3854.81807	0.41381
3852.88970	0.41577
3850.96132	0.41379
3849.03295	0.41087
3847.10458	0.40959
3845.17620	0.41038
3843.24783	0.41244
3841.31946	0.41455
3839.39108	0.41614
3837.46271	0.41667
3835.53434	0.41584
3833.60596	0.41502
3831.67759	0.41476
3829.74922	0.41449
3827.82084	0.41436
3825.89247	0.41436
3823.96410	0.41464
3822.03572	0.41636
3820.10735	0.41796
3818.17898	0.41766
3816.25060	0.41727
3814.32223	0.41640
3812.39386	0.41508
3810.46548	0.41495
3808.53711	0.41644
3806.60874	0.41791
3804.68037	0.41831
3802.75199	0.41953
3800.82362	0.42047
3798.89525	0.41907
3796.96687	0.41741
3795.03850	0.41595
3793.11013	0.41464
3791.18175	0.41420
3789.25338	0.41461
3787.32501	0.41540
3785.39663	0.41602
3783.46826	0.41606
3781.53989	0.41593
3779.61151	0.41588
3777.68314	0.41546
3775.75477	0.41505
3773.82639	0.41520
3771.89802	0.41619
3769.96965	0.41769
3768.04127	0.41800
3766.11290	0.41699
3764.18453	0.41576
3762.25615	0.41527
3760.32778	0.41619
3758.39941	0.41736
3756.47103	0.41750
3754.54266	0.41810
3752.61429	0.42085
3750.68591	0.42410
3748.75754	0.42424
3746.82917	0.42344
3744.90080	0.42276
3742.97242	0.42052
3741.04405	0.41796
3739.11568	0.41689
3737.18730	0.41791
3735.25893	0.41963
3733.33056	0.41860
3731.40218	0.41545
3729.47381	0.41315
3727.54544	0.41213
3725.61706	0.41165
3723.68869	0.41094
3721.76032	0.40955
3719.83194	0.40773
3717.90357	0.40621
3715.97520	0.40562
3714.04682	0.40608
3712.11845	0.40694
3710.19008	0.40597
3708.26170	0.40274
3706.33333	0.39933
3704.40496	0.39724
3702.47658	0.39636
3700.54821	0.39412
3698.61984	0.39022
3696.69146	0.38656
3694.76309	0.38404
3692.83472	0.38264
3690.90635	0.38117
3688.97797	0.37687
3687.04960	0.36928
3685.12123	0.36232
3683.19285	0.35689
3681.26448	0.35184
3679.33611	0.34710
3677.40773	0.34309
3675.47936	0.33709
3673.55099	0.32823
3671.62261	0.32041
3669.69424	0.31043
3667.76587	0.29827
3665.83749	0.28833
3663.90912	0.27924
3661.98075	0.27004
3660.05237	0.26177
3658.12400	0.25433
3656.19563	0.24543
3654.26725	0.23595
3652.33888	0.22822
3650.41051	0.22035
3648.48213	0.20955
3646.55376	0.19789
3644.62539	0.18814
3642.69701	0.17980
3640.76864	0.17208
3638.84027	0.16445
3636.91189	0.15679
3634.98352	0.14921
3633.05515	0.14200
3631.12678	0.13592
3629.19840	0.12931
3627.27003	0.12116
3625.34166	0.11449
3623.41328	0.10954
3621.48491	0.10558
3619.55654	0.10098
3617.62816	0.09494
3615.69979	0.08938
3613.77142	0.08465
3611.84304	0.08023
3609.91467	0.07590
3607.98630	0.07124
3606.05792	0.06663
3604.12955	0.06292
3602.20118	0.05965
3600.27280	0.05625
3598.34443	0.05301
3596.41606	0.05016
3594.48768	0.04720
3592.55931	0.04419
3590.63094	0.04201
3588.70256	0.04011
3586.77419	0.03747
3584.84582	0.03457
3582.91744	0.03232
3580.98907	0.03059
3579.06070	0.02871
3577.13233	0.02660
3575.20395	0.02482
3573.27558	0.02328
3571.34721	0.02152
3569.41883	0.01987
3567.49046	0.01860
3565.56209	0.01741
3563.63371	0.01610
3561.70534	0.01467
3559.77697	0.01347
3557.84859	0.01254
3555.92022	0.01171
3553.99185	0.01088
3552.06347	0.01004
3550.13510	0.00933
3548.20673	0.00860
3546.27835	0.00774
3544.34998	0.00694
3542.42161	0.00620
3540.49323	0.00544
3538.56486	0.00489
3536.63649	0.00455
3534.70811	0.00397
3532.77974	0.00353
3530.85137	0.00362
3528.92299	0.00356
3526.99462	0.00307
3525.06625	0.00293
3523.13787	0.00299
3521.20950	0.00244
3519.28113	0.00166
3517.35276	0.00151
3515.42438	0.00177
3513.49601	0.00169
3511.56764	0.00131
3509.63926	0.00098
3507.71089	0.00100
3505.78252	0.00114
3503.85414	0.00118
3501.92577	0.00116
3499.99740	0.00104
3498.06902	0.00094
3496.14065	0.00095
3494.21228	0.00093
3492.28390	0.00055
3490.35553	0.00070
3488.42716	0.00050
3486.49878	0.00048
3484.57041	0.00038
3482.64204	0.00043
3480.71366	0.00050
3478.78529	0.00056
3476.85692	0.00029
3474.92854	0.00059
3473.00017	0.00071
3471.07180	0.00072
3469.14342	0.00053
3467.21505	0.00077
3465.28668	0.00092
3463.35831	0.00098
3461.42993	0.00123
3459.50156	0.00130
3457.57319	0.00086
3455.64481	0.00030
3453.71644	0.00051
3451.78807	0.00090
3449.85969	0.00090
3447.93132	0.00098
3446.00295	0.00094
3444.07457	0.00105
3442.14620	0.00130
3440.21783	0.00097
3438.28945	0.00065
3436.36108	0.00066
3434.43271	0.00083
3432.50433	0.00094
3430.57596	0.00084
3428.64759	0.00115
3426.71921	0.00075
3424.79084	0.00072
3422.86247	0.00100
3420.93409	0.00044
3419.00572	0.00073
3417.07735	0.00093
3415.14897	0.00088
3413.22060	0.00097
3411.29223	0.00080
3409.36385	0.00086
3407.43548	0.00077
3405.50711	0.00095
3403.57874	0.00108
3401.65036	0.00087
3399.72199	0.00087
3397.79362	0.00090
3395.86524	0.00072
3393.93687	0.00035
3392.00850	0.00054
3390.08012	0.00064
3388.15175	0.00066
3386.22338	0.00074
3384.29500	0.00101
3382.36663	0.00120
3380.43826	0.00103
3378.50988	0.00073
3376.58151	0.00062
3374.65314	0.00074
3372.72476	0.00080
3370.79639	0.00079
3368.86802	0.00089
3366.93964	0.00088
3365.01127	0.00106
3363.08290	0.00094
3361.15452	0.00053
3359.22615	0.00091
3357.29778	0.00120
3355.36940	0.00083
3353.44103	0.00106
3351.51266	0.00111
3349.58428	0.00046
3347.65591	0.00052
3345.72754	0.00053
3343.79917	0.00054
3341.87079	0.00077
3339.94242	0.00119
3338.01405	0.00124
3336.08567	0.00076
3334.15730	0.00064
3332.22893	0.00075
3330.30055	0.00065
3328.37218	0.00046
3326.44381	0.00058
3324.51543	0.00077
3322.58706	0.00084
3320.65869	0.00066
3318.73031	0.00048
3316.80194	0.00059
3314.87357	0.00063
3312.94519	0.00042
3311.01682	0.00054
3309.08845	0.00067
3307.16007	0.00052
3305.23170	0.00088
3303.30333	0.00085
3301.37495	0.00075
3299.44658	0.00076
3297.51821	0.00069
3295.58983	0.00058
3293.66146	0.00105
3291.73309	0.00133
3289.80472	0.00094
3287.87634	0.00077
3285.94797	0.00109
3284.01960	0.00072
3282.09122	0.00071
3280.16285	0.00060
3278.23448	0.00019
3276.30610	0.00071
3274.37773	0.00114
3272.44936	0.00068
3270.52098	0.00013
3268.59261	0.00045
3266.66424	0.00079
3264.73586	0.00063
3262.80749	0.00039
3260.87912	0.00083
3258.95074	0.00092
3257.02237	0.00071
3255.09400	0.00043
3253.16562	0.00089
3251.23725	0.00102
3249.30888	0.00087
3247.38050	0.00091
3245.45213	0.00093
3243.52376	0.00076
3241.59538	0.00044
3239.66701	0.00050
3237.73864	0.00024
3235.81026	0.00060
3233.88189	0.00130
3231.95352	0.00151
3230.02515	0.00104
3228.09677	0.00059
3226.16840	0.00065
3224.24003	0.00074
3222.31165	0.00049
3220.38328	0.00055
3218.45491	0.00094
3216.52653	0.00117
3214.59816	0.00093
3212.66979	0.00066
3210.74141	0.00106
3208.81304	0.00146
3206.88467	0.00140
3204.95629	0.00092
3203.02792	0.00055
3201.09955	0.00081
3199.17117	0.00096
3197.24280	0.00088
3195.31443	0.00089
3193.38605	0.00109
3191.45768	0.00145
3189.52931	0.00148
3187.60093	0.00141
3185.67256	0.00130
3183.74419	0.00093
3181.81581	0.00079
3179.88744	0.00091
3177.95907	0.00095
3176.03070	0.00079
3174.10232	0.00039
3172.17395	0.00070
3170.24558	0.00091
3168.31720	0.00071
3166.38883	0.00057
3164.46046	0.00067
3162.53208	0.00094
3160.60371	0.00124
3158.67534	0.00131
3156.74696	0.00113
3154.81859	0.00121
3152.89022	0.00148
3150.96184	0.00176
3149.03347	0.00212
3147.10510	0.00215
3145.17672	0.00170
3143.24835	0.00134
3141.31998	0.00138
3139.39160	0.00151
3137.46323	0.00148
3135.53486	0.00136
3133.60648	0.00176
3131.67811	0.00212
3129.74974	0.00201
3127.82136	0.00186
3125.89299	0.00200
3123.96462	0.00209
3122.03624	0.00179
3120.10787	0.00147
3118.17950	0.00167
3116.25113	0.00191
3114.32275	0.00167
3112.39438	0.00124
3110.46601	0.00125
3108.53763	0.00159
3106.60926	0.00170
3104.68089	0.00160
3102.75251	0.00163
3100.82414	0.00197
3098.89577	0.00223
3096.96739	0.00216
3095.03902	0.00163
3093.11065	0.00125
3091.18227	0.00135
3089.25390	0.00160
3087.32553	0.00168
3085.39715	0.00162
3083.46878	0.00155
3081.54041	0.00149
3079.61203	0.00176
3077.68366	0.00246
3075.75529	0.00315
3073.82691	0.00313
3071.89854	0.00267
3069.97017	0.00247
3068.04179	0.00251
3066.11342	0.00249
3064.18505	0.00231
3062.25668	0.00239
3060.32830	0.00282
3058.39993	0.00341
3056.47156	0.00412
3054.54318	0.00457
3052.61481	0.00448
3050.68644	0.00443
3048.75806	0.00487
3046.82969	0.00541
3044.90132	0.00566
3042.97294	0.00555
3041.04457	0.00506
3039.11620	0.00487
3037.18782	0.00553
3035.25945	0.00645
3033.33108	0.00698
3031.40270	0.00719
3029.47433	0.00732
3027.54596	0.00764
3025.61758	0.00798
3023.68921	0.00801
3021.76084	0.00821
3019.83246	0.00886
3017.90409	0.00950
3015.97572	0.00985
3014.04734	0.00992
3012.11897	0.00993
3010.19060	0.01030
3008.26222	0.01097
3006.33385	0.01123
3004.40548	0.01096
3002.47711	0.01066
3000.54873	0.01051
2998.62036	0.01031
2996.69199	0.00998
2994.76361	0.00963
2992.83524	0.00932
2990.90687	0.00906
2988.97849	0.00881
2987.05012	0.00840
2985.12175	0.00768
2983.19337	0.00697
2981.26500	0.00647
2979.33663	0.00597
2977.40825	0.00540
2975.47988	0.00485
2973.55151	0.00442
2971.62313	0.00441
2969.69476	0.00456
2967.76639	0.00412
2965.83801	0.00327
2963.90964	0.00283
2961.98127	0.00269
2960.05289	0.00253
2958.12452	0.00269
2956.19615	0.00336
2954.26777	0.00423
2952.33940	0.00473
2950.41103	0.00507
2948.48266	0.00510
2946.55428	0.00466
2944.62591	0.00447
2942.69754	0.00484
2940.76916	0.00531
2938.84079	0.00534
2936.91242	0.00453
2934.98404	0.00339
2933.05567	0.00290
2931.12730	0.00330
2929.19892	0.00432
2927.27055	0.00515
2925.34218	0.00544
2923.41380	0.00563
2921.48543	0.00617
2919.55706	0.00669
2917.62868	0.00670
2915.70031	0.00674
2913.77194	0.00727
2911.84356	0.00776
2909.91519	0.00795
2907.98682	0.00808
2906.05844	0.00834
2904.13007	0.00905
2902.20170	0.01000
2900.27332	0.01034
2898.34495	0.00980
2896.41658	0.00913
2894.48820	0.00881
2892.55983	0.00873
2890.63146	0.00897
2888.70309	0.00944
2886.77471	0.00962
2884.84634	0.00956
2882.91797	0.00969
2880.98959	0.00984
2879.06122	0.00980
2877.13285	0.00966
2875.20447	0.00958
2873.27610	0.00973
2871.34773	0.01026
2869.41935	0.01129
2867.49098	0.01272
2865.56261	0.01422
2863.63423	0.01589
2861.70586	0.01739
2859.77749	0.01814
2857.84911	0.01860
2855.92074	0.01946
2853.99237	0.02051
2852.06399	0.02150
2850.13562	0.02275
2848.20725	0.02456
2846.27887	0.02676
2844.35050	0.02890
2842.42213	0.03084
2840.49375	0.03259
2838.56538	0.03406
2836.63701	0.03513
2834.70863	0.03609
2832.78026	0.03745
2830.85189	0.03906
2828.92352	0.04011
2826.99514	0.04071
2825.06677	0.04155
2823.13840	0.04252
2821.21002	0.04346
2819.28165	0.04461
2817.35328	0.04591
2815.42490	0.04715
2813.49653	0.04811
2811.56816	0.04881
2809.63978	0.04984
2807.71141	0.05151
2805.78304	0.05339
2803.85466	0.05487
2801.92629	0.05594
2799.99792	0.05696
2798.06954	0.05787
2796.14117	0.05867
2794.21280	0.05963
2792.28442	0.06076
2790.35605	0.06186
2788.42768	0.06301
2786.49930	0.06443
2784.57093	0.06576
2782.64256	0.06664
2780.71418	0.06741
2778.78581	0.06837
2776.85744	0.06938
2774.92907	0.07041
2773.00069	0.07132
2771.07232	0.07197
2769.14395	0.07259
2767.21557	0.07357
2765.28720	0.07477
2763.35883	0.07573
2761.43045	0.07649
2759.50208	0.07727
2757.57371	0.07798
2755.64533	0.07880
2753.71696	0.08000
2751.78859	0.08131
2749.86021	0.08235
2747.93184	0.08317
2746.00347	0.08390
2744.07509	0.08449
2742.14672	0.08496
2740.21835	0.08568
2738.28997	0.08672
2736.36160	0.08765
2734.43323	0.08831
2732.50485	0.08898
2730.57648	0.08979
2728.64811	0.09077
2726.71973	0.09196
2724.79136	0.09308
2722.86299	0.09378
2720.93461	0.09433
2719.00624	0.09532
2717.07787	0.09688
2715.14950	0.09848
2713.22112	0.09973
2711.29275	0.10086
2709.36438	0.10219
2707.43600	0.10365
2705.50763	0.10489
2703.57926	0.10589
2701.65088	0.10696
2699.72251	0.10815
2697.79414	0.10938
2695.86576	0.11048
2693.93739	0.11143
2692.00902	0.11236
2690.08064	0.11323
2688.15227	0.11413
2686.22390	0.11511
2684.29552	0.11588
2682.36715	0.11655
2680.43878	0.11741
2678.51040	0.11837
2676.58203	0.11932
2674.65366	0.12027
2672.72528	0.12114
2670.79691	0.12210
2668.86854	0.12320
2666.94016	0.12408
2665.01179	0.12470
2663.08342	0.12540
2661.15505	0.12626
2659.22667	0.12697
2657.29830	0.12748
2655.36993	0.12802
2653.44155	0.12862
2651.51318	0.12920
2649.58481	0.12982
2647.65643	0.13052
2645.72806	0.13108
2643.79969	0.13130
2641.87131	0.13138
2639.94294	0.13176
2638.01457	0.13247
2636.08619	0.13324
2634.15782	0.13396
2632.22945	0.13464
2630.30107	0.13523
2628.37270	0.13568
2626.44433	0.13609
2624.51595	0.13678
2622.58758	0.13774
2620.65921	0.13880
2618.73083	0.13989
2616.80246	0.14083
2614.87409	0.14149
2612.94571	0.14215
2611.01734	0.14298
2609.08897	0.14391
2607.16059	0.14489
2605.23222	0.14585
2603.30385	0.14666
2601.37548	0.14743
2599.44710	0.14841
2597.51873	0.14950
2595.59036	0.15030
2593.66198	0.15082
2591.73361	0.15149
2589.80524	0.15249
2587.87686	0.15357
2585.94849	0.15444
2584.02012	0.15527
2582.09174	0.15637
2580.16337	0.15764
2578.23500	0.15875
2576.30662	0.15968
2574.37825	0.16071
2572.44988	0.16203
2570.52150	0.16351
2568.59313	0.16497
2566.66476	0.16646
2564.73638	0.16793
2562.80801	0.16933
2560.87964	0.17079
2558.95126	0.17239
2557.02289	0.17397
2555.09452	0.17537
2553.16614	0.17664
2551.23777	0.17801
2549.30940	0.17947
2547.38103	0.18081
2545.45265	0.18193
2543.52428	0.18298
2541.59591	0.18402
2539.66753	0.18496
2537.73916	0.18605
2535.81079	0.18730
2533.88241	0.18830
2531.95404	0.18901
2530.02567	0.18975
2528.09729	0.19066
2526.16892	0.19158
2524.24055	0.19243
2522.31217	0.19339
2520.38380	0.19435
2518.45543	0.19509
2516.52705	0.19591
2514.59868	0.19687
2512.67031	0.19764
2510.74193	0.19861
2508.81356	0.20003
2506.88519	0.20139
2504.95681	0.20253
2503.02844	0.20372
2501.10007	0.20497
2499.17169	0.20617
2497.24332	0.20733
2495.31495	0.20864
2493.38657	0.21008
2491.45820	0.21137
2489.52983	0.21253
2487.60146	0.21376
2485.67308	0.21499
2483.74471	0.21626
2481.81634	0.21776
2479.88796	0.21926
2477.95959	0.22045
2476.03122	0.22154
2474.10284	0.22283
2472.17447	0.22430
2470.24610	0.22574
2468.31772	0.22706
2466.38935	0.22832
2464.46098	0.22964
2462.53260	0.23110
2460.60423	0.23261
2458.67586	0.23400
2456.74748	0.23529
2454.81911	0.23669
2452.89074	0.23824
2450.96236	0.23962
2449.03399	0.24065
2447.10562	0.24177
2445.17724	0.24337
2443.24887	0.24510
2441.32050	0.24671
2439.39212	0.24832
2437.46375	0.24966
2435.53538	0.25070
2433.60700	0.25178
2431.67863	0.25288
2429.75026	0.25403
2427.82189	0.25534
2425.89351	0.25663
2423.96514	0.25781
2422.03677	0.25891
2420.10839	0.25994
2418.18002	0.26105
2416.25165	0.26237
2414.32327	0.26386
2412.39490	0.26536
2410.46653	0.26665
2408.53815	0.26776
2406.60978	0.26901
2404.68141	0.27046
2402.75303	0.27181
2400.82466	0.27310
2398.89629	0.27466
2396.96791	0.27645
2395.03954	0.27820
2393.11117	0.27971
2391.18279	0.28088
2389.25442	0.28192
2387.32605	0.28312
2385.39767	0.28457
2383.46930	0.28623
2381.54093	0.28790
2379.61255	0.28949
2377.68418	0.29130
2375.75581	0.29364
2373.82744	0.29646
2371.89906	0.29944
2369.97069	0.30252
2368.04232	0.30590
2366.11394	0.31010
2364.18557	0.31409
2362.25720	0.31526
2360.32882	0.31475
2358.40045	0.31510
2356.47208	0.31532
2354.54370	0.31454
2352.61533	0.31352
2350.68696	0.31279
2348.75858	0.31283
2346.83021	0.31438
2344.90184	0.31742
2342.97346	0.31980
2341.04509	0.32034
2339.11672	0.32035
2337.18834	0.32008
2335.25997	0.31933
2333.33160	0.31915
2331.40322	0.32006
2329.47485	0.32097
2327.54648	0.32097
2325.61810	0.32071
2323.68973	0.32102
2321.76136	0.32153
2319.83298	0.32150
2317.90461	0.32129
2315.97624	0.32155
2314.04787	0.32224
2312.11949	0.32318
2310.19112	0.32429
2308.26275	0.32524
2306.33437	0.32590
2304.40600	0.32652
2302.47763	0.32723
2300.54925	0.32783
2298.62088	0.32847
2296.69251	0.32942
2294.76413	0.33046
2292.83576	0.33134
2290.90739	0.33199
2288.97901	0.33237
2287.05064	0.33268
2285.12227	0.33312
2283.19389	0.33356
2281.26552	0.33397
2279.33715	0.33448
2277.40877	0.33486
2275.48040	0.33510
2273.55203	0.33549
2271.62365	0.33587
2269.69528	0.33608
2267.76691	0.33622
2265.83853	0.33625
2263.91016	0.33633
2261.98179	0.33668
2260.05342	0.33713
2258.12504	0.33760
2256.19667	0.33832
2254.26830	0.33915
2252.33992	0.33975
2250.41155	0.34012
2248.48318	0.34046
2246.55480	0.34082
2244.62643	0.34121
2242.69806	0.34168
2240.76968	0.34227
2238.84131	0.34283
2236.91294	0.34314
2234.98456	0.34330
2233.05619	0.34362
2231.12782	0.34408
2229.19944	0.34442
2227.27107	0.34464
2225.34270	0.34482
2223.41432	0.34502
2221.48595	0.34540
2219.55758	0.34582
2217.62920	0.34596
2215.70083	0.34592
2213.77246	0.34598
2211.84408	0.34617
2209.91571	0.34626
2207.98734	0.34618
2206.05896	0.34599
2204.13059	0.34570
2202.20222	0.34553
2200.27385	0.34568
2198.34547	0.34602
2196.41710	0.34615
2194.48873	0.34587
2192.56035	0.34557
2190.63198	0.34550
2188.70361	0.34537
2186.77523	0.34521
2184.84686	0.34525
2182.91849	0.34539
2180.99011	0.34552
2179.06174	0.34563
2177.13337	0.34566
2175.20499	0.34551
2173.27662	0.34519
2171.34825	0.34491
2169.41987	0.34480
2167.49150	0.34486
2165.56313	0.34490
2163.63475	0.34472
2161.70638	0.34444
2159.77801	0.34435
2157.84963	0.34432
2155.92126	0.34417
2153.99289	0.34417
2152.06451	0.34440
2150.13614	0.34454
2148.20777	0.34464
2146.27940	0.34479
2144.35102	0.34473
2142.42265	0.34449
2140.49428	0.34450
2138.56590	0.34488
2136.63753	0.34534
2134.70916	0.34569
2132.78078	0.34596
2130.85241	0.34620
2128.92404	0.34643
2126.99566	0.34689
2125.06729	0.34763
2123.13892	0.34841
2121.21054	0.34916
2119.28217	0.35006
2117.35380	0.35107
2115.42542	0.35186
2113.49705	0.35238
2111.56868	0.35287
2109.64030	0.35340
2107.71193	0.35395
2105.78356	0.35444
2103.85518	0.35483
2101.92681	0.35531
2099.99844	0.35600
2098.07006	0.35649
2096.14169	0.35667
2094.21332	0.35705
2092.28494	0.35767
2090.35657	0.35812
2088.42820	0.35838
2086.49983	0.35855
2084.57145	0.35858
2082.64308	0.35853
2080.71471	0.35868
2078.78633	0.35906
2076.85796	0.35943
2074.92959	0.35973
2073.00121	0.35997
2071.07284	0.36014
2069.14447	0.36028
2067.21609	0.36055
2065.28772	0.36102
2063.35935	0.36155
2061.43097	0.36189
2059.50260	0.36207
2057.57423	0.36244
2055.64585	0.36304
2053.71748	0.36371
2051.78911	0.36456
2049.86073	0.36566
2047.93236	0.36678
2046.00399	0.36775
2044.07561	0.36876
2042.14724	0.36988
2040.21887	0.37089
2038.29049	0.37167
2036.36212	0.37242
2034.43375	0.37334
2032.50538	0.37442
2030.57700	0.37552
2028.64863	0.37653
2026.72026	0.37739
2024.79188	0.37811
2022.86351	0.37880
2020.93514	0.37962
2019.00676	0.38051
2017.07839	0.38137
2015.15002	0.38221
2013.22164	0.38295
2011.29327	0.38352
2009.36490	0.38413
2007.43652	0.38492
2005.50815	0.38573
2003.57978	0.38647
2001.65140	0.38722
1999.72303	0.38803
1997.79466	0.38878
1995.86628	0.38951
1993.93791	0.39039
1992.00954	0.39121
1990.08116	0.39161
1988.15279	0.39166
1986.22442	0.39171
1984.29604	0.39196
1982.36767	0.39227
1980.43930	0.39254
1978.51092	0.39288
1976.58255	0.39336
1974.65418	0.39390
1972.72581	0.39429
1970.79743	0.39472
1968.86906	0.39540
1966.94069	0.39580
1965.01231	0.39570
1963.08394	0.39585
1961.15557	0.39643
1959.22719	0.39691
1957.29882	0.39715
1955.37045	0.39756
1953.44207	0.39834
1951.51370	0.39932
1949.58533	0.40030
1947.65695	0.40133
1945.72858	0.40263
1943.80021	0.40409
1941.87183	0.40511
1939.94346	0.40554
1938.01509	0.40592
1936.08671	0.40647
1934.15834	0.40717
1932.22997	0.40793
1930.30159	0.40854
1928.37322	0.40910
1926.44485	0.40991
1924.51647	0.41105
1922.58810	0.41196
1920.65973	0.41237
1918.73135	0.41285
1916.80298	0.41322
1914.87461	0.41322
1912.94624	0.41346
1911.01786	0.41399
1909.08949	0.41419
1907.16112	0.41390
1905.23274	0.41355
1903.30437	0.41334
1901.37600	0.41307
1899.44762	0.41276
1897.51925	0.41280
1895.59088	0.41309
1893.66250	0.41321
1891.73413	0.41334
1889.80576	0.41344
1887.87738	0.41306
1885.94901	0.41261
1884.02064	0.41231
1882.09226	0.41206
1880.16389	0.41197
1878.23552	0.41191
1876.30714	0.41195
1874.37877	0.41235
1872.45040	0.41310
1870.52202	0.41405
1868.59365	0.41447
1866.66528	0.41371
1864.73690	0.41279
1862.80853	0.41247
1860.88016	0.41241
1858.95179	0.41233
1857.02341	0.41218
1855.09504	0.41191
1853.16667	0.41174
1851.23829	0.41206
1849.30992	0.41281
1847.38155	0.41363
1845.45317	0.41430
1843.52480	0.41410
1841.59643	0.41287
1839.66805	0.41192
1837.73968	0.41179
1835.81131	0.41181
1833.88293	0.41173
1831.95456	0.41220
1830.02619	0.41283
1828.09781	0.41235
1826.16944	0.41130
1824.24107	0.40999
1822.31269	0.40829
1820.38432	0.40691
1818.45595	0.40583
1816.52757	0.40470
1814.59920	0.40385
1812.67083	0.40329
1810.74245	0.40219
1808.81408	0.40019
1806.88571	0.39801
1804.95733	0.39640
1803.02896	0.39551
1801.10059	0.39462
1799.17222	0.39300
1797.24384	0.39089
1795.31547	0.38898
1793.38710	0.38728
1791.45872	0.38453
1789.53035	0.38053
1787.60198	0.37694
1785.67360	0.37423
1783.74523	0.37194
1781.81686	0.36960
1779.88848	0.36670
1777.96011	0.36341
1776.03174	0.36076
1774.10336	0.35908
1772.17499	0.35678
1770.24662	0.35238
1768.31824	0.34725
1766.38987	0.34247
1764.46150	0.33844
1762.53312	0.33432
1760.60475	0.32926
1758.67638	0.32388
1756.74800	0.31755
1754.81963	0.31050
1752.89126	0.30382
1750.96288	0.29593
1749.03451	0.28542
1747.10614	0.27420
1745.17777	0.26326
1743.24939	0.25215
1741.32102	0.24054
1739.39265	0.22852
1737.46427	0.21867
1735.53590	0.21042
1733.60753	0.19925
1731.67915	0.18754
1729.75078	0.17780
1727.82241	0.16785
1725.89403	0.15758
1723.96566	0.14672
1722.03729	0.13614
1720.10891	0.12681
1718.18054	0.11576
1716.25217	0.10108
1714.32379	0.08752
1712.39542	0.07589
1710.46705	0.06472
1708.53867	0.05350
1706.61030	0.04140
1704.68193	0.02961
1702.75355	0.02082
1700.82518	0.01358
1698.89681	0.00746
1696.96843	0.00440
1695.04006	0.00247
1693.11169	0.00136
1691.18331	0.00120
1689.25494	0.00117
1687.32657	0.00116
1685.39820	0.00109
1683.46982	0.00115
1681.54145	0.00088
1679.61308	0.00033
1677.68470	0.00082
1675.75633	0.00085
1673.82796	0.00036
1671.89958	0.00024
1669.97121	0.00068
1668.04284	0.00076
1666.11446	0.00036
1664.18609	0.00013
1662.25772	0.00057
1660.32934	0.00065
1658.40097	0.00037
1656.47260	0.00087
1654.54422	0.00169
1652.61585	0.00173
1650.68748	0.00109
1648.75910	0.00124
1646.83073	0.00145
1644.90236	0.00106
1642.97398	0.00085
1641.04561	0.00088
1639.11724	0.00072
1637.18886	0.00036
1635.26049	0.00049
1633.33212	0.00080
1631.40375	0.00068
1629.47537	0.00042
1627.54700	0.00039
1625.61863	0.00043
1623.69025	0.00058
1621.76188	0.00085
1619.83351	0.00069
1617.90513	0.00066
1615.97676	0.00062
1614.04839	0.00063
1612.12001	0.00054
1610.19164	0.00056
1608.26327	0.00050
1606.33489	0.00048
1604.40652	0.00055
1602.47815	0.00051
1600.54977	0.00067
1598.62140	0.00078
1596.69303	0.00096
1594.76465	0.00090
1592.83628	0.00070
1590.90791	0.00059
1588.97953	0.00015
1587.05116	0.00032
1585.12279	0.00033
1583.19441	0.00038
1581.26604	0.00053
1579.33767	0.00071
1577.40929	0.00077
1575.48092	0.00106
1573.55255	0.00082
1571.62418	0.00050
1569.69580	0.00047
1567.76743	0.00066
1565.83906	0.00047
1563.91068	0.00018
1561.98231	0.00048
1560.05394	0.00123
1558.12556	0.00163
1556.19719	0.00097
1554.26882	0.00055
1552.34044	0.00071
1550.41207	0.00065
1548.48370	0.00030
1546.55532	0.00032
1544.62695	0.00043
1542.69858	0.00044
1540.77020	0.00021
1538.84183	0.00035
1536.91346	0.00074
1534.98508	0.00093
1533.05671	0.00100
1531.12834	0.00093
1529.19996	0.00087
1527.27159	0.00065
1525.34322	0.00042
1523.41484	0.00029
1521.48647	0.00034
1519.55810	0.00065
1517.62972	0.00064
1515.70135	0.00043
1513.77298	0.00050
1511.84461	0.00060
1509.91623	0.00061
1507.98786	0.00042
1506.05949	0.00052
1504.13111	0.00035
1502.20274	0.00032
1500.27437	0.00062
1498.34599	0.00091
1496.41762	0.00107
1494.48925	0.00159
1492.56087	0.00272
1490.63250	0.00397
1488.70413	0.00493
1486.77575	0.00537
1484.84738	0.00597
1482.91901	0.00684
1480.99063	0.00745
1479.06226	0.00758
1477.13389	0.00740
1475.20551	0.00688
1473.27714	0.00606
1471.34877	0.00510
1469.42039	0.00430
1467.49202	0.00393
1465.56365	0.00395
1463.63527	0.00389
1461.70690	0.00336
1459.77853	0.00271
1457.85016	0.00219
1455.92178	0.00168
1453.99341	0.00154
1452.06504	0.00119
1450.13666	0.00067
1448.20829	0.00049
1446.27992	0.00091
1444.35154	0.00145
1442.42317	0.00156
1440.49480	0.00133
1438.56642	0.00125
1436.63805	0.00158
1434.70968	0.00217
1432.78130	0.00274
1430.85293	0.00299
1428.92456	0.00261
1426.99618	0.00201
1425.06781	0.00169
1423.13944	0.00180
1421.21106	0.00201
1419.28269	0.00203
1417.35432	0.00175
1415.42594	0.00159
1413.49757	0.00177
1411.56920	0.00190
1409.64082	0.00169
1407.71245	0.00145
1405.78408	0.00144
1403.85570	0.00153
1401.92733	0.00151
1399.99896	0.00144
1398.07059	0.00124
1396.14221	0.00097
1394.21384	0.00093
1392.28547	0.00106
1390.35709	0.00123
1388.42872	0.00132
1386.50035	0.00119
1384.57197	0.00109
1382.64360	0.00095
1380.71523	0.00065
1378.78685	0.00070
1376.85848	0.00092
1374.93011	0.00072
1373.00173	0.00026
1371.07336	0.00042
1369.14499	0.00071
1367.21661	0.00139
1365.28824	0.00219
1363.35987	0.00341
1361.43149	0.00522
1359.50312	0.00673
1357.57475	0.00752
1355.64637	0.00799
1353.71800	0.00849
1351.78963	0.00903
1349.86125	0.00934
1347.93288	0.00918
1346.00451	0.00873
1344.07614	0.00840
1342.14776	0.00838
1340.21939	0.00834
1338.29102	0.00782
1336.36264	0.00696
1334.43427	0.00602
1332.50590	0.00499
1330.57752	0.00408
1328.64915	0.00357
1326.72078	0.00342
1324.79240	0.00336
1322.86403	0.00322
1320.93566	0.00316
1319.00728	0.00323
1317.07891	0.00295
1315.15054	0.00238
1313.22216	0.00219
1311.29379	0.00256
1309.36542	0.00294
1307.43704	0.00304
1305.50867	0.00293
1303.58030	0.00277
1301.65192	0.00281
1299.72355	0.00295
1297.79518	0.00301
1295.86680	0.00308
1293.93843	0.00324
1292.01006	0.00328
1290.08168	0.00295
1288.15331	0.00249
1286.22494	0.00216
1284.29657	0.00158
1282.36819	0.00098
1280.43982	0.00093
1278.51145	0.00133
1276.58307	0.00198
1274.65470	0.00202
1272.72633	0.00186
1270.79795	0.00176
1268.86958	0.00172
1266.94121	0.00193
1265.01283	0.00216
1263.08446	0.00214
1261.15609	0.00188
1259.22771	0.00177
1257.29934	0.00224
1255.37097	0.00270
1253.44259	0.00289
1251.51422	0.00307
1249.58585	0.00342
1247.65747	0.00324
1245.72910	0.00248
1243.80073	0.00230
1241.87235	0.00333
1239.94398	0.00465
1238.01561	0.00544
1236.08723	0.00577
1234.15886	0.00560
1232.23049	0.00516
1230.30212	0.00511
1228.37374	0.00567
1226.44537	0.00664
1224.51700	0.00776
1222.58862	0.00842
1220.66025	0.00909
1218.73188	0.00992
1216.80350	0.01025
1214.87513	0.01070
1212.94676	0.01141
1211.01838	0.01138
1209.09001	0.01057
1207.16164	0.01026
1205.23326	0.01108
1203.30489	0.01271
1201.37652	0.01451
1199.44814	0.01584
1197.51977	0.01706
1195.59140	0.01958
1193.66302	0.02321
1191.73465	0.02618
1189.80628	0.02755
1187.87790	0.02734
1185.94953	0.02622
1184.02116	0.02502
1182.09278	0.02364
1180.16441	0.02177
1178.23604	0.01912
1176.30766	0.01569
1174.37929	0.01247
1172.45092	0.01012
1170.52255	0.00803
1168.59417	0.00585
1166.66580	0.00390
1164.73743	0.00206
1162.80905	0.00075
1160.88068	0.00080
1158.95231	0.00108
1157.02393	0.00154
1155.09556	0.00180
1153.16719	0.00205
1151.23881	0.00333
1149.31044	0.00562
1147.38207	0.00785
1145.45369	0.00978
1143.52532	0.01172
1141.59695	0.01374
1139.66857	0.01519
1137.74020	0.01560
1135.81183	0.01513
1133.88345	0.01393
1131.95508	0.01185
1130.02671	0.00878
1128.09833	0.00537
1126.16996	0.00275
1124.24159	0.00181
1122.31321	0.00211
1120.38484	0.00195
1118.45647	0.00155
1116.52809	0.00136
1114.59972	0.00151
1112.67135	0.00191
1110.74298	0.00262
1108.81460	0.00323
1106.88623	0.00308
1104.95786	0.00332
1103.02948	0.00386
1101.10111	0.00441
1099.17274	0.00490
1097.24436	0.00440
1095.31599	0.00338
1093.38762	0.00293
1091.45924	0.00287
1089.53087	0.00259
1087.60250	0.00149
1085.67412	0.00171
1083.74575	0.00193
1081.81738	0.00129
1079.88900	0.00101
1077.96063	0.00063
1076.03226	0.00107
1074.10388	0.00123
1072.17551	0.00181
1070.24714	0.00186
1068.31876	0.00169
1066.39039	0.00192
1064.46202	0.00156
1062.53364	0.00128
1060.60527	0.00056
1058.67690	0.00070
1056.74853	0.00189
1054.82015	0.00344
1052.89178	0.00429
1050.96341	0.00425
1049.03503	0.00384
1047.10666	0.00332
1045.17829	0.00302
1043.24991	0.00255
1041.32154	0.00196
1039.39317	0.00144
1037.46479	0.00072
1035.53642	0.00075
1033.60805	0.00107
1031.67967	0.00117
1029.75130	0.00116
1027.82293	0.00133
1025.89455	0.00116
1023.96618	0.00046
1022.03781	0.00050
1020.10943	0.00061
1018.18106	0.00109
1016.25269	0.00150
1014.32431	0.00235
1012.39594	0.00344
1010.46757	0.00447
1008.53919	0.00593
1006.61082	0.00833
1004.68245	0.01175
1002.75407	0.01589
1000.82570	0.02067
998.89733	0.02551
996.96896	0.02977
995.04058	0.03404
993.11221	0.03875
991.18384	0.04330
989.25546	0.04732
987.32709	0.05096
985.39872	0.05361
983.47034	0.05400
981.54197	0.05200
979.61360	0.04903
977.68522	0.04621
975.75685	0.04423
973.82848	0.04458
971.90010	0.04819
969.97173	0.05401
968.04336	0.06059
966.11498	0.06693
964.18661	0.07133
962.25824	0.07111
960.32986	0.06414
958.40149	0.05198
956.47312	0.04083
954.54474	0.03639
952.61637	0.03947
950.68800	0.04750
948.75962	0.05744
946.83125	0.06727
944.90288	0.07655
942.97451	0.08537
941.04613	0.09323
939.11776	0.09980
937.18939	0.10568
935.26101	0.11104
933.33264	0.11539
931.40427	0.11868
929.47589	0.12068
927.54752	0.12152
925.61915	0.12225
923.69077	0.12302
921.76240	0.12349
919.83403	0.12427
917.90565	0.12612
915.97728	0.12931
914.04891	0.13301
912.12053	0.13486
910.19216	0.13325
908.26379	0.12867
906.33541	0.12178
904.40704	0.11288
902.47867	0.10360
900.55029	0.09646
898.62192	0.09263
896.69355	0.09144
894.76517	0.09143
892.83680	0.09196
890.90843	0.09425
888.98005	0.09922
887.05168	0.10521
885.12331	0.11017
883.19494	0.11376
881.26656	0.11605
879.33819	0.11683
877.40982	0.11659
875.48144	0.11657
873.55307	0.11702
871.62470	0.11706
869.69632	0.11661
867.76795	0.11628
865.83958	0.11609
863.91120	0.11593
861.98283	0.11558
860.05446	0.11451
858.12608	0.11321
856.19771	0.11203
854.26934	0.11042
852.34096	0.10880
850.41259	0.10780
848.48422	0.10708
846.55584	0.10580
844.62747	0.10372
842.69910	0.10111
840.77072	0.09773
838.84235	0.09337
836.91398	0.08873
834.98560	0.08485
833.05723	0.08214
831.12886	0.08000
829.20049	0.07752
827.27211	0.07425
825.34374	0.07091
823.41537	0.06828
821.48699	0.06606
819.55862	0.06417
817.63025	0.06278
815.70187	0.06161
813.77350	0.06075
811.84513	0.06032
809.91675	0.05994
807.98838	0.05994
806.06001	0.06011
804.13163	0.05948
802.20326	0.05807
800.27489	0.05620
798.34651	0.05461
796.41814	0.05430
794.48977	0.05443
792.56139	0.05381
790.63302	0.05217
788.70465	0.04942
786.77627	0.04600
784.84790	0.04316
782.91953	0.04107
780.99115	0.03930
779.06278	0.03787
777.13441	0.03621
775.20603	0.03411
773.27766	0.03247
771.34929	0.03136
769.42092	0.02986
767.49254	0.02845
765.56417	0.02776
763.63580	0.02673
761.70742	0.02472
759.77905	0.02270
757.85068	0.02159
755.92230	0.02076
753.99393	0.01956
752.06556	0.01837
750.13718	0.01767
748.20881	0.01787
746.28044	0.01869
744.35206	0.01924
742.42369	0.01944
740.49532	0.01923
738.56694	0.01798
736.63857	0.01675
734.71020	0.01683
732.78182	0.01695
730.85345	0.01630
728.92508	0.01611
726.99670	0.01646
725.06833	0.01675
723.13996	0.01715
721.21158	0.01678
719.28321	0.01509
717.35484	0.01348
715.42647	0.01285
713.49809	0.01284
711.56972	0.01267
709.64135	0.01231
707.71297	0.01170
705.78460	0.01089
703.85623	0.01121
701.92785	0.01272
699.99948	0.01355
698.07111	0.01246
696.14273	0.01077
694.21436	0.01099
692.28599	0.01120
690.35761	0.01072
688.42924	0.01117
686.50087	0.01160
684.57249	0.01141
682.64412	0.01173
680.71575	0.01206
678.78737	0.01104
676.85900	0.00991
674.93063	0.01187
673.00225	0.01410
671.07388	0.01308
669.14551	0.00928
667.21713	0.00719
665.28876	0.00883
663.36039	0.01013
661.43201	0.01004
659.50364	0.00961
657.57527	0.00966
655.64690	0.00825
653.71852	0.00622
651.79015	0.00653
649.86178	0.00761
647.93340	0.00870
646.00503	0.00882
644.07666	0.00713
642.14828	0.00555
640.21991	0.00725
638.29154	0.00925
636.36316	0.01128
634.43479	0.01260
632.50642	0.01093
630.57804	0.00824
628.64967	0.00662
626.72130	0.00616
624.79292	0.00500
622.86455	0.00491
620.93618	0.00382
619.00780	0.00454
617.07943	0.00745
615.15106	0.00779
613.22268	0.00917
611.29431	0.00830
609.36594	0.00612
607.43756	0.00495
605.50919	0.00339
603.58082	0.00691
601.65244	0.01468
599.72407	0.01697
