3997.51769	0.26383
3995.58931	0.26436
3993.66094	0.26534
3991.73257	0.26618
3989.80419	0.26649
3987.87582	0.26606
3985.94745	0.26537
3984.01907	0.26518
3982.09070	0.26543
3980.16233	0.26586
3978.23396	0.26641
3976.30558	0.26672
3974.37721	0.26660
3972.44884	0.26630
3970.52046	0.26622
3968.59209	0.26668
3966.66372	0.26726
3964.73534	0.26782
3962.80697	0.26870
3960.87860	0.26950
3958.95022	0.26959
3957.02185	0.26936
3955.09348	0.26941
3953.16510	0.26973
3951.23673	0.27025
3949.30836	0.27112
3947.37998	0.27192
3945.45161	0.27253
3943.52324	0.27330
3941.59486	0.27363
3939.66649	0.27287
3937.73812	0.27175
3935.80974	0.27153
3933.88137	0.27282
3931.95300	0.27461
3930.02462	0.27522
3928.09625	0.27489
3926.16788	0.27479
3924.23950	0.27490
3922.31113	0.27507
3920.38276	0.27568
3918.45439	0.27666
3916.52601	0.27702
3914.59764	0.27625
3912.66927	0.27531
3910.74089	0.27528
3908.81252	0.27664
3906.88415	0.27906
3904.95577	0.28123
3903.02740	0.28188
3901.09903	0.28149
3899.17065	0.28100
3897.24228	0.28075
3895.31391	0.28129
3893.38553	0.28248
3891.45716	0.28288
3889.52879	0.28219
3887.60041	0.28239
3885.67204	0.28372
3883.74367	0.28460
3881.81529	0.28476
3879.88692	0.28458
3877.95855	0.28428
3876.03017	0.28451
3874.10180	0.28537
3872.17343	0.28651
3870.24505	0.28706
3868.31668	0.28660
3866.38831	0.28697
3864.45994	0.28851
3862.53156	0.28882
3860.60319	0.28788
3858.67482	0.28769
3856.74644	0.28850
3854.81807	0.29021
3852.88970	0.29180
3850.96132	0.29059
3849.03295	0.28844
3847.10458	0.28751
3845.17620	0.28839
3843.24783	0.29032
3841.31946	0.29220
3839.39108	0.29348
3837.46271	0.29339
3835.53434	0.29232
3833.60596	0.29134
3831.67759	0.29044
3829.74922	0.28993
3827.82084	0.29010
3825.89247	0.29055
3823.96410	0.29170
3822.03572	0.29410
3820.10735	0.29534
3818.17898	0.29465
3816.25060	0.29386
3814.32223	0.29233
3812.39386	0.29079
3810.46548	0.29057
3808.53711	0.29156
3806.60874	0.29250
3804.68037	0.29306
3802.75199	0.29449
3800.82362	0.29513
3798.89525	0.29352
3796.96687	0.29181
3795.03850	0.29047
3793.11013	0.28968
3791.18175	0.28964
3789.25338	0.28977
3787.32501	0.28968
3785.39663	0.28962
3783.46826	0.29006
3781.53989	0.29106
3779.61151	0.29165
3777.68314	0.29088
3775.75477	0.28986
3773.82639	0.28999
3771.89802	0.29131
3769.96965	0.29254
3768.04127	0.29254
3766.11290	0.29195
3764.18453	0.29115
3762.25615	0.29082
3760.32778	0.29148
3758.39941	0.29159
3756.47103	0.29075
3754.54266	0.29110
3752.61429	0.29354
3750.68591	0.29601
3748.75754	0.29566
3746.82917	0.29479
3744.90080	0.29408
3742.97242	0.29211
3741.04405	0.29051
3739.11568	0.29053
3737.18730	0.29177
3735.25893	0.29267
3733.33056	0.29125
3731.40218	0.28862
3729.47381	0.28698
3727.54544	0.28671
3725.61706	0.28712
3723.68869	0.28718
3721.76032	0.28643
3719.83194	0.28504
3717.90357	0.28337
3715.97520	0.28232
3714.04682	0.28274
3712.11845	0.28389
3710.19008	0.28280
3708.26170	0.27977
3706.33333	0.27729
3704.40496	0.27577
3702.47658	0.27454
3700.54821	0.27260
3698.61984	0.27048
3696.69146	0.26872
3694.76309	0.26716
3692.83472	0.26619
3690.90635	0.26535
3688.97797	0.26194
3687.04960	0.25585
3685.12123	0.25084
3683.19285	0.24715
3681.26448	0.24355
3679.33611	0.24004
3677.40773	0.23710
3675.47936	0.23256
3673.55099	0.22610
3671.62261	0.22130
3669.69424	0.21534
3667.76587	0.20663
3665.83749	0.19881
3663.90912	0.19225
3661.98075	0.18600
3660.05237	0.17989
3658.12400	0.17391
3656.19563	0.16721
3654.26725	0.16094
3652.33888	0.15645
3650.41051	0.15137
3648.48213	0.14320
3646.55376	0.13473
3644.62539	0.12815
3642.69701	0.12267
3640.76864	0.11739
3638.84027	0.11153
3636.91189	0.10538
3634.98352	0.09997
3633.05515	0.09589
3631.12678	0.09283
3629.19840	0.08877
3627.27003	0.08314
3625.34166	0.07840
3623.41328	0.07435
3621.48491	0.07049
3619.55654	0.06658
3617.62816	0.06297
3615.69979	0.06018
3613.77142	0.05744
3611.84304	0.05433
3609.91467	0.05132
3607.98630	0.04817
3606.05792	0.04502
3604.12955	0.04254
3602.20118	0.04013
3600.27280	0.03745
3598.34443	0.03518
3596.41606	0.03331
3594.48768	0.03121
3592.55931	0.02909
3590.63094	0.02754
3588.70256	0.02626
3586.77419	0.02453
3584.84582	0.02257
3582.91744	0.02112
3580.98907	0.02005
3579.06070	0.01888
3577.13233	0.01772
3575.20395	0.01668
3573.27558	0.01573
3571.34721	0.01486
3569.41883	0.01392
3567.49046	0.01251
3565.56209	0.01110
3563.63371	0.01042
3561.70534	0.00993
3559.77697	0.00935
3557.84859	0.00878
3555.92022	0.00819
3553.99185	0.00754
3552.06347	0.00707
3550.13510	0.00663
3548.20673	0.00579
3546.27835	0.00513
3544.34998	0.00497
3542.42161	0.00470
3540.49323	0.00410
3538.56486	0.00352
3536.63649	0.00298
3534.70811	0.00261
3532.77974	0.00281
3530.85137	0.00325
3528.92299	0.00312
3526.99462	0.00264
3525.06625	0.00246
3523.13787	0.00226
3521.20950	0.00197
3519.28113	0.00157
3517.35276	0.00094
3515.42438	0.00095
3513.49601	0.00141
3511.56764	0.00138
3509.63926	0.00124
3507.71089	0.00108
3505.78252	0.00074
3503.85414	0.00064
3501.92577	0.00048
3499.99740	0.00033
3498.06902	0.00086
3496.14065	0.00111
3494.21228	0.00073
3492.28390	0.00061
3490.35553	0.00042
3488.42716	0.00043
3486.49878	0.00061
3484.57041	0.00063
3482.64204	0.00065
3480.71366	0.00071
3478.78529	0.00110
3476.85692	0.00151
3474.92854	0.00160
3473.00017	0.00137
3471.07180	0.00123
3469.14342	0.00137
3467.21505	0.00110
3465.28668	0.00038
3463.35831	0.00073
3461.42993	0.00100
3459.50156	0.00101
3457.57319	0.00091
3455.64481	0.00074
3453.71644	0.00085
3451.78807	0.00079
3449.85969	0.00094
3447.93132	0.00137
3446.00295	0.00090
3444.07457	0.00054
3442.14620	0.00085
3440.21783	0.00135
3438.28945	0.00134
3436.36108	0.00058
3434.43271	0.00050
3432.50433	0.00095
3430.57596	0.00102
3428.64759	0.00100
3426.71921	0.00104
3424.79084	0.00100
3422.86247	0.00088
3420.93409	0.00088
3419.00572	0.00079
3417.07735	0.00083
3415.14897	0.00105
3413.22060	0.00116
3411.29223	0.00113
3409.36385	0.00104
3407.43548	0.00083
3405.50711	0.00060
3403.57874	0.00028
3401.65036	0.00082
3399.72199	0.00102
3397.79362	0.00169
3395.86524	0.00197
3393.93687	0.00165
3392.00850	0.00114
3390.08012	0.00095
3388.15175	0.00104
3386.22338	0.00113
3384.29500	0.00079
3382.36663	0.00047
3380.43826	0.00079
3378.50988	0.00088
3376.58151	0.00108
3374.65314	0.00083
3372.72476	0.00045
3370.79639	0.00088
3368.86802	0.00116
3366.93964	0.00126
3365.01127	0.00139
3363.08290	0.00122
3361.15452	0.00109
3359.22615	0.00104
3357.29778	0.00087
3355.36940	0.00074
3353.44103	0.00072
3351.51266	0.00061
3349.58428	0.00076
3347.65591	0.00102
3345.72754	0.00071
3343.79917	0.00067
3341.87079	0.00060
3339.94242	0.00078
3338.01405	0.00061
3336.08567	0.00033
3334.15730	0.00031
3332.22893	0.00063
3330.30055	0.00086
3328.37218	0.00080
3326.44381	0.00112
3324.51543	0.00071
3322.58706	0.00088
3320.65869	0.00080
3318.73031	0.00114
3316.80194	0.00088
3314.87357	0.00060
3312.94519	0.00112
3311.01682	0.00097
3309.08845	0.00079
3307.16007	0.00050
3305.23170	0.00113
3303.30333	0.00151
3301.37495	0.00118
3299.44658	0.00089
3297.51821	0.00072
3295.58983	0.00062
3293.66146	0.00054
3291.73309	0.00062
3289.80472	0.00092
3287.87634	0.00094
3285.94797	0.00082
3284.01960	0.00100
3282.09122	0.00126
3280.16285	0.00119
3278.23448	0.00090
3276.30610	0.00078
3274.37773	0.00064
3272.44936	0.00065
3270.52098	0.00052
3268.59261	0.00016
3266.66424	0.00071
3264.73586	0.00101
3262.80749	0.00081
3260.87912	0.00092
3258.95074	0.00112
3257.02237	0.00113
3255.09400	0.00107
3253.16562	0.00109
3251.23725	0.00110
3249.30888	0.00082
3247.38050	0.00050
3245.45213	0.00036
3243.52376	0.00037
3241.59538	0.00054
3239.66701	0.00047
3237.73864	0.00056
3235.81026	0.00028
3233.88189	0.00083
3231.95352	0.00109
3230.02515	0.00126
3228.09677	0.00154
3226.16840	0.00131
3224.24003	0.00064
3222.31165	0.00059
3220.38328	0.00071
3218.45491	0.00068
3216.52653	0.00078
3214.59816	0.00102
3212.66979	0.00102
3210.74141	0.00093
3208.81304	0.00066
3206.88467	0.00046
3204.95629	0.00073
3203.02792	0.00093
3201.09955	0.00113
3199.17117	0.00150
3197.24280	0.00132
3195.31443	0.00093
3193.38605	0.00098
3191.45768	0.00077
3189.52931	0.00055
3187.60093	0.00047
3185.67256	0.00079
3183.74419	0.00097
3181.81581	0.00104
3179.88744	0.00072
3177.95907	0.00051
3176.03070	0.00042
3174.10232	0.00081
3172.17395	0.00084
3170.24558	0.00100
3168.31720	0.00083
3166.38883	0.00073
3164.46046	0.00113
3162.53208	0.00142
3160.60371	0.00157
3158.67534	0.00152
3156.74696	0.00137
3154.81859	0.00140
3152.89022	0.00148
3150.96184	0.00127
3149.03347	0.00135
3147.10510	0.00166
3145.17672	0.00164
3143.24835	0.00136
3141.31998	0.00127
3139.39160	0.00116
3137.46323	0.00118
3135.53486	0.00146
3133.60648	0.00115
3131.67811	0.00092
3129.74974	0.00105
3127.82136	0.00134
3125.89299	0.00123
3123.96462	0.00072
3122.03624	0.00040
3120.10787	0.00075
3118.17950	0.00136
3116.25113	0.00138
3114.32275	0.00108
3112.39438	0.00092
3110.46601	0.00086
3108.53763	0.00101
3106.60926	0.00119
3104.68089	0.00112
3102.75251	0.00110
3100.82414	0.00111
3098.89577	0.00120
3096.96739	0.00125
3095.03902	0.00122
3093.11065	0.00138
3091.18227	0.00149
3089.25390	0.00115
3087.32553	0.00067
3085.39715	0.00046
3083.46878	0.00081
3081.54041	0.00122
3079.61203	0.00106
3077.68366	0.00048
3075.75529	0.00034
3073.82691	0.00088
3071.89854	0.00162
3069.97017	0.00189
3068.04179	0.00182
3066.11342	0.00173
3064.18505	0.00157
3062.25668	0.00136
3060.32830	0.00114
3058.39993	0.00117
3056.47156	0.00159
3054.54318	0.00229
3052.61481	0.00288
3050.68644	0.00311
3048.75806	0.00313
3046.82969	0.00308
3044.90132	0.00310
3042.97294	0.00316
3041.04457	0.00326
3039.11620	0.00326
3037.18782	0.00312
3035.25945	0.00307
3033.33108	0.00337
3031.40270	0.00397
3029.47433	0.00443
3027.54596	0.00452
3025.61758	0.00455
3023.68921	0.00494
3021.76084	0.00538
3019.83246	0.00540
3017.90409	0.00525
3015.97572	0.00509
3014.04734	0.00488
3012.11897	0.00493
3010.19060	0.00550
3008.26222	0.00603
3006.33385	0.00592
3004.40548	0.00558
3002.47711	0.00579
3000.54873	0.00611
2998.62036	0.00567
2996.69199	0.00493
2994.76361	0.00474
2992.83524	0.00493
2990.90687	0.00494
2988.97849	0.00469
2987.05012	0.00430
2985.12175	0.00382
2983.19337	0.00344
2981.26500	0.00344
2979.33663	0.00359
2977.40825	0.00352
2975.47988	0.00349
2973.55151	0.00339
2971.62313	0.00280
2969.69476	0.00194
2967.76639	0.00161
2965.83801	0.00156
2963.90964	0.00177
2961.98127	0.00168
2960.05289	0.00143
2958.12452	0.00187
2956.19615	0.00246
2954.26777	0.00292
2952.33940	0.00319
2950.41103	0.00339
2948.48266	0.00377
2946.55428	0.00390
2944.62591	0.00345
2942.69754	0.00288
2940.76916	0.00263
2938.84079	0.00243
2936.91242	0.00227
2934.98404	0.00208
2933.05567	0.00170
2931.12730	0.00168
2929.19892	0.00229
2927.27055	0.00286
2925.34218	0.00292
2923.41380	0.00288
2921.48543	0.00321
2919.55706	0.00346
2917.62868	0.00342
2915.70031	0.00360
2913.77194	0.00406
2911.84356	0.00420
2909.91519	0.00385
2907.98682	0.00385
2906.05844	0.00460
2904.13007	0.00529
2902.20170	0.00559
2900.27332	0.00571
2898.34495	0.00554
2896.41658	0.00525
2894.48820	0.00508
2892.55983	0.00505
2890.63146	0.00519
2888.70309	0.00540
2886.77471	0.00568
2884.84634	0.00585
2882.91797	0.00583
2880.98959	0.00569
2879.06122	0.00536
2877.13285	0.00515
2875.20447	0.00545
2873.27610	0.00583
2871.34773	0.00612
2869.41935	0.00660
2867.49098	0.00724
2865.56261	0.00784
2863.63423	0.00824
2861.70586	0.00851
2859.77749	0.00912
2857.84911	0.01022
2855.92074	0.01126
2853.99237	0.01187
2852.06399	0.01206
2850.13562	0.01211
2848.20725	0.01288
2846.27887	0.01456
2844.35050	0.01622
2842.42213	0.01734
2840.49375	0.01803
2838.56538	0.01850
2836.63701	0.01896
2834.70863	0.01949
2832.78026	0.02008
2830.85189	0.02067
2828.92352	0.02120
2826.99514	0.02171
2825.06677	0.02226
2823.13840	0.02286
2821.21002	0.02352
2819.28165	0.02424
2817.35328	0.02498
2815.42490	0.02572
2813.49653	0.02659
2811.56816	0.02760
2809.63978	0.02838
2807.71141	0.02873
2805.78304	0.02899
2803.85466	0.02966
2801.92629	0.03071
2799.99792	0.03168
2798.06954	0.03243
2796.14117	0.03301
2794.21280	0.03330
2792.28442	0.03352
2790.35605	0.03405
2788.42768	0.03485
2786.49930	0.03567
2784.57093	0.03630
2782.64256	0.03660
2780.71418	0.03686
2778.78581	0.03749
2776.85744	0.03828
2774.92907	0.03872
2773.00069	0.03892
2771.07232	0.03922
2769.14395	0.03967
2767.21557	0.04027
2765.28720	0.04099
2763.35883	0.04167
2761.43045	0.04225
2759.50208	0.04280
2757.57371	0.04333
2755.64533	0.04390
2753.71696	0.04469
2751.78859	0.04533
2749.86021	0.04541
2747.93184	0.04540
2746.00347	0.04567
2744.07509	0.04613
2742.14672	0.04673
2740.21835	0.04744
2738.28997	0.04800
2736.36160	0.04844
2734.43323	0.04903
2732.50485	0.04970
2730.57648	0.05028
2728.64811	0.05091
2726.71973	0.05154
2724.79136	0.05187
2722.86299	0.05213
2720.93461	0.05278
2719.00624	0.05359
2717.07787	0.05421
2715.14950	0.05474
2713.22112	0.05541
2711.29275	0.05619
2709.36438	0.05701
2707.43600	0.05775
2705.50763	0.05831
2703.57926	0.05874
2701.65088	0.05925
2699.72251	0.06012
2697.79414	0.06121
2695.86576	0.06197
2693.93739	0.06227
2692.00902	0.06248
2690.08064	0.06291
2688.15227	0.06363
2686.22390	0.06453
2684.29552	0.06523
2682.36715	0.06567
2680.43878	0.06608
2678.51040	0.06637
2676.58203	0.06672
2674.65366	0.06755
2672.72528	0.06842
2670.79691	0.06873
2668.86854	0.06880
2666.94016	0.06925
2665.01179	0.06990
2663.08342	0.07044
2661.15505	0.07106
2659.22667	0.07185
2657.29830	0.07249
2655.36993	0.07283
2653.44155	0.07291
2651.51318	0.07295
2649.58481	0.07332
2647.65643	0.07387
2645.72806	0.07413
2643.79969	0.07408
2641.87131	0.07418
2639.94294	0.07454
2638.01457	0.07481
2636.08619	0.07509
2634.15782	0.07577
2632.22945	0.07648
2630.30107	0.07670
2628.37270	0.07682
2626.44433	0.07724
2624.51595	0.07778
2622.58758	0.07837
2620.65921	0.07903
2618.73083	0.07951
2616.80246	0.07995
2614.87409	0.08053
2612.94571	0.08102
2611.01734	0.08140
2609.08897	0.08176
2607.16059	0.08217
2605.23222	0.08283
2603.30385	0.08359
2601.37548	0.08413
2599.44710	0.08457
2597.51873	0.08506
2595.59036	0.08550
2593.66198	0.08580
2591.73361	0.08601
2589.80524	0.08639
2587.87686	0.08716
2585.94849	0.08809
2584.02012	0.08890
2582.09174	0.08960
2580.16337	0.09021
2578.23500	0.09063
2576.30662	0.09109
2574.37825	0.09182
2572.44988	0.09250
2570.52150	0.09297
2568.59313	0.09368
2566.66476	0.09482
2564.73638	0.09599
2562.80801	0.09692
2560.87964	0.09779
2558.95126	0.09880
2557.02289	0.09973
2555.09452	0.10048
2553.16614	0.10132
2551.23777	0.10218
2549.30940	0.10272
2547.38103	0.10320
2545.45265	0.10397
2543.52428	0.10489
2541.59591	0.10569
2539.66753	0.10639
2537.73916	0.10690
2535.81079	0.10713
2533.88241	0.10741
2531.95404	0.10802
2530.02567	0.10873
2528.09729	0.10943
2526.16892	0.11013
2524.24055	0.11077
2522.31217	0.11116
2520.38380	0.11140
2518.45543	0.11176
2516.52705	0.11234
2514.59868	0.11298
2512.67031	0.11355
2510.74193	0.11417
2508.81356	0.11505
2506.88519	0.11611
2504.95681	0.11692
2503.02844	0.11748
2501.10007	0.11819
2499.17169	0.11893
2497.24332	0.11943
2495.31495	0.11996
2493.38657	0.12071
2491.45820	0.12150
2489.52983	0.12223
2487.60146	0.12296
2485.67308	0.12376
2483.74471	0.12459
2481.81634	0.12528
2479.88796	0.12600
2477.95959	0.12695
2476.03122	0.12791
2474.10284	0.12854
2472.17447	0.12901
2470.24610	0.12972
2468.31772	0.13074
2466.38935	0.13177
2464.46098	0.13267
2462.53260	0.13357
2460.60423	0.13463
2458.67586	0.13579
2456.74748	0.13679
2454.81911	0.13749
2452.89074	0.13813
2450.96236	0.13893
2449.03399	0.13980
2447.10562	0.14067
2445.17724	0.14150
2443.24887	0.14222
2441.32050	0.14286
2439.39212	0.14361
2437.46375	0.14453
2435.53538	0.14534
2433.60700	0.14593
2431.67863	0.14644
2429.75026	0.14703
2427.82189	0.14772
2425.89351	0.14856
2423.96514	0.14951
2422.03677	0.15039
2420.10839	0.15103
2418.18002	0.15154
2416.25165	0.15211
2414.32327	0.15282
2412.39490	0.15372
2410.46653	0.15472
2408.53815	0.15558
2406.60978	0.15618
2404.68141	0.15666
2402.75303	0.15728
2400.82466	0.15813
2398.89629	0.15903
2396.96791	0.15999
2395.03954	0.16113
2393.11117	0.16227
2391.18279	0.16314
2389.25442	0.16385
2387.32605	0.16457
2385.39767	0.16553
2383.46930	0.16685
2381.54093	0.16810
2379.61255	0.16885
2377.68418	0.16962
2375.75581	0.17097
2373.82744	0.17237
2371.89906	0.17354
2369.97069	0.17504
2368.04232	0.17666
2366.11394	0.17774
2364.18557	0.17864
2362.25720	0.18011
2360.32882	0.18229
2358.40045	0.18399
2356.47208	0.18374
2354.54370	0.18216
2352.61533	0.18105
2350.68696	0.18106
2348.75858	0.18168
2346.83021	0.18244
2344.90184	0.18325
2342.97346	0.18420
2341.04509	0.18469
2339.11672	0.18456
2337.18834	0.18457
2335.25997	0.18454
2333.33160	0.18426
2331.40322	0.18439
2329.47485	0.18534
2327.54648	0.18629
2325.61810	0.18648
2323.68973	0.18638
2321.76136	0.18620
2319.83298	0.18581
2317.90461	0.18567
2315.97624	0.18605
2314.04787	0.18670
2312.11949	0.18730
2310.19112	0.18775
2308.26275	0.18819
2306.33437	0.18880
2304.40600	0.18954
2302.47763	0.19033
2300.54925	0.19087
2298.62088	0.19097
2296.69251	0.19102
2294.76413	0.19156
2292.83576	0.19259
2290.90739	0.19367
2288.97901	0.19431
2287.05064	0.19455
2285.12227	0.19478
2283.19389	0.19495
2281.26552	0.19498
2279.33715	0.19512
2277.40877	0.19556
2275.48040	0.19609
2273.55203	0.19653
2271.62365	0.19701
2269.69528	0.19744
2267.76691	0.19762
2265.83853	0.19762
2263.91016	0.19778
2261.98179	0.19803
2260.05342	0.19818
2258.12504	0.19844
2256.19667	0.19887
2254.26830	0.19926
2252.33992	0.19967
2250.41155	0.20012
2248.48318	0.20048
2246.55480	0.20073
2244.62643	0.20083
2242.69806	0.20071
2240.76968	0.20075
2238.84131	0.20120
2236.91294	0.20174
2234.98456	0.20217
2233.05619	0.20254
2231.12782	0.20272
2229.19944	0.20272
2227.27107	0.20271
2225.34270	0.20271
2223.41432	0.20257
2221.48595	0.20242
2219.55758	0.20260
2217.62920	0.20295
2215.70083	0.20307
2213.77246	0.20298
2211.84408	0.20297
2209.91571	0.20300
2207.98734	0.20294
2206.05896	0.20298
2204.13059	0.20326
2202.20222	0.20351
2200.27385	0.20347
2198.34547	0.20327
2196.41710	0.20322
2194.48873	0.20339
2192.56035	0.20355
2190.63198	0.20351
2188.70361	0.20341
2186.77523	0.20351
2184.84686	0.20377
2182.91849	0.20399
2180.99011	0.20406
2179.06174	0.20412
2177.13337	0.20437
2175.20499	0.20461
2173.27662	0.20450
2171.34825	0.20426
2169.41987	0.20438
2167.49150	0.20466
2165.56313	0.20458
2163.63475	0.20427
2161.70638	0.20414
2159.77801	0.20428
2157.84963	0.20447
2155.92126	0.20456
2153.99289	0.20453
2152.06451	0.20445
2150.13614	0.20449
2148.20777	0.20472
2146.27940	0.20497
2144.35102	0.20508
2142.42265	0.20502
2140.49428	0.20493
2138.56590	0.20502
2136.63753	0.20529
2134.70916	0.20548
2132.78078	0.20541
2130.85241	0.20528
2128.92404	0.20536
2126.99566	0.20564
2125.06729	0.20598
2123.13892	0.20635
2121.21054	0.20677
2119.28217	0.20719
2117.35380	0.20758
2115.42542	0.20785
2113.49705	0.20801
2111.56868	0.20828
2109.64030	0.20859
2107.71193	0.20894
2105.78356	0.20949
2103.85518	0.20994
2101.92681	0.21007
2099.99844	0.21026
2098.07006	0.21065
2096.14169	0.21101
2094.21332	0.21134
2092.28494	0.21180
2090.35657	0.21221
2088.42820	0.21249
2086.49983	0.21283
2084.57145	0.21320
2082.64308	0.21337
2080.71471	0.21331
2078.78633	0.21337
2076.85796	0.21371
2074.92959	0.21405
2073.00121	0.21425
2071.07284	0.21449
2069.14447	0.21493
2067.21609	0.21541
2065.28772	0.21564
2063.35935	0.21561
2061.43097	0.21570
2059.50260	0.21608
2057.57423	0.21655
2055.64585	0.21688
2053.71748	0.21718
2051.78911	0.21772
2049.86073	0.21840
2047.93236	0.21901
2046.00399	0.21954
2044.07561	0.22007
2042.14724	0.22072
2040.21887	0.22144
2038.29049	0.22202
2036.36212	0.22252
2034.43375	0.22315
2032.50538	0.22386
2030.57700	0.22453
2028.64863	0.22494
2026.72026	0.22514
2024.79188	0.22541
2022.86351	0.22578
2020.93514	0.22615
2019.00676	0.22659
2017.07839	0.22686
2015.15002	0.22691
2013.22164	0.22723
2011.29327	0.22783
2009.36490	0.22841
2007.43652	0.22890
2005.50815	0.22939
2003.57978	0.23000
2001.65140	0.23063
1999.72303	0.23119
1997.79466	0.23176
1995.86628	0.23234
1993.93791	0.23298
1992.00954	0.23360
1990.08116	0.23410
1988.15279	0.23464
1986.22442	0.23520
1984.29604	0.23561
1982.36767	0.23591
1980.43930	0.23615
1978.51092	0.23641
1976.58255	0.23685
1974.65418	0.23736
1972.72581	0.23770
1970.79743	0.23808
1968.86906	0.23868
1966.94069	0.23914
1965.01231	0.23930
1963.08394	0.23941
1961.15557	0.23961
1959.22719	0.23996
1957.29882	0.24051
1955.37045	0.24104
1953.44207	0.24120
1951.51370	0.24117
1949.58533	0.24145
1947.65695	0.24212
1945.72858	0.24303
1943.80021	0.24408
1941.87183	0.24484
1939.94346	0.24497
1938.01509	0.24491
1936.08671	0.24511
1934.15834	0.24564
1932.22997	0.24622
1930.30159	0.24664
1928.37322	0.24706
1926.44485	0.24760
1924.51647	0.24819
1922.58810	0.24852
1920.65973	0.24866
1918.73135	0.24894
1916.80298	0.24919
1914.87461	0.24919
1912.94624	0.24930
1911.01786	0.24975
1909.08949	0.25032
1907.16112	0.25071
1905.23274	0.25091
1903.30437	0.25104
1901.37600	0.25103
1899.44762	0.25105
1897.51925	0.25139
1895.59088	0.25196
1893.66250	0.25246
1891.73413	0.25297
1889.80576	0.25331
1887.87738	0.25308
1885.94901	0.25284
1884.02064	0.25312
1882.09226	0.25363
1880.16389	0.25393
1878.23552	0.25400
1876.30714	0.25414
1874.37877	0.25440
1872.45040	0.25486
1870.52202	0.25565
1868.59365	0.25624
1866.66528	0.25585
1864.73690	0.25518
1862.80853	0.25500
1860.88016	0.25513
1858.95179	0.25522
1857.02341	0.25522
1855.09504	0.25526
1853.16667	0.25538
1851.23829	0.25548
1849.30992	0.25573
1847.38155	0.25629
1845.45317	0.25708
1843.52480	0.25742
1841.59643	0.25682
1839.66805	0.25602
1837.73968	0.25571
1835.81131	0.25569
1833.88293	0.25575
1831.95456	0.25625
1830.02619	0.25685
1828.09781	0.25665
1826.16944	0.25615
1824.24107	0.25566
1822.31269	0.25489
1820.38432	0.25404
1818.45595	0.25347
1816.52757	0.25315
1814.59920	0.25301
1812.67083	0.25300
1810.74245	0.25279
1808.81408	0.25215
1806.88571	0.25132
1804.95733	0.25066
1803.02896	0.25041
1801.10059	0.25023
1799.17222	0.24941
1797.24384	0.24804
1795.31547	0.24698
1793.38710	0.24628
1791.45872	0.24468
1789.53035	0.24216
1787.60198	0.24005
1785.67360	0.23842
1783.74523	0.23703
1781.81686	0.23568
1779.88848	0.23385
1777.96011	0.23170
1776.03174	0.23024
1774.10336	0.22966
1772.17499	0.22839
1770.24662	0.22543
1768.31824	0.22228
1766.38987	0.21953
1764.46150	0.21727
1762.53312	0.21509
1760.60475	0.21199
1758.67638	0.20805
1756.74800	0.20335
1754.81963	0.19837
1752.89126	0.19389
1750.96288	0.18904
1749.03451	0.18238
1747.10614	0.17444
1745.17777	0.16627
1743.24939	0.15827
1741.32102	0.15012
1739.39265	0.14150
1737.46427	0.13460
1735.53590	0.12940
1733.60753	0.12253
1731.67915	0.11473
1729.75078	0.10763
1727.82241	0.10050
1725.89403	0.09373
1723.96566	0.08704
1722.03729	0.08066
1720.10891	0.07492
1718.18054	0.06800
1716.25217	0.05897
1714.32379	0.05092
1712.39542	0.04427
1710.46705	0.03794
1708.53867	0.03147
1706.61030	0.02430
1704.68193	0.01738
1702.75355	0.01257
1700.82518	0.00866
1698.89681	0.00488
1696.96843	0.00292
1695.04006	0.00196
1693.11169	0.00137
1691.18331	0.00086
1689.25494	0.00038
1687.32657	0.00033
1685.39820	0.00040
1683.46982	0.00041
1681.54145	0.00050
1679.61308	0.00054
1677.68470	0.00047
1675.75633	0.00045
1673.82796	0.00073
1671.89958	0.00112
1669.97121	0.00075
1668.04284	0.00055
1666.11446	0.00062
1664.18609	0.00081
1662.25772	0.00076
1660.32934	0.00087
1658.40097	0.00082
1656.47260	0.00066
1654.54422	0.00068
1652.61585	0.00061
1650.68748	0.00040
1648.75910	0.00046
1646.83073	0.00064
1644.90236	0.00067
1642.97398	0.00077
1641.04561	0.00076
1639.11724	0.00057
1637.18886	0.00068
1635.26049	0.00053
1633.33212	0.00044
1631.40375	0.00059
1629.47537	0.00081
1627.54700	0.00095
1625.61863	0.00112
1623.69025	0.00094
1621.76188	0.00097
1619.83351	0.00117
1617.90513	0.00102
1615.97676	0.00071
1614.04839	0.00061
1612.12001	0.00069
1610.19164	0.00067
1608.26327	0.00053
1606.33489	0.00043
1604.40652	0.00060
1602.47815	0.00088
1600.54977	0.00085
1598.62140	0.00074
1596.69303	0.00072
1594.76465	0.00074
1592.83628	0.00067
1590.90791	0.00057
1588.97953	0.00065
1587.05116	0.00075
1585.12279	0.00067
1583.19441	0.00053
1581.26604	0.00060
1579.33767	0.00078
1577.40929	0.00085
1575.48092	0.00068
1573.55255	0.00066
1571.62418	0.00070
1569.69580	0.00060
1567.76743	0.00033
1565.83906	0.00046
1563.91068	0.00082
1561.98231	0.00088
1560.05394	0.00061
1558.12556	0.00050
1556.19719	0.00052
1554.26882	0.00036
1552.34044	0.00022
1550.41207	0.00039
1548.48370	0.00066
1546.55532	0.00062
1544.62695	0.00037
1542.69858	0.00034
1540.77020	0.00098
1538.84183	0.00086
1536.91346	0.00091
1534.98508	0.00083
1533.05671	0.00076
1531.12834	0.00075
1529.19996	0.00072
1527.27159	0.00061
1525.34322	0.00067
1523.41484	0.00094
1521.48647	0.00063
1519.55810	0.00079
1517.62972	0.00071
1515.70135	0.00053
1513.77298	0.00061
1511.84461	0.00059
1509.91623	0.00053
1507.98786	0.00099
1506.05949	0.00143
1504.13111	0.00104
1502.20274	0.00054
1500.27437	0.00056
1498.34599	0.00104
1496.41762	0.00128
1494.48925	0.00164
1492.56087	0.00204
1490.63250	0.00227
1488.70413	0.00253
1486.77575	0.00298
1484.84738	0.00365
1482.91901	0.00418
1480.99063	0.00429
1479.06226	0.00425
1477.13389	0.00427
1475.20551	0.00416
1473.27714	0.00373
1471.34877	0.00316
1469.42039	0.00273
1467.49202	0.00245
1465.56365	0.00219
1463.63527	0.00190
1461.70690	0.00164
1459.77853	0.00124
1457.85016	0.00112
1455.92178	0.00151
1453.99341	0.00149
1452.06504	0.00098
1450.13666	0.00050
1448.20829	0.00068
1446.27992	0.00084
1444.35154	0.00068
1442.42317	0.00075
1440.49480	0.00091
1438.56642	0.00103
1436.63805	0.00105
1434.70968	0.00079
1432.78130	0.00054
1430.85293	0.00085
1428.92456	0.00080
1426.99618	0.00091
1425.06781	0.00141
1423.13944	0.00164
1421.21106	0.00162
1419.28269	0.00152
1417.35432	0.00139
1415.42594	0.00133
1413.49757	0.00142
1411.56920	0.00148
1409.64082	0.00143
1407.71245	0.00130
1405.78408	0.00120
1403.85570	0.00091
1401.92733	0.00075
1399.99896	0.00056
1398.07059	0.00046
1396.14221	0.00077
1394.21384	0.00099
1392.28547	0.00080
1390.35709	0.00063
1388.42872	0.00097
1386.50035	0.00075
1384.57197	0.00056
1382.64360	0.00061
1380.71523	0.00076
1378.78685	0.00073
1376.85848	0.00097
1374.93011	0.00109
1373.00173	0.00101
1371.07336	0.00092
1369.14499	0.00092
1367.21661	0.00099
1365.28824	0.00149
1363.35987	0.00210
1361.43149	0.00299
1359.50312	0.00337
1357.57475	0.00347
1355.64637	0.00406
1353.71800	0.00491
1351.78963	0.00532
1349.86125	0.00533
1347.93288	0.00522
1346.00451	0.00485
1344.07614	0.00440
1342.14776	0.00439
1340.21939	0.00463
1338.29102	0.00441
1336.36264	0.00383
1334.43427	0.00319
1332.50590	0.00241
1330.57752	0.00166
1328.64915	0.00135
1326.72078	0.00133
1324.79240	0.00133
1322.86403	0.00139
1320.93566	0.00158
1319.00728	0.00184
1317.07891	0.00202
1315.15054	0.00200
1313.22216	0.00194
1311.29379	0.00199
1309.36542	0.00205
1307.43704	0.00207
1305.50867	0.00206
1303.58030	0.00176
1301.65192	0.00177
1299.72355	0.00210
1297.79518	0.00244
1295.86680	0.00225
1293.93843	0.00159
1292.01006	0.00125
1290.08168	0.00149
1288.15331	0.00183
1286.22494	0.00179
1284.29657	0.00161
1282.36819	0.00161
1280.43982	0.00182
1278.51145	0.00188
1276.58307	0.00138
1274.65470	0.00099
1272.72633	0.00073
1270.79795	0.00040
1268.86958	0.00047
1266.94121	0.00059
1265.01283	0.00108
1263.08446	0.00085
1261.15609	0.00081
1259.22771	0.00087
1257.29934	0.00106
1255.37097	0.00146
1253.44259	0.00185
1251.51422	0.00183
1249.58585	0.00177
1247.65747	0.00175
1245.72910	0.00191
1243.80073	0.00224
1241.87235	0.00252
1239.94398	0.00246
1238.01561	0.00199
1236.08723	0.00171
1234.15886	0.00217
1232.23049	0.00355
1230.30212	0.00441
1228.37374	0.00479
1226.44537	0.00526
1224.51700	0.00588
1222.58862	0.00624
1220.66025	0.00654
1218.73188	0.00675
1216.80350	0.00648
1214.87513	0.00593
1212.94676	0.00590
1211.01838	0.00634
1209.09001	0.00632
1207.16164	0.00612
1205.23326	0.00651
1203.30489	0.00757
1201.37652	0.00841
1199.44814	0.00914
1197.51977	0.01051
1195.59140	0.01219
1193.66302	0.01362
1191.73465	0.01500
1189.80628	0.01609
1187.87790	0.01666
1185.94953	0.01654
1184.02116	0.01565
1182.09278	0.01417
1180.16441	0.01222
1178.23604	0.01040
1176.30766	0.00931
1174.37929	0.00857
1172.45092	0.00779
1170.52255	0.00649
1168.59417	0.00425
1166.66580	0.00221
1164.73743	0.00131
1162.80905	0.00129
1160.88068	0.00154
1158.95231	0.00156
1157.02393	0.00122
1155.09556	0.00166
1153.16719	0.00198
1151.23881	0.00201
1149.31044	0.00188
1147.38207	0.00269
1145.45369	0.00482
1143.52532	0.00720
1141.59695	0.00938
1139.66857	0.01077
1137.74020	0.01104
1135.81183	0.01007
1133.88345	0.00852
1131.95508	0.00699
1130.02671	0.00530
1128.09833	0.00359
1126.16996	0.00279
1124.24159	0.00221
1122.31321	0.00151
1120.38484	0.00143
1118.45647	0.00134
1116.52809	0.00115
1114.59972	0.00199
1112.67135	0.00256
1110.74298	0.00292
1108.81460	0.00293
1106.88623	0.00241
1104.95786	0.00233
1103.02948	0.00210
1101.10111	0.00181
1099.17274	0.00210
1097.24436	0.00251
1095.31599	0.00228
1093.38762	0.00207
1091.45924	0.00140
1089.53087	0.00089
1087.60250	0.00088
1085.67412	0.00132
1083.74575	0.00156
1081.81738	0.00136
1079.88900	0.00109
1077.96063	0.00139
1076.03226	0.00197
1074.10388	0.00209
1072.17551	0.00137
1070.24714	0.00080
1068.31876	0.00122
1066.39039	0.00194
1064.46202	0.00205
1062.53364	0.00179
1060.60527	0.00159
1058.67690	0.00173
1056.74853	0.00238
1054.82015	0.00247
1052.89178	0.00301
1050.96341	0.00377
1049.03503	0.00379
1047.10666	0.00268
1045.17829	0.00115
1043.24991	0.00086
1041.32154	0.00141
1039.39317	0.00251
1037.46479	0.00241
1035.53642	0.00137
1033.60805	0.00073
1031.67967	0.00105
1029.75130	0.00171
1027.82293	0.00212
1025.89455	0.00203
1023.96618	0.00212
1022.03781	0.00184
1020.10943	0.00134
1018.18106	0.00143
1016.25269	0.00135
1014.32431	0.00091
1012.39594	0.00107
1010.46757	0.00203
1008.53919	0.00337
1006.61082	0.00506
1004.68245	0.00697
1002.75407	0.00899
1000.82570	0.01138
998.89733	0.01414
996.96896	0.01663
995.04058	0.01893
993.11221	0.02153
991.18384	0.02434
989.25546	0.02705
987.32709	0.02927
985.39872	0.03055
983.47034	0.03053
981.54197	0.02934
979.61360	0.02762
977.68522	0.02566
975.75685	0.02403
973.82848	0.02409
971.90010	0.02625
969.97173	0.02992
968.04336	0.03452
966.11498	0.03901
964.18661	0.04168
962.25824	0.04094
960.32986	0.03635
958.40149	0.02960
956.47312	0.02399
954.54474	0.02196
952.61637	0.02366
950.68800	0.02788
948.75962	0.03349
946.83125	0.03978
944.90288	0.04563
942.97451	0.05018
941.04613	0.05398
939.11776	0.05767
937.18939	0.06114
935.26101	0.06430
933.33264	0.06707
931.40427	0.06957
929.47589	0.07186
927.54752	0.07308
925.61915	0.07255
923.69077	0.07130
921.76240	0.07101
919.83403	0.07203
917.90565	0.07396
915.97728	0.07655
914.04891	0.07889
912.12053	0.07934
910.19216	0.07767
908.26379	0.07477
906.33541	0.07115
904.40704	0.06678
902.47867	0.06128
900.55029	0.05612
898.62192	0.05396
896.69355	0.05400
894.76517	0.05390
892.83680	0.05401
890.90843	0.05564
888.98005	0.05813
887.05168	0.06049
885.12331	0.06312
883.19494	0.06570
881.26656	0.06723
879.33819	0.06807
877.40982	0.06840
875.48144	0.06765
873.55307	0.06677
871.62470	0.06680
869.69632	0.06686
867.76795	0.06639
865.83958	0.06605
863.91120	0.06623
861.98283	0.06683
860.05446	0.06736
858.12608	0.06714
856.19771	0.06597
854.26934	0.06467
852.34096	0.06392
850.41259	0.06321
848.48422	0.06246
846.55584	0.06202
844.62747	0.06090
842.69910	0.05823
840.77072	0.05508
838.84235	0.05299
836.91398	0.05201
834.98560	0.05101
833.05723	0.04969
831.12886	0.04834
829.20049	0.04699
827.27211	0.04600
825.34374	0.04503
823.41537	0.04302
821.48699	0.04024
819.55862	0.03839
817.63025	0.03782
815.70187	0.03725
813.77350	0.03655
811.84513	0.03623
809.91675	0.03616
807.98838	0.03559
806.06001	0.03396
804.13163	0.03243
802.20326	0.03237
800.27489	0.03330
798.34651	0.03380
796.41814	0.03334
794.48977	0.03234
792.56139	0.03081
790.63302	0.02904
788.70465	0.02772
786.77627	0.02640
784.84790	0.02468
782.91953	0.02341
780.99115	0.02306
779.06278	0.02235
777.13441	0.02049
775.20603	0.01871
773.27766	0.01812
771.34929	0.01805
769.42092	0.01755
767.49254	0.01668
765.56417	0.01558
763.63580	0.01436
761.70742	0.01367
759.77905	0.01297
757.85068	0.01155
755.92230	0.01075
753.99393	0.01196
752.06556	0.01320
750.13718	0.01307
748.20881	0.01265
746.28044	0.01217
744.35206	0.01113
742.42369	0.01046
740.49532	0.01049
738.56694	0.01013
736.63857	0.00947
734.71020	0.00903
732.78182	0.00887
730.85345	0.00889
728.92508	0.00858
726.99670	0.00801
725.06833	0.00761
723.13996	0.00741
721.21158	0.00727
719.28321	0.00704
717.35484	0.00724
715.42647	0.00764
713.49809	0.00763
711.56972	0.00749
709.64135	0.00819
707.71297	0.00947
705.78460	0.00967
703.85623	0.00829
701.92785	0.00663
699.99948	0.00585
698.07111	0.00575
696.14273	0.00596
694.21436	0.00631
692.28599	0.00607
690.35761	0.00477
688.42924	0.00377
686.50087	0.00391
684.57249	0.00508
682.64412	0.00527
680.71575	0.00477
678.78737	0.00487
676.85900	0.00448
674.93063	0.00606
673.00225	0.00884
671.07388	0.01141
669.14551	0.01173
667.21713	0.00972
665.28876	0.00875
663.36039	0.00781
661.43201	0.00706
659.50364	0.00797
657.57527	0.00977
655.64690	0.01060
653.71852	0.00942
651.79015	0.00749
649.86178	0.00819
647.93340	0.00996
646.00503	0.00877
644.07666	0.00656
642.14828	0.00714
640.21991	0.00881
638.29154	0.00818
636.36316	0.00649
634.43479	0.00746
632.50642	0.00961
630.57804	0.00961
628.64967	0.00726
626.72130	0.00696
624.79292	0.00720
622.86455	0.00499
620.93618	0.00232
619.00780	0.00499
617.07943	0.00656
615.15106	0.00555
613.22268	0.00675
611.29431	0.00589
609.36594	0.00610
607.43756	0.00931
605.50919	0.00910
603.58082	0.00682
601.65244	0.00797
599.72407	0.01078
