3997.51769	0.29520
3995.58931	0.29551
3993.66094	0.29589
3991.73257	0.29625
3989.80419	0.29674
3987.87582	0.29721
3985.94745	0.29739
3984.01907	0.29737
3982.09070	0.29738
3980.16233	0.29730
3978.23396	0.29715
3976.30558	0.29745
3974.37721	0.29799
3972.44884	0.29825
3970.52046	0.29862
3968.59209	0.29951
3966.66372	0.30043
3964.73534	0.30106
3962.80697	0.30183
3960.87860	0.30262
3958.95022	0.30292
3957.02185	0.30315
3955.09348	0.30397
3953.16510	0.30513
3951.23673	0.30637
3949.30836	0.30759
3947.37998	0.30788
3945.45161	0.30744
3943.52324	0.30760
3941.59486	0.30844
3939.66649	0.30920
3937.73812	0.30970
3935.80974	0.31019
3933.88137	0.31109
3931.95300	0.31212
3930.02462	0.31249
3928.09625	0.31287
3926.16788	0.31429
3924.23950	0.31575
3922.31113	0.31603
3920.38276	0.31613
3918.45439	0.31681
3916.52601	0.31714
3914.59764	0.31676
3912.66927	0.31671
3910.74089	0.31729
3908.81252	0.31832
3906.88415	0.32021
3904.95577	0.32298
3903.02740	0.32526
3901.09903	0.32577
3899.17065	0.32490
3897.24228	0.32414
3895.31391	0.32473
3893.38553	0.32641
3891.45716	0.32751
3889.52879	0.32763
3887.60041	0.32872
3885.67204	0.33070
3883.74367	0.33189
3881.81529	0.33279
3879.88692	0.33335
3877.95855	0.33283
3876.03017	0.33298
3874.10180	0.33469
3872.17343	0.33704
3870.24505	0.33852
3868.31668	0.33803
3866.38831	0.33767
3864.45994	0.33880
3862.53156	0.33914
3860.60319	0.33792
3858.67482	0.33767
3856.74644	0.33985
3854.81807	0.34441
3852.88970	0.34744
3850.96132	0.34453
3849.03295	0.34111
3847.10458	0.33973
3845.17620	0.34014
3843.24783	0.34193
3841.31946	0.34480
3839.39108	0.34768
3837.46271	0.34825
3835.53434	0.34634
3833.60596	0.34437
3831.67759	0.34300
3829.74922	0.34239
3827.82084	0.34280
3825.89247	0.34365
3823.96410	0.34516
3822.03572	0.34780
3820.10735	0.34866
3818.17898	0.34738
3816.25060	0.34657
3814.32223	0.34516
3812.39386	0.34331
3810.46548	0.34257
3808.53711	0.34330
3806.60874	0.34450
3804.68037	0.34535
3802.75199	0.34703
3800.82362	0.34790
3798.89525	0.34606
3796.96687	0.34415
3795.03850	0.34253
3793.11013	0.34102
3791.18175	0.34033
3789.25338	0.34033
3787.32501	0.34057
3785.39663	0.34061
3783.46826	0.34035
3781.53989	0.34042
3779.61151	0.34058
3777.68314	0.33965
3775.75477	0.33835
3773.82639	0.33812
3771.89802	0.33911
3769.96965	0.34034
3768.04127	0.34023
3766.11290	0.33899
3764.18453	0.33763
3762.25615	0.33731
3760.32778	0.33855
3758.39941	0.33932
3756.47103	0.33836
3754.54266	0.33793
3752.61429	0.33970
3750.68591	0.34128
3748.75754	0.33958
3746.82917	0.33809
3744.90080	0.33738
3742.97242	0.33473
3741.04405	0.33178
3739.11568	0.33102
3737.18730	0.33266
3735.25893	0.33399
3733.33056	0.33105
3731.40218	0.32624
3729.47381	0.32333
3727.54544	0.32205
3725.61706	0.32096
3723.68869	0.31927
3721.76032	0.31724
3719.83194	0.31491
3717.90357	0.31222
3715.97520	0.31023
3714.04682	0.30981
3712.11845	0.30960
3710.19008	0.30568
3708.26170	0.29914
3706.33333	0.29374
3704.40496	0.29008
3702.47658	0.28713
3700.54821	0.28294
3698.61984	0.27732
3696.69146	0.27134
3694.76309	0.26617
3692.83472	0.26212
3690.90635	0.25709
3688.97797	0.24831
3687.04960	0.23751
3685.12123	0.22841
3683.19285	0.22041
3681.26448	0.21215
3679.33611	0.20416
3677.40773	0.19656
3675.47936	0.18593
3673.55099	0.17393
3671.62261	0.16439
3669.69424	0.15248
3667.76587	0.13935
3665.83749	0.12944
3663.90912	0.12064
3661.98075	0.11142
3660.05237	0.10243
3658.12400	0.09437
3656.19563	0.08630
3654.26725	0.07878
3652.33888	0.07292
3650.41051	0.06708
3648.48213	0.05943
3646.55376	0.05176
3644.62539	0.04635
3642.69701	0.04243
3640.76864	0.03852
3638.84027	0.03423
3636.91189	0.03018
3634.98352	0.02655
3633.05515	0.02318
3631.12678	0.02030
3629.19840	0.01779
3627.27003	0.01593
3625.34166	0.01475
3623.41328	0.01340
3621.48491	0.01172
3619.55654	0.01005
3617.62816	0.00876
3615.69979	0.00753
3613.77142	0.00615
3611.84304	0.00522
3609.91467	0.00498
3607.98630	0.00505
3606.05792	0.00500
3604.12955	0.00462
3602.20118	0.00411
3600.27280	0.00359
3598.34443	0.00291
3596.41606	0.00229
3594.48768	0.00221
3592.55931	0.00207
3590.63094	0.00184
3588.70256	0.00150
3586.77419	0.00112
3584.84582	0.00131
3582.91744	0.00176
3580.98907	0.00184
3579.06070	0.00140
3577.13233	0.00110
3575.20395	0.00128
3573.27558	0.00137
3571.34721	0.00127
3569.41883	0.00098
3567.49046	0.00075
3565.56209	0.00138
3563.63371	0.00123
3561.70534	0.00066
3559.77697	0.00069
3557.84859	0.00117
3555.92022	0.00125
3553.99185	0.00113
3552.06347	0.00100
3550.13510	0.00048
3548.20673	0.00026
3546.27835	0.00057
3544.34998	0.00054
3542.42161	0.00041
3540.49323	0.00054
3538.56486	0.00095
3536.63649	0.00115
3534.70811	0.00074
3532.77974	0.00074
3530.85137	0.00101
3528.92299	0.00107
3526.99462	0.00089
3525.06625	0.00048
3523.13787	0.00071
3521.20950	0.00064
3519.28113	0.00046
3517.35276	0.00040
3515.42438	0.00032
3513.49601	0.00027
3511.56764	0.00046
3509.63926	0.00082
3507.71089	0.00065
3505.78252	0.00067
3503.85414	0.00096
3501.92577	0.00132
3499.99740	0.00124
3498.06902	0.00109
3496.14065	0.00068
3494.21228	0.00043
3492.28390	0.00066
3490.35553	0.00091
3488.42716	0.00080
3486.49878	0.00056
3484.57041	0.00083
3482.64204	0.00075
3480.71366	0.00046
3478.78529	0.00022
3476.85692	0.00061
3474.92854	0.00049
3473.00017	0.00034
3471.07180	0.00057
3469.14342	0.00070
3467.21505	0.00078
3465.28668	0.00084
3463.35831	0.00074
3461.42993	0.00054
3459.50156	0.00057
3457.57319	0.00053
3455.64481	0.00020
3453.71644	0.00041
3451.78807	0.00083
3449.85969	0.00127
3447.93132	0.00143
3446.00295	0.00119
3444.07457	0.00088
3442.14620	0.00077
3440.21783	0.00065
3438.28945	0.00106
3436.36108	0.00149
3434.43271	0.00131
3432.50433	0.00096
3430.57596	0.00089
3428.64759	0.00097
3426.71921	0.00117
3424.79084	0.00110
3422.86247	0.00089
3420.93409	0.00063
3419.00572	0.00051
3417.07735	0.00069
3415.14897	0.00087
3413.22060	0.00068
3411.29223	0.00077
3409.36385	0.00064
3407.43548	0.00104
3405.50711	0.00095
3403.57874	0.00054
3401.65036	0.00046
3399.72199	0.00064
3397.79362	0.00068
3395.86524	0.00043
3393.93687	0.00073
3392.00850	0.00095
3390.08012	0.00091
3388.15175	0.00136
3386.22338	0.00138
3384.29500	0.00085
3382.36663	0.00089
3380.43826	0.00099
3378.50988	0.00076
3376.58151	0.00066
3374.65314	0.00067
3372.72476	0.00052
3370.79639	0.00062
3368.86802	0.00054
3366.93964	0.00026
3365.01127	0.00024
3363.08290	0.00017
3361.15452	0.00030
3359.22615	0.00065
3357.29778	0.00091
3355.36940	0.00099
3353.44103	0.00085
3351.51266	0.00109
3349.58428	0.00108
3347.65591	0.00096
3345.72754	0.00115
3343.79917	0.00109
3341.87079	0.00064
3339.94242	0.00100
3338.01405	0.00120
3336.08567	0.00093
3334.15730	0.00084
3332.22893	0.00092
3330.30055	0.00076
3328.37218	0.00065
3326.44381	0.00050
3324.51543	0.00065
3322.58706	0.00077
3320.65869	0.00071
3318.73031	0.00061
3316.80194	0.00082
3314.87357	0.00076
3312.94519	0.00034
3311.01682	0.00043
3309.08845	0.00047
3307.16007	0.00092
3305.23170	0.00106
3303.30333	0.00104
3301.37495	0.00107
3299.44658	0.00121
3297.51821	0.00120
3295.58983	0.00114
3293.66146	0.00108
3291.73309	0.00078
3289.80472	0.00080
3287.87634	0.00067
3285.94797	0.00029
3284.01960	0.00066
3282.09122	0.00086
3280.16285	0.00092
3278.23448	0.00103
3276.30610	0.00088
3274.37773	0.00077
3272.44936	0.00068
3270.52098	0.00074
3268.59261	0.00092
3266.66424	0.00093
3264.73586	0.00098
3262.80749	0.00090
3260.87912	0.00061
3258.95074	0.00064
3257.02237	0.00080
3255.09400	0.00073
3253.16562	0.00070
3251.23725	0.00089
3249.30888	0.00096
3247.38050	0.00078
3245.45213	0.00053
3243.52376	0.00026
3241.59538	0.00030
3239.66701	0.00059
3237.73864	0.00108
3235.81026	0.00112
3233.88189	0.00082
3231.95352	0.00119
3230.02515	0.00108
3228.09677	0.00054
3226.16840	0.00067
3224.24003	0.00074
3222.31165	0.00067
3220.38328	0.00083
3218.45491	0.00080
3216.52653	0.00048
3214.59816	0.00055
3212.66979	0.00052
3210.74141	0.00072
3208.81304	0.00099
3206.88467	0.00087
3204.95629	0.00066
3203.02792	0.00031
3201.09955	0.00042
3199.17117	0.00100
3197.24280	0.00131
3195.31443	0.00099
3193.38605	0.00112
3191.45768	0.00110
3189.52931	0.00054
3187.60093	0.00066
3185.67256	0.00083
3183.74419	0.00087
3181.81581	0.00116
3179.88744	0.00069
3177.95907	0.00090
3176.03070	0.00101
3174.10232	0.00075
3172.17395	0.00040
3170.24558	0.00058
3168.31720	0.00077
3166.38883	0.00068
3164.46046	0.00068
3162.53208	0.00074
3160.60371	0.00055
3158.67534	0.00066
3156.74696	0.00060
3154.81859	0.00067
3152.89022	0.00063
3150.96184	0.00083
3149.03347	0.00102
3147.10510	0.00087
3145.17672	0.00046
3143.24835	0.00039
3141.31998	0.00097
3139.39160	0.00107
3137.46323	0.00051
3135.53486	0.00028
3133.60648	0.00072
3131.67811	0.00100
3129.74974	0.00074
3127.82136	0.00041
3125.89299	0.00074
3123.96462	0.00068
3122.03624	0.00078
3120.10787	0.00094
3118.17950	0.00101
3116.25113	0.00092
3114.32275	0.00078
3112.39438	0.00100
3110.46601	0.00116
3108.53763	0.00082
3106.60926	0.00063
3104.68089	0.00070
3102.75251	0.00052
3100.82414	0.00040
3098.89577	0.00053
3096.96739	0.00064
3095.03902	0.00069
3093.11065	0.00102
3091.18227	0.00074
3089.25390	0.00046
3087.32553	0.00062
3085.39715	0.00065
3083.46878	0.00065
3081.54041	0.00060
3079.61203	0.00057
3077.68366	0.00050
3075.75529	0.00064
3073.82691	0.00046
3071.89854	0.00041
3069.97017	0.00097
3068.04179	0.00121
3066.11342	0.00107
3064.18505	0.00077
3062.25668	0.00037
3060.32830	0.00072
3058.39993	0.00108
3056.47156	0.00107
3054.54318	0.00076
3052.61481	0.00068
3050.68644	0.00088
3048.75806	0.00069
3046.82969	0.00080
3044.90132	0.00116
3042.97294	0.00107
3041.04457	0.00100
3039.11620	0.00112
3037.18782	0.00119
3035.25945	0.00099
3033.33108	0.00034
3031.40270	0.00057
3029.47433	0.00095
3027.54596	0.00127
3025.61758	0.00139
3023.68921	0.00094
3021.76084	0.00026
3019.83246	0.00017
3017.90409	0.00023
3015.97572	0.00047
3014.04734	0.00087
3012.11897	0.00077
3010.19060	0.00084
3008.26222	0.00105
3006.33385	0.00092
3004.40548	0.00103
3002.47711	0.00132
3000.54873	0.00152
2998.62036	0.00135
2996.69199	0.00123
2994.76361	0.00127
2992.83524	0.00137
2990.90687	0.00137
2988.97849	0.00138
2987.05012	0.00106
2985.12175	0.00057
2983.19337	0.00109
2981.26500	0.00196
2979.33663	0.00210
2977.40825	0.00136
2975.47988	0.00121
2973.55151	0.00101
2971.62313	0.00072
2969.69476	0.00110
2967.76639	0.00122
2965.83801	0.00067
2963.90964	0.00053
2961.98127	0.00097
2960.05289	0.00129
2958.12452	0.00129
2956.19615	0.00154
2954.26777	0.00138
2952.33940	0.00098
2950.41103	0.00078
2948.48266	0.00100
2946.55428	0.00097
2944.62591	0.00096
2942.69754	0.00103
2940.76916	0.00122
2938.84079	0.00152
2936.91242	0.00177
2934.98404	0.00173
2933.05567	0.00140
2931.12730	0.00121
2929.19892	0.00148
2927.27055	0.00130
2925.34218	0.00082
2923.41380	0.00078
2921.48543	0.00102
2919.55706	0.00097
2917.62868	0.00076
2915.70031	0.00091
2913.77194	0.00137
2911.84356	0.00156
2909.91519	0.00150
2907.98682	0.00118
2906.05844	0.00090
2904.13007	0.00086
2902.20170	0.00097
2900.27332	0.00077
2898.34495	0.00058
2896.41658	0.00099
2894.48820	0.00099
2892.55983	0.00076
2890.63146	0.00075
2888.70309	0.00059
2886.77471	0.00069
2884.84634	0.00077
2882.91797	0.00071
2880.98959	0.00076
2879.06122	0.00068
2877.13285	0.00085
2875.20447	0.00110
2873.27610	0.00108
2871.34773	0.00116
2869.41935	0.00116
2867.49098	0.00117
2865.56261	0.00113
2863.63423	0.00109
2861.70586	0.00146
2859.77749	0.00182
2857.84911	0.00234
2855.92074	0.00280
2853.99237	0.00331
2852.06399	0.00369
2850.13562	0.00387
2848.20725	0.00425
2846.27887	0.00501
2844.35050	0.00567
2842.42213	0.00586
2840.49375	0.00564
2838.56538	0.00540
2836.63701	0.00569
2834.70863	0.00658
2832.78026	0.00750
2830.85189	0.00806
2828.92352	0.00825
2826.99514	0.00819
2825.06677	0.00813
2823.13840	0.00827
2821.21002	0.00874
2819.28165	0.00952
2817.35328	0.01017
2815.42490	0.01047
2813.49653	0.01086
2811.56816	0.01152
2809.63978	0.01225
2807.71141	0.01312
2805.78304	0.01406
2803.85466	0.01463
2801.92629	0.01493
2799.99792	0.01558
2798.06954	0.01646
2796.14117	0.01705
2794.21280	0.01741
2792.28442	0.01792
2790.35605	0.01871
2788.42768	0.01970
2786.49930	0.02055
2784.57093	0.02115
2782.64256	0.02158
2780.71418	0.02177
2778.78581	0.02187
2776.85744	0.02209
2774.92907	0.02262
2773.00069	0.02350
2771.07232	0.02439
2769.14395	0.02496
2767.21557	0.02549
2765.28720	0.02636
2763.35883	0.02738
2761.43045	0.02801
2759.50208	0.02825
2757.57371	0.02866
2755.64533	0.02934
2753.71696	0.02998
2751.78859	0.03050
2749.86021	0.03091
2747.93184	0.03131
2746.00347	0.03183
2744.07509	0.03234
2742.14672	0.03274
2740.21835	0.03314
2738.28997	0.03360
2736.36160	0.03405
2734.43323	0.03438
2732.50485	0.03460
2730.57648	0.03492
2728.64811	0.03545
2726.71973	0.03623
2724.79136	0.03737
2722.86299	0.03855
2720.93461	0.03921
2719.00624	0.03954
2717.07787	0.03997
2715.14950	0.04059
2713.22112	0.04150
2711.29275	0.04263
2709.36438	0.04359
2707.43600	0.04442
2705.50763	0.04541
2703.57926	0.04636
2701.65088	0.04709
2699.72251	0.04796
2697.79414	0.04905
2695.86576	0.04991
2693.93739	0.05053
2692.00902	0.05112
2690.08064	0.05164
2688.15227	0.05233
2686.22390	0.05333
2684.29552	0.05416
2682.36715	0.05463
2680.43878	0.05509
2678.51040	0.05576
2676.58203	0.05660
2674.65366	0.05745
2672.72528	0.05816
2670.79691	0.05876
2668.86854	0.05935
2666.94016	0.05986
2665.01179	0.06021
2663.08342	0.06057
2661.15505	0.06109
2659.22667	0.06153
2657.29830	0.06183
2655.36993	0.06209
2653.44155	0.06232
2651.51318	0.06262
2649.58481	0.06319
2647.65643	0.06377
2645.72806	0.06398
2643.79969	0.06401
2641.87131	0.06430
2639.94294	0.06473
2638.01457	0.06504
2636.08619	0.06536
2634.15782	0.06588
2632.22945	0.06652
2630.30107	0.06709
2628.37270	0.06744
2626.44433	0.06755
2624.51595	0.06764
2622.58758	0.06808
2620.65921	0.06897
2618.73083	0.07005
2616.80246	0.07100
2614.87409	0.07160
2612.94571	0.07191
2611.01734	0.07232
2609.08897	0.07310
2607.16059	0.07400
2605.23222	0.07487
2603.30385	0.07582
2601.37548	0.07664
2599.44710	0.07715
2597.51873	0.07774
2595.59036	0.07865
2593.66198	0.07940
2591.73361	0.07977
2589.80524	0.08010
2587.87686	0.08058
2585.94849	0.08122
2584.02012	0.08202
2582.09174	0.08278
2580.16337	0.08339
2578.23500	0.08400
2576.30662	0.08472
2574.37825	0.08542
2572.44988	0.08616
2570.52150	0.08739
2568.59313	0.08895
2566.66476	0.09034
2564.73638	0.09155
2562.80801	0.09277
2560.87964	0.09418
2558.95126	0.09568
2557.02289	0.09686
2555.09452	0.09781
2553.16614	0.09898
2551.23777	0.10029
2549.30940	0.10136
2547.38103	0.10211
2545.45265	0.10281
2543.52428	0.10362
2541.59591	0.10440
2539.66753	0.10510
2537.73916	0.10576
2535.81079	0.10631
2533.88241	0.10674
2531.95404	0.10737
2530.02567	0.10842
2528.09729	0.10944
2526.16892	0.10988
2524.24055	0.10997
2522.31217	0.11021
2520.38380	0.11074
2518.45543	0.11153
2516.52705	0.11258
2514.59868	0.11365
2512.67031	0.11456
2510.74193	0.11535
2508.81356	0.11607
2506.88519	0.11688
2504.95681	0.11782
2503.02844	0.11880
2501.10007	0.11976
2499.17169	0.12062
2497.24332	0.12141
2495.31495	0.12225
2493.38657	0.12334
2491.45820	0.12460
2489.52983	0.12577
2487.60146	0.12697
2485.67308	0.12820
2483.74471	0.12919
2481.81634	0.12992
2479.88796	0.13067
2477.95959	0.13168
2476.03122	0.13304
2474.10284	0.13450
2472.17447	0.13577
2470.24610	0.13694
2468.31772	0.13824
2466.38935	0.13951
2464.46098	0.14067
2462.53260	0.14197
2460.60423	0.14345
2458.67586	0.14487
2456.74748	0.14610
2454.81911	0.14730
2452.89074	0.14866
2450.96236	0.15003
2449.03399	0.15119
2447.10562	0.15228
2445.17724	0.15351
2443.24887	0.15466
2441.32050	0.15553
2439.39212	0.15626
2437.46375	0.15700
2435.53538	0.15778
2433.60700	0.15869
2431.67863	0.15972
2429.75026	0.16078
2427.82189	0.16171
2425.89351	0.16237
2423.96514	0.16272
2422.03677	0.16305
2420.10839	0.16367
2418.18002	0.16435
2416.25165	0.16479
2414.32327	0.16520
2412.39490	0.16588
2410.46653	0.16686
2408.53815	0.16799
2406.60978	0.16927
2404.68141	0.17085
2402.75303	0.17247
2400.82466	0.17366
2398.89629	0.17460
2396.96791	0.17574
2395.03954	0.17697
2393.11117	0.17806
2391.18279	0.17906
2389.25442	0.18009
2387.32605	0.18118
2385.39767	0.18221
2383.46930	0.18313
2381.54093	0.18407
2379.61255	0.18499
2377.68418	0.18580
2375.75581	0.18655
2373.82744	0.18769
2371.89906	0.18964
2369.97069	0.19174
2368.04232	0.19277
2366.11394	0.19315
2364.18557	0.19495
2362.25720	0.19818
2360.32882	0.19902
2358.40045	0.19661
2356.47208	0.19581
2354.54370	0.19757
2352.61533	0.19851
2350.68696	0.19814
2348.75858	0.19789
2346.83021	0.19843
2344.90184	0.19978
2342.97346	0.20077
2341.04509	0.20031
2339.11672	0.19969
2337.18834	0.19972
2335.25997	0.19936
2333.33160	0.19881
2331.40322	0.19909
2329.47485	0.19986
2327.54648	0.20042
2325.61810	0.20075
2323.68973	0.20091
2321.76136	0.20092
2319.83298	0.20092
2317.90461	0.20110
2315.97624	0.20182
2314.04787	0.20305
2312.11949	0.20437
2310.19112	0.20551
2308.26275	0.20631
2306.33437	0.20680
2304.40600	0.20723
2302.47763	0.20784
2300.54925	0.20863
2298.62088	0.20943
2296.69251	0.21009
2294.76413	0.21040
2292.83576	0.21042
2290.90739	0.21050
2288.97901	0.21078
2287.05064	0.21106
2285.12227	0.21120
2283.19389	0.21126
2281.26552	0.21130
2279.33715	0.21125
2277.40877	0.21122
2275.48040	0.21125
2273.55203	0.21125
2271.62365	0.21120
2269.69528	0.21101
2267.76691	0.21070
2265.83853	0.21040
2263.91016	0.21010
2261.98179	0.20980
2260.05342	0.20958
2258.12504	0.20954
2256.19667	0.20967
2254.26830	0.20988
2252.33992	0.21015
2250.41155	0.21050
2248.48318	0.21095
2246.55480	0.21148
2244.62643	0.21204
2242.69806	0.21248
2240.76968	0.21263
2238.84131	0.21254
2236.91294	0.21233
2234.98456	0.21220
2233.05619	0.21215
2231.12782	0.21189
2229.19944	0.21145
2227.27107	0.21113
2225.34270	0.21100
2223.41432	0.21079
2221.48595	0.21028
2219.55758	0.20960
2217.62920	0.20901
2215.70083	0.20856
2213.77246	0.20824
2211.84408	0.20798
2209.91571	0.20761
2207.98734	0.20708
2206.05896	0.20643
2204.13059	0.20582
2202.20222	0.20532
2200.27385	0.20480
2198.34547	0.20430
2196.41710	0.20389
2194.48873	0.20358
2192.56035	0.20327
2190.63198	0.20281
2188.70361	0.20225
2186.77523	0.20170
2184.84686	0.20127
2182.91849	0.20110
2180.99011	0.20102
2179.06174	0.20080
2177.13337	0.20052
2175.20499	0.20013
2173.27662	0.19956
2171.34825	0.19917
2169.41987	0.19903
2167.49150	0.19884
2165.56313	0.19863
2163.63475	0.19850
2161.70638	0.19833
2159.77801	0.19808
2157.84963	0.19771
2155.92126	0.19728
2153.99289	0.19704
2152.06451	0.19692
2150.13614	0.19673
2148.20777	0.19653
2146.27940	0.19634
2144.35102	0.19624
2142.42265	0.19628
2140.49428	0.19633
2138.56590	0.19630
2136.63753	0.19629
2134.70916	0.19637
2132.78078	0.19659
2130.85241	0.19687
2128.92404	0.19712
2126.99566	0.19748
2125.06729	0.19791
2123.13892	0.19846
2121.21054	0.19925
2119.28217	0.20004
2117.35380	0.20069
2115.42542	0.20128
2113.49705	0.20179
2111.56868	0.20236
2109.64030	0.20303
2107.71193	0.20369
2105.78356	0.20428
2103.85518	0.20478
2101.92681	0.20510
2099.99844	0.20526
2098.07006	0.20547
2096.14169	0.20573
2094.21332	0.20602
2092.28494	0.20632
2090.35657	0.20638
2088.42820	0.20617
2086.49983	0.20612
2084.57145	0.20644
2082.64308	0.20680
2080.71471	0.20692
2078.78633	0.20672
2076.85796	0.20633
2074.92959	0.20600
2073.00121	0.20583
2071.07284	0.20588
2069.14447	0.20619
2067.21609	0.20666
2065.28772	0.20717
2063.35935	0.20773
2061.43097	0.20838
2059.50260	0.20905
2057.57423	0.20964
2055.64585	0.21030
2053.71748	0.21116
2051.78911	0.21221
2049.86073	0.21355
2047.93236	0.21514
2046.00399	0.21662
2044.07561	0.21796
2042.14724	0.21928
2040.21887	0.22042
2038.29049	0.22137
2036.36212	0.22234
2034.43375	0.22346
2032.50538	0.22472
2030.57700	0.22590
2028.64863	0.22686
2026.72026	0.22761
2024.79188	0.22827
2022.86351	0.22898
2020.93514	0.22979
2019.00676	0.23056
2017.07839	0.23120
2015.15002	0.23177
2013.22164	0.23230
2011.29327	0.23289
2009.36490	0.23370
2007.43652	0.23458
2005.50815	0.23542
2003.57978	0.23638
2001.65140	0.23745
1999.72303	0.23843
1997.79466	0.23939
1995.86628	0.24033
1993.93791	0.24120
1992.00954	0.24187
1990.08116	0.24232
1988.15279	0.24279
1986.22442	0.24337
1984.29604	0.24387
1982.36767	0.24416
1980.43930	0.24442
1978.51092	0.24487
1976.58255	0.24540
1974.65418	0.24600
1972.72581	0.24675
1970.79743	0.24760
1968.86906	0.24843
1966.94069	0.24892
1965.01231	0.24901
1963.08394	0.24930
1961.15557	0.24999
1959.22719	0.25067
1957.29882	0.25122
1955.37045	0.25177
1953.44207	0.25231
1951.51370	0.25298
1949.58533	0.25384
1947.65695	0.25471
1945.72858	0.25558
1943.80021	0.25656
1941.87183	0.25736
1939.94346	0.25774
1938.01509	0.25798
1936.08671	0.25829
1934.15834	0.25865
1932.22997	0.25897
1930.30159	0.25923
1928.37322	0.25972
1926.44485	0.26066
1924.51647	0.26178
1922.58810	0.26257
1920.65973	0.26315
1918.73135	0.26383
1916.80298	0.26405
1914.87461	0.26380
1912.94624	0.26389
1911.01786	0.26433
1909.08949	0.26459
1907.16112	0.26441
1905.23274	0.26403
1903.30437	0.26384
1901.37600	0.26376
1899.44762	0.26364
1897.51925	0.26352
1895.59088	0.26330
1893.66250	0.26295
1891.73413	0.26289
1889.80576	0.26306
1887.87738	0.26293
1885.94901	0.26269
1884.02064	0.26258
1882.09226	0.26239
1880.16389	0.26215
1878.23552	0.26200
1876.30714	0.26208
1874.37877	0.26240
1872.45040	0.26290
1870.52202	0.26379
1868.59365	0.26452
1866.66528	0.26411
1864.73690	0.26336
1862.80853	0.26317
1860.88016	0.26320
1858.95179	0.26307
1857.02341	0.26289
1855.09504	0.26271
1853.16667	0.26242
1851.23829	0.26202
1849.30992	0.26196
1847.38155	0.26260
1845.45317	0.26351
1843.52480	0.26332
1841.59643	0.26192
1839.66805	0.26073
1837.73968	0.25994
1835.81131	0.25910
1833.88293	0.25847
1831.95456	0.25845
1830.02619	0.25824
1828.09781	0.25692
1826.16944	0.25537
1824.24107	0.25371
1822.31269	0.25162
1820.38432	0.24960
1818.45595	0.24790
1816.52757	0.24624
1814.59920	0.24462
1812.67083	0.24327
1810.74245	0.24182
1808.81408	0.23979
1806.88571	0.23759
1804.95733	0.23588
1803.02896	0.23463
1801.10059	0.23312
1799.17222	0.23088
1797.24384	0.22829
1795.31547	0.22611
1793.38710	0.22415
1791.45872	0.22095
1789.53035	0.21690
1787.60198	0.21356
1785.67360	0.21067
1783.74523	0.20765
1781.81686	0.20463
1779.88848	0.20147
1777.96011	0.19831
1776.03174	0.19582
1774.10336	0.19377
1772.17499	0.19070
1770.24662	0.18635
1768.31824	0.18195
1766.38987	0.17766
1764.46150	0.17398
1762.53312	0.17044
1760.60475	0.16618
1758.67638	0.16165
1756.74800	0.15658
1754.81963	0.15140
1752.89126	0.14696
1750.96288	0.14213
1749.03451	0.13543
1747.10614	0.12781
1745.17777	0.12019
1743.24939	0.11263
1741.32102	0.10510
1739.39265	0.09725
1737.46427	0.09056
1735.53590	0.08488
1733.60753	0.07703
1731.67915	0.06866
1729.75078	0.06199
1727.82241	0.05586
1725.89403	0.05006
1723.96566	0.04427
1722.03729	0.03893
1720.10891	0.03445
1718.18054	0.02944
1716.25217	0.02312
1714.32379	0.01796
1712.39542	0.01416
1710.46705	0.01085
1708.53867	0.00782
1706.61030	0.00519
1704.68193	0.00317
1702.75355	0.00186
1700.82518	0.00096
1698.89681	0.00070
1696.96843	0.00076
1695.04006	0.00089
1693.11169	0.00099
1691.18331	0.00072
1689.25494	0.00084
1687.32657	0.00084
1685.39820	0.00073
1683.46982	0.00092
1681.54145	0.00105
1679.61308	0.00082
1677.68470	0.00046
1675.75633	0.00023
1673.82796	0.00031
1671.89958	0.00055
1669.97121	0.00060
1668.04284	0.00065
1666.11446	0.00064
1664.18609	0.00074
1662.25772	0.00077
1660.32934	0.00030
1658.40097	0.00056
1656.47260	0.00070
1654.54422	0.00087
1652.61585	0.00070
1650.68748	0.00062
1648.75910	0.00061
1646.83073	0.00045
1644.90236	0.00040
1642.97398	0.00030
1641.04561	0.00042
1639.11724	0.00054
1637.18886	0.00079
1635.26049	0.00079
1633.33212	0.00060
1631.40375	0.00053
1629.47537	0.00032
1627.54700	0.00041
1625.61863	0.00061
1623.69025	0.00067
1621.76188	0.00064
1619.83351	0.00051
1617.90513	0.00047
1615.97676	0.00059
1614.04839	0.00074
1612.12001	0.00044
1610.19164	0.00055
1608.26327	0.00079
1606.33489	0.00074
1604.40652	0.00053
1602.47815	0.00043
1600.54977	0.00041
1598.62140	0.00028
1596.69303	0.00026
1594.76465	0.00049
1592.83628	0.00060
1590.90791	0.00050
1588.97953	0.00039
1587.05116	0.00024
1585.12279	0.00057
1583.19441	0.00067
1581.26604	0.00042
1579.33767	0.00095
1577.40929	0.00132
1575.48092	0.00148
1573.55255	0.00095
1571.62418	0.00091
1569.69580	0.00126
1567.76743	0.00117
1565.83906	0.00082
1563.91068	0.00069
1561.98231	0.00088
1560.05394	0.00144
1558.12556	0.00127
1556.19719	0.00066
1554.26882	0.00043
1552.34044	0.00059
1550.41207	0.00063
1548.48370	0.00060
1546.55532	0.00071
1544.62695	0.00104
1542.69858	0.00138
1540.77020	0.00128
1538.84183	0.00077
1536.91346	0.00022
1534.98508	0.00061
1533.05671	0.00055
1531.12834	0.00052
1529.19996	0.00067
1527.27159	0.00089
1525.34322	0.00089
1523.41484	0.00065
1521.48647	0.00069
1519.55810	0.00132
1517.62972	0.00130
1515.70135	0.00077
1513.77298	0.00057
1511.84461	0.00049
1509.91623	0.00073
1507.98786	0.00094
1506.05949	0.00080
1504.13111	0.00040
1502.20274	0.00061
1500.27437	0.00077
1498.34599	0.00074
1496.41762	0.00057
1494.48925	0.00050
1492.56087	0.00052
1490.63250	0.00042
1488.70413	0.00069
1486.77575	0.00079
1484.84738	0.00056
1482.91901	0.00040
1480.99063	0.00054
1479.06226	0.00077
1477.13389	0.00109
1475.20551	0.00137
1473.27714	0.00111
1471.34877	0.00073
1469.42039	0.00078
1467.49202	0.00072
1465.56365	0.00069
1463.63527	0.00099
1461.70690	0.00077
1459.77853	0.00104
1457.85016	0.00152
1455.92178	0.00137
1453.99341	0.00076
1452.06504	0.00044
1450.13666	0.00043
1448.20829	0.00056
1446.27992	0.00079
1444.35154	0.00083
1442.42317	0.00079
1440.49480	0.00082
1438.56642	0.00065
1436.63805	0.00084
1434.70968	0.00102
1432.78130	0.00085
1430.85293	0.00091
1428.92456	0.00077
1426.99618	0.00082
1425.06781	0.00121
1423.13944	0.00134
1421.21106	0.00092
1419.28269	0.00032
1417.35432	0.00038
1415.42594	0.00027
1413.49757	0.00041
1411.56920	0.00078
1409.64082	0.00077
1407.71245	0.00087
1405.78408	0.00105
1403.85570	0.00092
1401.92733	0.00080
1399.99896	0.00100
1398.07059	0.00094
1396.14221	0.00094
1394.21384	0.00093
1392.28547	0.00078
1390.35709	0.00066
1388.42872	0.00062
1386.50035	0.00052
1384.57197	0.00072
1382.64360	0.00081
1380.71523	0.00059
1378.78685	0.00053
1376.85848	0.00057
1374.93011	0.00087
1373.00173	0.00131
1371.07336	0.00117
1369.14499	0.00067
1367.21661	0.00051
1365.28824	0.00056
1363.35987	0.00075
1361.43149	0.00075
1359.50312	0.00069
1357.57475	0.00064
1355.64637	0.00077
1353.71800	0.00084
1351.78963	0.00053
1349.86125	0.00039
1347.93288	0.00052
1346.00451	0.00051
1344.07614	0.00067
1342.14776	0.00074
1340.21939	0.00106
1338.29102	0.00119
1336.36264	0.00086
1334.43427	0.00045
1332.50590	0.00021
1330.57752	0.00015
1328.64915	0.00048
1326.72078	0.00078
1324.79240	0.00088
1322.86403	0.00095
1320.93566	0.00102
1319.00728	0.00057
1317.07891	0.00044
1315.15054	0.00068
1313.22216	0.00063
1311.29379	0.00052
1309.36542	0.00065
1307.43704	0.00070
1305.50867	0.00080
1303.58030	0.00056
1301.65192	0.00069
1299.72355	0.00097
1297.79518	0.00101
1295.86680	0.00118
1293.93843	0.00121
1292.01006	0.00084
1290.08168	0.00096
1288.15331	0.00095
1286.22494	0.00081
1284.29657	0.00109
1282.36819	0.00088
1280.43982	0.00043
1278.51145	0.00050
1276.58307	0.00075
1274.65470	0.00084
1272.72633	0.00035
1270.79795	0.00044
1268.86958	0.00078
1266.94121	0.00098
1265.01283	0.00113
1263.08446	0.00099
1261.15609	0.00086
1259.22771	0.00116
1257.29934	0.00135
1255.37097	0.00103
1253.44259	0.00087
1251.51422	0.00105
1249.58585	0.00112
1247.65747	0.00134
1245.72910	0.00171
1243.80073	0.00181
1241.87235	0.00134
1239.94398	0.00098
1238.01561	0.00129
1236.08723	0.00142
1234.15886	0.00104
1232.23049	0.00065
1230.30212	0.00051
1228.37374	0.00085
1226.44537	0.00128
1224.51700	0.00184
1222.58862	0.00183
1220.66025	0.00131
1218.73188	0.00117
1216.80350	0.00124
1214.87513	0.00111
1212.94676	0.00072
1211.01838	0.00090
1209.09001	0.00061
1207.16164	0.00139
1205.23326	0.00183
1203.30489	0.00198
1201.37652	0.00206
1199.44814	0.00202
1197.51977	0.00181
1195.59140	0.00168
1193.66302	0.00201
1191.73465	0.00185
1189.80628	0.00161
1187.87790	0.00184
1185.94953	0.00224
1184.02116	0.00229
1182.09278	0.00203
1180.16441	0.00178
1178.23604	0.00138
1176.30766	0.00102
1174.37929	0.00120
1172.45092	0.00163
1170.52255	0.00243
1168.59417	0.00213
1166.66580	0.00129
1164.73743	0.00122
1162.80905	0.00150
1160.88068	0.00108
1158.95231	0.00028
1157.02393	0.00068
1155.09556	0.00141
1153.16719	0.00153
1151.23881	0.00117
1149.31044	0.00108
1147.38207	0.00116
1145.45369	0.00165
1143.52532	0.00266
1141.59695	0.00258
1139.66857	0.00196
1137.74020	0.00085
1135.81183	0.00126
1133.88345	0.00167
1131.95508	0.00152
1130.02671	0.00124
1128.09833	0.00099
1126.16996	0.00113
1124.24159	0.00061
1122.31321	0.00057
1120.38484	0.00125
1118.45647	0.00190
1116.52809	0.00150
1114.59972	0.00077
1112.67135	0.00082
1110.74298	0.00124
1108.81460	0.00155
1106.88623	0.00165
1104.95786	0.00152
1103.02948	0.00164
1101.10111	0.00211
1099.17274	0.00217
1097.24436	0.00154
1095.31599	0.00112
1093.38762	0.00148
1091.45924	0.00181
1089.53087	0.00187
1087.60250	0.00170
1085.67412	0.00143
1083.74575	0.00106
1081.81738	0.00116
1079.88900	0.00161
1077.96063	0.00124
1076.03226	0.00088
1074.10388	0.00195
1072.17551	0.00214
1070.24714	0.00262
1068.31876	0.00281
1066.39039	0.00199
1064.46202	0.00137
1062.53364	0.00144
1060.60527	0.00156
1058.67690	0.00143
1056.74853	0.00148
1054.82015	0.00135
1052.89178	0.00100
1050.96341	0.00073
1049.03503	0.00143
1047.10666	0.00185
1045.17829	0.00133
1043.24991	0.00063
1041.32154	0.00088
1039.39317	0.00129
1037.46479	0.00135
1035.53642	0.00079
1033.60805	0.00081
1031.67967	0.00160
1029.75130	0.00149
1027.82293	0.00085
1025.89455	0.00065
1023.96618	0.00082
1022.03781	0.00082
1020.10943	0.00048
1018.18106	0.00064
1016.25269	0.00097
1014.32431	0.00167
1012.39594	0.00184
1010.46757	0.00104
1008.53919	0.00082
1006.61082	0.00087
1004.68245	0.00065
1002.75407	0.00038
1000.82570	0.00072
998.89733	0.00087
996.96896	0.00061
995.04058	0.00152
993.11221	0.00291
991.18384	0.00391
989.25546	0.00478
987.32709	0.00552
985.39872	0.00554
983.47034	0.00519
981.54197	0.00499
979.61360	0.00442
977.68522	0.00354
975.75685	0.00300
973.82848	0.00320
971.90010	0.00372
969.97173	0.00456
968.04336	0.00618
966.11498	0.00806
964.18661	0.00892
962.25824	0.00841
960.32986	0.00721
958.40149	0.00566
956.47312	0.00385
954.54474	0.00277
952.61637	0.00269
950.68800	0.00294
948.75962	0.00382
946.83125	0.00591
944.90288	0.00868
942.97451	0.01097
941.04613	0.01291
939.11776	0.01524
937.18939	0.01744
935.26101	0.01890
933.33264	0.01982
931.40427	0.02083
929.47589	0.02202
927.54752	0.02286
925.61915	0.02311
923.69077	0.02308
921.76240	0.02305
919.83403	0.02332
917.90565	0.02442
915.97728	0.02652
914.04891	0.02896
912.12053	0.03042
910.19216	0.02989
908.26379	0.02751
906.33541	0.02433
904.40704	0.02072
902.47867	0.01696
900.55029	0.01412
898.62192	0.01230
896.69355	0.01076
894.76517	0.00990
892.83680	0.01038
890.90843	0.01215
888.98005	0.01517
887.05168	0.01843
885.12331	0.02079
883.19494	0.02224
881.26656	0.02286
879.33819	0.02318
877.40982	0.02383
875.48144	0.02411
873.55307	0.02339
871.62470	0.02275
869.69632	0.02338
867.76795	0.02459
865.83958	0.02477
863.91120	0.02376
861.98283	0.02276
860.05446	0.02240
858.12608	0.02234
856.19771	0.02233
854.26934	0.02263
852.34096	0.02304
850.41259	0.02271
848.48422	0.02150
846.55584	0.02035
844.62747	0.01953
842.69910	0.01834
840.77072	0.01691
838.84235	0.01550
836.91398	0.01429
834.98560	0.01381
833.05723	0.01333
831.12886	0.01178
829.20049	0.01042
827.27211	0.01036
825.34374	0.00996
823.41537	0.00849
821.48699	0.00772
819.55862	0.00790
817.63025	0.00769
815.70187	0.00722
813.77350	0.00713
811.84513	0.00722
809.91675	0.00740
807.98838	0.00762
806.06001	0.00826
804.13163	0.00832
802.20326	0.00763
800.27489	0.00696
798.34651	0.00603
796.41814	0.00522
794.48977	0.00439
792.56139	0.00341
790.63302	0.00282
788.70465	0.00355
786.77627	0.00477
784.84790	0.00474
782.91953	0.00393
780.99115	0.00292
779.06278	0.00227
777.13441	0.00255
775.20603	0.00309
773.27766	0.00272
771.34929	0.00194
769.42092	0.00185
767.49254	0.00228
765.56417	0.00222
763.63580	0.00164
761.70742	0.00168
759.77905	0.00178
757.85068	0.00174
755.92230	0.00194
753.99393	0.00215
752.06556	0.00150
750.13718	0.00075
748.20881	0.00072
746.28044	0.00126
744.35206	0.00140
742.42369	0.00071
740.49532	0.00093
738.56694	0.00154
736.63857	0.00183
734.71020	0.00197
732.78182	0.00111
730.85345	0.00114
728.92508	0.00188
726.99670	0.00196
725.06833	0.00229
723.13996	0.00180
721.21158	0.00138
719.28321	0.00226
717.35484	0.00217
715.42647	0.00244
713.49809	0.00273
711.56972	0.00345
709.64135	0.00315
707.71297	0.00140
705.78460	0.00110
703.85623	0.00187
701.92785	0.00162
699.99948	0.00177
698.07111	0.00270
696.14273	0.00329
694.21436	0.00297
692.28599	0.00157
690.35761	0.00260
688.42924	0.00247
686.50087	0.00074
684.57249	0.00217
682.64412	0.00316
680.71575	0.00357
678.78737	0.00451
676.85900	0.00478
674.93063	0.00315
673.00225	0.00284
671.07388	0.00423
669.14551	0.00374
667.21713	0.00130
665.28876	0.00302
663.36039	0.00406
661.43201	0.00247
659.50364	0.00180
657.57527	0.00189
655.64690	0.00436
653.71852	0.00586
651.79015	0.00527
649.86178	0.00568
647.93340	0.00579
646.00503	0.00495
644.07666	0.00457
642.14828	0.00430
640.21991	0.00380
638.29154	0.00347
636.36316	0.00295
634.43479	0.00357
632.50642	0.00482
630.57804	0.00591
628.64967	0.00590
626.72130	0.00629
624.79292	0.00678
622.86455	0.00679
620.93618	0.00523
619.00780	0.00342
617.07943	0.00637
615.15106	0.00816
613.22268	0.00693
611.29431	0.00468
609.36594	0.00530
607.43756	0.00608
605.50919	0.00817
603.58082	0.01215
601.65244	0.01301
599.72407	0.01870
