3997.51769	0.09257
3995.58931	0.09303
3993.66094	0.09306
3991.73257	0.09295
3989.80419	0.09298
3987.87582	0.09307
3985.94745	0.09312
3984.01907	0.09294
3982.09070	0.09277
3980.16233	0.09315
3978.23396	0.09369
3976.30558	0.09382
3974.37721	0.09379
3972.44884	0.09379
3970.52046	0.09365
3968.59209	0.09373
3966.66372	0.09410
3964.73534	0.09435
3962.80697	0.09428
3960.87860	0.09397
3958.95022	0.09386
3957.02185	0.09414
3955.09348	0.09423
3953.16510	0.09406
3951.23673	0.09413
3949.30836	0.09435
3947.37998	0.09445
3945.45161	0.09486
3943.52324	0.09546
3941.59486	0.09548
3939.66649	0.09530
3937.73812	0.09551
3935.80974	0.09580
3933.88137	0.09629
3931.95300	0.09694
3930.02462	0.09702
3928.09625	0.09678
3926.16788	0.09687
3924.23950	0.09698
3922.31113	0.09682
3920.38276	0.09691
3918.45439	0.09731
3916.52601	0.09735
3914.59764	0.09700
3912.66927	0.09677
3910.74089	0.09683
3908.81252	0.09725
3906.88415	0.09810
3904.95577	0.09909
3903.02740	0.09960
3901.09903	0.09975
3899.17065	0.09963
3897.24228	0.09933
3895.31391	0.09933
3893.38553	0.09964
3891.45716	0.09941
3889.52879	0.09848
3887.60041	0.09823
3885.67204	0.09927
3883.74367	0.10050
3881.81529	0.10105
3879.88692	0.10103
3877.95855	0.10070
3876.03017	0.10058
3874.10180	0.10090
3872.17343	0.10144
3870.24505	0.10174
3868.31668	0.10172
3866.38831	0.10206
3864.45994	0.10272
3862.53156	0.10275
3860.60319	0.10234
3858.67482	0.10215
3856.74644	0.10234
3854.81807	0.10312
3852.88970	0.10359
3850.96132	0.10275
3849.03295	0.10220
3847.10458	0.10221
3845.17620	0.10228
3843.24783	0.10242
3841.31946	0.10310
3839.39108	0.10418
3837.46271	0.10486
3835.53434	0.10492
3833.60596	0.10463
3831.67759	0.10393
3829.74922	0.10310
3827.82084	0.10283
3825.89247	0.10327
3823.96410	0.10422
3822.03572	0.10547
3820.10735	0.10581
3818.17898	0.10516
3816.25060	0.10476
3814.32223	0.10428
3812.39386	0.10363
3810.46548	0.10355
3808.53711	0.10425
3806.60874	0.10486
3804.68037	0.10474
3802.75199	0.10461
3800.82362	0.10449
3798.89525	0.10446
3796.96687	0.10479
3795.03850	0.10477
3793.11013	0.10423
3791.18175	0.10379
3789.25338	0.10375
3787.32501	0.10422
3785.39663	0.10472
3783.46826	0.10474
3781.53989	0.10489
3779.61151	0.10519
3777.68314	0.10491
3775.75477	0.10470
3773.82639	0.10514
3771.89802	0.10601
3769.96965	0.10692
3768.04127	0.10690
3766.11290	0.10614
3764.18453	0.10567
3762.25615	0.10571
3760.32778	0.10591
3758.39941	0.10585
3756.47103	0.10559
3754.54266	0.10568
3752.61429	0.10659
3750.68591	0.10794
3748.75754	0.10812
3746.82917	0.10753
3744.90080	0.10692
3742.97242	0.10618
3741.04405	0.10557
3739.11568	0.10538
3737.18730	0.10582
3735.25893	0.10654
3733.33056	0.10637
3731.40218	0.10561
3729.47381	0.10496
3727.54544	0.10439
3725.61706	0.10404
3723.68869	0.10411
3721.76032	0.10423
3719.83194	0.10401
3717.90357	0.10351
3715.97520	0.10310
3714.04682	0.10322
3712.11845	0.10390
3710.19008	0.10400
3708.26170	0.10288
3706.33333	0.10146
3704.40496	0.10056
3702.47658	0.10031
3700.54821	0.09991
3698.61984	0.09908
3696.69146	0.09835
3694.76309	0.09797
3692.83472	0.09790
3690.90635	0.09769
3688.97797	0.09633
3687.04960	0.09424
3685.12123	0.09280
3683.19285	0.09182
3681.26448	0.09081
3679.33611	0.08988
3677.40773	0.08926
3675.47936	0.08798
3673.55099	0.08546
3671.62261	0.08335
3669.69424	0.08091
3667.76587	0.07787
3665.83749	0.07552
3663.90912	0.07337
3661.98075	0.07098
3660.05237	0.06878
3658.12400	0.06689
3656.19563	0.06454
3654.26725	0.06206
3652.33888	0.06050
3650.41051	0.05909
3648.48213	0.05617
3646.55376	0.05296
3644.62539	0.05076
3642.69701	0.04861
3640.76864	0.04601
3638.84027	0.04357
3636.91189	0.04153
3634.98352	0.03950
3633.05515	0.03785
3631.12678	0.03710
3629.19840	0.03612
3627.27003	0.03355
3625.34166	0.03080
3623.41328	0.02876
3621.48491	0.02728
3619.55654	0.02595
3617.62816	0.02481
3615.69979	0.02417
3613.77142	0.02363
3611.84304	0.02259
3609.91467	0.02123
3607.98630	0.01992
3606.05792	0.01867
3604.12955	0.01791
3602.20118	0.01745
3600.27280	0.01635
3598.34443	0.01488
3596.41606	0.01415
3594.48768	0.01387
3592.55931	0.01320
3590.63094	0.01208
3588.70256	0.01060
3586.77419	0.00929
3584.84582	0.00905
3582.91744	0.00936
3580.98907	0.00926
3579.06070	0.00871
3577.13233	0.00826
3575.20395	0.00779
3573.27558	0.00694
3571.34721	0.00605
3569.41883	0.00547
3567.49046	0.00507
3565.56209	0.00473
3563.63371	0.00451
3561.70534	0.00440
3559.77697	0.00426
3557.84859	0.00402
3555.92022	0.00373
3553.99185	0.00345
3552.06347	0.00312
3550.13510	0.00277
3548.20673	0.00248
3546.27835	0.00237
3544.34998	0.00232
3542.42161	0.00205
3540.49323	0.00182
3538.56486	0.00163
3536.63649	0.00144
3534.70811	0.00142
3532.77974	0.00129
3530.85137	0.00108
3528.92299	0.00144
3526.99462	0.00180
3525.06625	0.00192
3523.13787	0.00144
3521.20950	0.00067
3519.28113	0.00061
3517.35276	0.00101
3515.42438	0.00086
3513.49601	0.00076
3511.56764	0.00084
3509.63926	0.00079
3507.71089	0.00098
3505.78252	0.00099
3503.85414	0.00049
3501.92577	0.00074
3499.99740	0.00084
3498.06902	0.00043
3496.14065	0.00058
3494.21228	0.00063
3492.28390	0.00059
3490.35553	0.00041
3488.42716	0.00109
3486.49878	0.00161
3484.57041	0.00150
3482.64204	0.00079
3480.71366	0.00030
3478.78529	0.00045
3476.85692	0.00109
3474.92854	0.00132
3473.00017	0.00106
3471.07180	0.00062
3469.14342	0.00077
3467.21505	0.00120
3465.28668	0.00120
3463.35831	0.00112
3461.42993	0.00086
3459.50156	0.00044
3457.57319	0.00038
3455.64481	0.00055
3453.71644	0.00067
3451.78807	0.00082
3449.85969	0.00105
3447.93132	0.00122
3446.00295	0.00123
3444.07457	0.00110
3442.14620	0.00104
3440.21783	0.00093
3438.28945	0.00045
3436.36108	0.00049
3434.43271	0.00081
3432.50433	0.00074
3430.57596	0.00115
3428.64759	0.00110
3426.71921	0.00092
3424.79084	0.00108
3422.86247	0.00081
3420.93409	0.00049
3419.00572	0.00059
3417.07735	0.00063
3415.14897	0.00068
3413.22060	0.00074
3411.29223	0.00094
3409.36385	0.00076
3407.43548	0.00062
3405.50711	0.00091
3403.57874	0.00126
3401.65036	0.00132
3399.72199	0.00084
3397.79362	0.00034
3395.86524	0.00068
3393.93687	0.00086
3392.00850	0.00109
3390.08012	0.00101
3388.15175	0.00091
3386.22338	0.00092
3384.29500	0.00081
3382.36663	0.00068
3380.43826	0.00062
3378.50988	0.00070
3376.58151	0.00099
3374.65314	0.00099
3372.72476	0.00065
3370.79639	0.00083
3368.86802	0.00086
3366.93964	0.00081
3365.01127	0.00125
3363.08290	0.00133
3361.15452	0.00088
3359.22615	0.00034
3357.29778	0.00062
3355.36940	0.00040
3353.44103	0.00033
3351.51266	0.00049
3349.58428	0.00074
3347.65591	0.00105
3345.72754	0.00091
3343.79917	0.00061
3341.87079	0.00048
3339.94242	0.00028
3338.01405	0.00066
3336.08567	0.00089
3334.15730	0.00125
3332.22893	0.00151
3330.30055	0.00147
3328.37218	0.00117
3326.44381	0.00118
3324.51543	0.00084
3322.58706	0.00096
3320.65869	0.00128
3318.73031	0.00120
3316.80194	0.00098
3314.87357	0.00065
3312.94519	0.00035
3311.01682	0.00053
3309.08845	0.00087
3307.16007	0.00122
3305.23170	0.00143
3303.30333	0.00129
3301.37495	0.00102
3299.44658	0.00075
3297.51821	0.00084
3295.58983	0.00092
3293.66146	0.00081
3291.73309	0.00097
3289.80472	0.00107
3287.87634	0.00096
3285.94797	0.00119
3284.01960	0.00067
3282.09122	0.00034
3280.16285	0.00114
3278.23448	0.00129
3276.30610	0.00100
3274.37773	0.00085
3272.44936	0.00069
3270.52098	0.00078
3268.59261	0.00107
3266.66424	0.00083
3264.73586	0.00039
3262.80749	0.00031
3260.87912	0.00022
3258.95074	0.00047
3257.02237	0.00060
3255.09400	0.00098
3253.16562	0.00105
3251.23725	0.00104
3249.30888	0.00119
3247.38050	0.00129
3245.45213	0.00123
3243.52376	0.00114
3241.59538	0.00078
3239.66701	0.00040
3237.73864	0.00040
3235.81026	0.00090
3233.88189	0.00103
3231.95352	0.00053
3230.02515	0.00054
3228.09677	0.00051
3226.16840	0.00055
3224.24003	0.00074
3222.31165	0.00067
3220.38328	0.00042
3218.45491	0.00060
3216.52653	0.00085
3214.59816	0.00101
3212.66979	0.00100
3210.74141	0.00083
3208.81304	0.00087
3206.88467	0.00072
3204.95629	0.00051
3203.02792	0.00055
3201.09955	0.00059
3199.17117	0.00067
3197.24280	0.00082
3195.31443	0.00063
3193.38605	0.00028
3191.45768	0.00042
3189.52931	0.00081
3187.60093	0.00082
3185.67256	0.00064
3183.74419	0.00022
3181.81581	0.00067
3179.88744	0.00076
3177.95907	0.00023
3176.03070	0.00069
3174.10232	0.00099
3172.17395	0.00088
3170.24558	0.00073
3168.31720	0.00068
3166.38883	0.00056
3164.46046	0.00061
3162.53208	0.00073
3160.60371	0.00089
3158.67534	0.00117
3156.74696	0.00121
3154.81859	0.00098
3152.89022	0.00078
3150.96184	0.00087
3149.03347	0.00107
3147.10510	0.00069
3145.17672	0.00072
3143.24835	0.00086
3141.31998	0.00112
3139.39160	0.00109
3137.46323	0.00058
3135.53486	0.00016
3133.60648	0.00030
3131.67811	0.00037
3129.74974	0.00049
3127.82136	0.00055
3125.89299	0.00057
3123.96462	0.00083
3122.03624	0.00088
3120.10787	0.00065
3118.17950	0.00056
3116.25113	0.00050
3114.32275	0.00057
3112.39438	0.00088
3110.46601	0.00079
3108.53763	0.00082
3106.60926	0.00086
3104.68089	0.00098
3102.75251	0.00096
3100.82414	0.00085
3098.89577	0.00052
3096.96739	0.00009
3095.03902	0.00026
3093.11065	0.00035
3091.18227	0.00069
3089.25390	0.00092
3087.32553	0.00093
3085.39715	0.00092
3083.46878	0.00082
3081.54041	0.00063
3079.61203	0.00091
3077.68366	0.00113
3075.75529	0.00131
3073.82691	0.00137
3071.89854	0.00113
3069.97017	0.00063
3068.04179	0.00038
3066.11342	0.00044
3064.18505	0.00101
3062.25668	0.00121
3060.32830	0.00108
3058.39993	0.00063
3056.47156	0.00044
3054.54318	0.00016
3052.61481	0.00033
3050.68644	0.00047
3048.75806	0.00056
3046.82969	0.00103
3044.90132	0.00124
3042.97294	0.00135
3041.04457	0.00132
3039.11620	0.00134
3037.18782	0.00146
3035.25945	0.00153
3033.33108	0.00158
3031.40270	0.00176
3029.47433	0.00205
3027.54596	0.00236
3025.61758	0.00244
3023.68921	0.00214
3021.76084	0.00178
3019.83246	0.00167
3017.90409	0.00162
3015.97572	0.00176
3014.04734	0.00204
3012.11897	0.00192
3010.19060	0.00155
3008.26222	0.00153
3006.33385	0.00200
3004.40548	0.00244
3002.47711	0.00265
3000.54873	0.00237
2998.62036	0.00184
2996.69199	0.00158
2994.76361	0.00195
2992.83524	0.00222
2990.90687	0.00215
2988.97849	0.00210
2987.05012	0.00201
2985.12175	0.00176
2983.19337	0.00170
2981.26500	0.00156
2979.33663	0.00159
2977.40825	0.00146
2975.47988	0.00124
2973.55151	0.00097
2971.62313	0.00103
2969.69476	0.00100
2967.76639	0.00071
2965.83801	0.00064
2963.90964	0.00095
2961.98127	0.00114
2960.05289	0.00099
2958.12452	0.00094
2956.19615	0.00109
2954.26777	0.00149
2952.33940	0.00187
2950.41103	0.00204
2948.48266	0.00182
2946.55428	0.00166
2944.62591	0.00180
2942.69754	0.00184
2940.76916	0.00159
2938.84079	0.00129
2936.91242	0.00134
2934.98404	0.00132
2933.05567	0.00140
2931.12730	0.00132
2929.19892	0.00054
2927.27055	0.00066
2925.34218	0.00122
2923.41380	0.00163
2921.48543	0.00140
2919.55706	0.00120
2917.62868	0.00162
2915.70031	0.00167
2913.77194	0.00117
2911.84356	0.00116
2909.91519	0.00121
2907.98682	0.00128
2906.05844	0.00182
2904.13007	0.00226
2902.20170	0.00213
2900.27332	0.00154
2898.34495	0.00143
2896.41658	0.00188
2894.48820	0.00254
2892.55983	0.00274
2890.63146	0.00239
2888.70309	0.00221
2886.77471	0.00239
2884.84634	0.00235
2882.91797	0.00217
2880.98959	0.00224
2879.06122	0.00236
2877.13285	0.00218
2875.20447	0.00216
2873.27610	0.00244
2871.34773	0.00248
2869.41935	0.00218
2867.49098	0.00202
2865.56261	0.00246
2863.63423	0.00339
2861.70586	0.00389
2859.77749	0.00354
2857.84911	0.00331
2855.92074	0.00374
2853.99237	0.00431
2852.06399	0.00449
2850.13562	0.00446
2848.20725	0.00447
2846.27887	0.00469
2844.35050	0.00534
2842.42213	0.00624
2840.49375	0.00692
2838.56538	0.00726
2836.63701	0.00741
2834.70863	0.00748
2832.78026	0.00745
2830.85189	0.00735
2828.92352	0.00743
2826.99514	0.00782
2825.06677	0.00836
2823.13840	0.00882
2821.21002	0.00922
2819.28165	0.00958
2817.35328	0.00970
2815.42490	0.00976
2813.49653	0.01013
2811.56816	0.01069
2809.63978	0.01109
2807.71141	0.01140
2805.78304	0.01163
2803.85466	0.01164
2801.92629	0.01173
2799.99792	0.01217
2798.06954	0.01281
2796.14117	0.01324
2794.21280	0.01326
2792.28442	0.01313
2790.35605	0.01330
2788.42768	0.01390
2786.49930	0.01446
2784.57093	0.01455
2782.64256	0.01456
2780.71418	0.01475
2778.78581	0.01485
2776.85744	0.01505
2774.92907	0.01542
2773.00069	0.01551
2771.07232	0.01548
2769.14395	0.01571
2767.21557	0.01608
2765.28720	0.01649
2763.35883	0.01703
2761.43045	0.01744
2759.50208	0.01748
2757.57371	0.01746
2755.64533	0.01769
2753.71696	0.01805
2751.78859	0.01837
2749.86021	0.01850
2747.93184	0.01847
2746.00347	0.01845
2744.07509	0.01860
2742.14672	0.01887
2740.21835	0.01915
2738.28997	0.01938
2736.36160	0.01958
2734.43323	0.01992
2732.50485	0.02046
2730.57648	0.02102
2728.64811	0.02153
2726.71973	0.02186
2724.79136	0.02181
2722.86299	0.02149
2720.93461	0.02122
2719.00624	0.02134
2717.07787	0.02185
2715.14950	0.02227
2713.22112	0.02237
2711.29275	0.02250
2709.36438	0.02288
2707.43600	0.02335
2705.50763	0.02382
2703.57926	0.02435
2701.65088	0.02483
2699.72251	0.02509
2697.79414	0.02513
2695.86576	0.02515
2693.93739	0.02540
2692.00902	0.02584
2690.08064	0.02622
2688.15227	0.02652
2686.22390	0.02677
2684.29552	0.02691
2682.36715	0.02708
2680.43878	0.02741
2678.51040	0.02793
2676.58203	0.02845
2674.65366	0.02866
2672.72528	0.02851
2670.79691	0.02836
2668.86854	0.02865
2666.94016	0.02917
2665.01179	0.02951
2663.08342	0.02965
2661.15505	0.02965
2659.22667	0.02972
2657.29830	0.03000
2655.36993	0.03025
2653.44155	0.03029
2651.51318	0.03026
2649.58481	0.03032
2647.65643	0.03049
2645.72806	0.03059
2643.79969	0.03075
2641.87131	0.03107
2639.94294	0.03139
2638.01457	0.03171
2636.08619	0.03196
2634.15782	0.03198
2632.22945	0.03189
2630.30107	0.03197
2628.37270	0.03219
2626.44433	0.03236
2624.51595	0.03248
2622.58758	0.03259
2620.65921	0.03277
2618.73083	0.03307
2616.80246	0.03340
2614.87409	0.03354
2612.94571	0.03358
2611.01734	0.03388
2609.08897	0.03452
2607.16059	0.03518
2605.23222	0.03560
2603.30385	0.03561
2601.37548	0.03545
2599.44710	0.03557
2597.51873	0.03595
2595.59036	0.03635
2593.66198	0.03674
2591.73361	0.03703
2589.80524	0.03719
2587.87686	0.03736
2585.94849	0.03766
2584.02012	0.03796
2582.09174	0.03796
2580.16337	0.03789
2578.23500	0.03814
2576.30662	0.03860
2574.37825	0.03912
2572.44988	0.03958
2570.52150	0.03975
2568.59313	0.03985
2566.66476	0.04044
2564.73638	0.04137
2562.80801	0.04190
2560.87964	0.04203
2558.95126	0.04226
2557.02289	0.04269
2555.09452	0.04317
2553.16614	0.04361
2551.23777	0.04395
2549.30940	0.04428
2547.38103	0.04461
2545.45265	0.04482
2543.52428	0.04507
2541.59591	0.04550
2539.66753	0.04591
2537.73916	0.04612
2535.81079	0.04624
2533.88241	0.04644
2531.95404	0.04663
2530.02567	0.04687
2528.09729	0.04734
2526.16892	0.04789
2524.24055	0.04814
2522.31217	0.04802
2520.38380	0.04796
2518.45543	0.04820
2516.52705	0.04869
2514.59868	0.04931
2512.67031	0.04976
2510.74193	0.04980
2508.81356	0.04971
2506.88519	0.04990
2504.95681	0.05046
2503.02844	0.05102
2501.10007	0.05129
2499.17169	0.05145
2497.24332	0.05181
2495.31495	0.05226
2493.38657	0.05261
2491.45820	0.05299
2489.52983	0.05348
2487.60146	0.05392
2485.67308	0.05426
2483.74471	0.05449
2481.81634	0.05448
2479.88796	0.05444
2477.95959	0.05475
2476.03122	0.05531
2474.10284	0.05590
2472.17447	0.05638
2470.24610	0.05674
2468.31772	0.05714
2466.38935	0.05760
2464.46098	0.05808
2462.53260	0.05857
2460.60423	0.05904
2458.67586	0.05946
2456.74748	0.05984
2454.81911	0.06032
2452.89074	0.06087
2450.96236	0.06128
2449.03399	0.06153
2447.10562	0.06178
2445.17724	0.06208
2443.24887	0.06245
2441.32050	0.06280
2439.39212	0.06309
2437.46375	0.06348
2435.53538	0.06407
2433.60700	0.06473
2431.67863	0.06534
2429.75026	0.06575
2427.82189	0.06596
2425.89351	0.06604
2423.96514	0.06614
2422.03677	0.06641
2420.10839	0.06688
2418.18002	0.06745
2416.25165	0.06797
2414.32327	0.06831
2412.39490	0.06845
2410.46653	0.06857
2408.53815	0.06885
2406.60978	0.06933
2404.68141	0.06998
2402.75303	0.07063
2400.82466	0.07099
2398.89629	0.07123
2396.96791	0.07159
2395.03954	0.07200
2393.11117	0.07238
2391.18279	0.07290
2389.25442	0.07363
2387.32605	0.07443
2385.39767	0.07501
2383.46930	0.07521
2381.54093	0.07534
2379.61255	0.07562
2377.68418	0.07578
2375.75581	0.07586
2373.82744	0.07609
2371.89906	0.07632
2369.97069	0.07663
2368.04232	0.07698
2366.11394	0.07750
2364.18557	0.07859
2362.25720	0.07956
2360.32882	0.07992
2358.40045	0.08053
2356.47208	0.08160
2354.54370	0.08221
2352.61533	0.08208
2350.68696	0.08185
2348.75858	0.08203
2346.83021	0.08270
2344.90184	0.08320
2342.97346	0.08265
2341.04509	0.08227
2339.11672	0.08303
2337.18834	0.08378
2335.25997	0.08389
2333.33160	0.08384
2331.40322	0.08402
2329.47485	0.08454
2327.54648	0.08497
2325.61810	0.08512
2323.68973	0.08503
2321.76136	0.08481
2319.83298	0.08483
2317.90461	0.08527
2315.97624	0.08579
2314.04787	0.08598
2312.11949	0.08576
2310.19112	0.08563
2308.26275	0.08591
2306.33437	0.08635
2304.40600	0.08682
2302.47763	0.08722
2300.54925	0.08751
2298.62088	0.08777
2296.69251	0.08794
2294.76413	0.08800
2292.83576	0.08828
2290.90739	0.08886
2288.97901	0.08933
2287.05064	0.08949
2285.12227	0.08962
2283.19389	0.09002
2281.26552	0.09049
2279.33715	0.09059
2277.40877	0.09054
2275.48040	0.09074
2273.55203	0.09105
2271.62365	0.09123
2269.69528	0.09140
2267.76691	0.09167
2265.83853	0.09181
2263.91016	0.09176
2261.98179	0.09174
2260.05342	0.09182
2258.12504	0.09203
2256.19667	0.09231
2254.26830	0.09244
2252.33992	0.09262
2250.41155	0.09300
2248.48318	0.09336
2246.55480	0.09357
2244.62643	0.09379
2242.69806	0.09409
2240.76968	0.09444
2238.84131	0.09470
2236.91294	0.09471
2234.98456	0.09460
2233.05619	0.09463
2231.12782	0.09478
2229.19944	0.09477
2227.27107	0.09471
2225.34270	0.09485
2223.41432	0.09513
2221.48595	0.09539
2219.55758	0.09556
2217.62920	0.09557
2215.70083	0.09550
2213.77246	0.09559
2211.84408	0.09572
2209.91571	0.09574
2207.98734	0.09581
2206.05896	0.09597
2204.13059	0.09601
2202.20222	0.09586
2200.27385	0.09571
2198.34547	0.09573
2196.41710	0.09583
2194.48873	0.09578
2192.56035	0.09571
2190.63198	0.09569
2188.70361	0.09561
2186.77523	0.09545
2184.84686	0.09539
2182.91849	0.09562
2180.99011	0.09595
2179.06174	0.09614
2177.13337	0.09624
2175.20499	0.09621
2173.27662	0.09606
2171.34825	0.09604
2169.41987	0.09620
2167.49150	0.09636
2165.56313	0.09639
2163.63475	0.09636
2161.70638	0.09642
2159.77801	0.09656
2157.84963	0.09662
2155.92126	0.09651
2153.99289	0.09641
2152.06451	0.09647
2150.13614	0.09664
2148.20777	0.09684
2146.27940	0.09709
2144.35102	0.09736
2142.42265	0.09752
2140.49428	0.09742
2138.56590	0.09729
2136.63753	0.09741
2134.70916	0.09755
2132.78078	0.09772
2130.85241	0.09803
2128.92404	0.09818
2126.99566	0.09812
2125.06729	0.09820
2123.13892	0.09851
2121.21054	0.09894
2119.28217	0.09938
2117.35380	0.09964
2115.42542	0.09970
2113.49705	0.09983
2111.56868	0.10007
2109.64030	0.10022
2107.71193	0.10029
2105.78356	0.10037
2103.85518	0.10041
2101.92681	0.10047
2099.99844	0.10056
2098.07006	0.10068
2096.14169	0.10100
2094.21332	0.10138
2092.28494	0.10155
2090.35657	0.10167
2088.42820	0.10191
2086.49983	0.10213
2084.57145	0.10220
2082.64308	0.10217
2080.71471	0.10209
2078.78633	0.10214
2076.85796	0.10236
2074.92959	0.10259
2073.00121	0.10268
2071.07284	0.10258
2069.14447	0.10258
2067.21609	0.10286
2065.28772	0.10320
2063.35935	0.10343
2061.43097	0.10360
2059.50260	0.10387
2057.57423	0.10421
2055.64585	0.10439
2053.71748	0.10451
2051.78911	0.10482
2049.86073	0.10514
2047.93236	0.10532
2046.00399	0.10558
2044.07561	0.10594
2042.14724	0.10626
2040.21887	0.10662
2038.29049	0.10704
2036.36212	0.10743
2034.43375	0.10775
2032.50538	0.10797
2030.57700	0.10807
2028.64863	0.10822
2026.72026	0.10858
2024.79188	0.10899
2022.86351	0.10933
2020.93514	0.10968
2019.00676	0.10999
2017.07839	0.11004
2015.15002	0.10998
2013.22164	0.11015
2011.29327	0.11049
2009.36490	0.11085
2007.43652	0.11116
2005.50815	0.11136
2003.57978	0.11158
2001.65140	0.11187
1999.72303	0.11218
1997.79466	0.11248
1995.86628	0.11277
1993.93791	0.11312
1992.00954	0.11355
1990.08116	0.11382
1988.15279	0.11384
1986.22442	0.11387
1984.29604	0.11408
1982.36767	0.11430
1980.43930	0.11442
1978.51092	0.11462
1976.58255	0.11488
1974.65418	0.11490
1972.72581	0.11476
1970.79743	0.11491
1968.86906	0.11533
1966.94069	0.11562
1965.01231	0.11579
1963.08394	0.11608
1961.15557	0.11646
1959.22719	0.11680
1957.29882	0.11713
1955.37045	0.11737
1953.44207	0.11743
1951.51370	0.11754
1949.58533	0.11788
1947.65695	0.11840
1945.72858	0.11896
1943.80021	0.11946
1941.87183	0.11989
1939.94346	0.12014
1938.01509	0.12017
1936.08671	0.12014
1934.15834	0.12036
1932.22997	0.12078
1930.30159	0.12109
1928.37322	0.12124
1926.44485	0.12142
1924.51647	0.12188
1922.58810	0.12248
1920.65973	0.12287
1918.73135	0.12299
1916.80298	0.12291
1914.87461	0.12279
1912.94624	0.12284
1911.01786	0.12312
1909.08949	0.12345
1907.16112	0.12354
1905.23274	0.12336
1903.30437	0.12320
1901.37600	0.12325
1899.44762	0.12338
1897.51925	0.12342
1895.59088	0.12349
1893.66250	0.12376
1891.73413	0.12408
1889.80576	0.12417
1887.87738	0.12401
1885.94901	0.12388
1884.02064	0.12398
1882.09226	0.12423
1880.16389	0.12452
1878.23552	0.12479
1876.30714	0.12504
1874.37877	0.12520
1872.45040	0.12546
1870.52202	0.12606
1868.59365	0.12658
1866.66528	0.12650
1864.73690	0.12623
1862.80853	0.12611
1860.88016	0.12620
1858.95179	0.12654
1857.02341	0.12688
1855.09504	0.12698
1853.16667	0.12709
1851.23829	0.12727
1849.30992	0.12732
1847.38155	0.12714
1845.45317	0.12691
1843.52480	0.12696
1841.59643	0.12710
1839.66805	0.12708
1837.73968	0.12711
1835.81131	0.12731
1833.88293	0.12758
1831.95456	0.12791
1830.02619	0.12802
1828.09781	0.12763
1826.16944	0.12723
1824.24107	0.12695
1822.31269	0.12662
1820.38432	0.12647
1818.45595	0.12651
1816.52757	0.12643
1814.59920	0.12618
1812.67083	0.12597
1810.74245	0.12588
1808.81408	0.12565
1806.88571	0.12509
1804.95733	0.12451
1803.02896	0.12424
1801.10059	0.12407
1799.17222	0.12367
1797.24384	0.12315
1795.31547	0.12287
1793.38710	0.12276
1791.45872	0.12188
1789.53035	0.12038
1787.60198	0.11938
1785.67360	0.11869
1783.74523	0.11793
1781.81686	0.11726
1779.88848	0.11659
1777.96011	0.11577
1776.03174	0.11515
1774.10336	0.11469
1772.17499	0.11372
1770.24662	0.11218
1768.31824	0.11079
1766.38987	0.10948
1764.46150	0.10813
1762.53312	0.10666
1760.60475	0.10490
1758.67638	0.10279
1756.74800	0.10008
1754.81963	0.09730
1752.89126	0.09504
1750.96288	0.09252
1749.03451	0.08870
1747.10614	0.08402
1745.17777	0.07950
1743.24939	0.07541
1741.32102	0.07136
1739.39265	0.06724
1737.46427	0.06415
1735.53590	0.06197
1733.60753	0.05911
1731.67915	0.05581
1729.75078	0.05293
1727.82241	0.04993
1725.89403	0.04664
1723.96566	0.04310
1722.03729	0.03984
1720.10891	0.03713
1718.18054	0.03391
1716.25217	0.02931
1714.32379	0.02491
1712.39542	0.02136
1710.46705	0.01819
1708.53867	0.01499
1706.61030	0.01153
1704.68193	0.00831
1702.75355	0.00598
1700.82518	0.00397
1698.89681	0.00216
1696.96843	0.00141
1695.04006	0.00120
1693.11169	0.00094
1691.18331	0.00064
1689.25494	0.00045
1687.32657	0.00064
1685.39820	0.00129
1683.46982	0.00103
1681.54145	0.00046
1679.61308	0.00046
1677.68470	0.00047
1675.75633	0.00054
1673.82796	0.00069
1671.89958	0.00083
1669.97121	0.00102
1668.04284	0.00068
1666.11446	0.00053
1664.18609	0.00113
1662.25772	0.00130
1660.32934	0.00103
1658.40097	0.00073
1656.47260	0.00081
1654.54422	0.00119
1652.61585	0.00106
1650.68748	0.00088
1648.75910	0.00092
1646.83073	0.00074
1644.90236	0.00064
1642.97398	0.00037
1641.04561	0.00030
1639.11724	0.00025
1637.18886	0.00066
1635.26049	0.00111
1633.33212	0.00113
1631.40375	0.00099
1629.47537	0.00074
1627.54700	0.00034
1625.61863	0.00032
1623.69025	0.00069
1621.76188	0.00078
1619.83351	0.00058
1617.90513	0.00046
1615.97676	0.00056
1614.04839	0.00065
1612.12001	0.00037
1610.19164	0.00017
1608.26327	0.00043
1606.33489	0.00059
1604.40652	0.00079
1602.47815	0.00075
1600.54977	0.00059
1598.62140	0.00049
1596.69303	0.00031
1594.76465	0.00031
1592.83628	0.00028
1590.90791	0.00025
1588.97953	0.00060
1587.05116	0.00075
1585.12279	0.00073
1583.19441	0.00075
1581.26604	0.00082
1579.33767	0.00087
1577.40929	0.00090
1575.48092	0.00064
1573.55255	0.00040
1571.62418	0.00018
1569.69580	0.00024
1567.76743	0.00015
1565.83906	0.00019
1563.91068	0.00041
1561.98231	0.00067
1560.05394	0.00101
1558.12556	0.00102
1556.19719	0.00061
1554.26882	0.00041
1552.34044	0.00058
1550.41207	0.00040
1548.48370	0.00062
1546.55532	0.00072
1544.62695	0.00053
1542.69858	0.00092
1540.77020	0.00106
1538.84183	0.00075
1536.91346	0.00051
1534.98508	0.00022
1533.05671	0.00025
1531.12834	0.00040
1529.19996	0.00047
1527.27159	0.00062
1525.34322	0.00109
1523.41484	0.00116
1521.48647	0.00068
1519.55810	0.00035
1517.62972	0.00069
1515.70135	0.00067
1513.77298	0.00052
1511.84461	0.00065
1509.91623	0.00072
1507.98786	0.00033
1506.05949	0.00075
1504.13111	0.00080
1502.20274	0.00024
1500.27437	0.00038
1498.34599	0.00040
1496.41762	0.00033
1494.48925	0.00043
1492.56087	0.00060
1490.63250	0.00066
1488.70413	0.00083
1486.77575	0.00107
1484.84738	0.00136
1482.91901	0.00165
1480.99063	0.00178
1479.06226	0.00180
1477.13389	0.00186
1475.20551	0.00185
1473.27714	0.00153
1471.34877	0.00115
1469.42039	0.00108
1467.49202	0.00102
1465.56365	0.00079
1463.63527	0.00053
1461.70690	0.00050
1459.77853	0.00088
1457.85016	0.00148
1455.92178	0.00129
1453.99341	0.00068
1452.06504	0.00048
1450.13666	0.00043
1448.20829	0.00034
1446.27992	0.00036
1444.35154	0.00045
1442.42317	0.00035
1440.49480	0.00078
1438.56642	0.00112
1436.63805	0.00101
1434.70968	0.00098
1432.78130	0.00096
1430.85293	0.00069
1428.92456	0.00054
1426.99618	0.00038
1425.06781	0.00040
1423.13944	0.00057
1421.21106	0.00088
1419.28269	0.00103
1417.35432	0.00055
1415.42594	0.00025
1413.49757	0.00016
1411.56920	0.00050
1409.64082	0.00071
1407.71245	0.00074
1405.78408	0.00089
1403.85570	0.00070
1401.92733	0.00059
1399.99896	0.00027
1398.07059	0.00059
1396.14221	0.00091
1394.21384	0.00059
1392.28547	0.00024
1390.35709	0.00052
1388.42872	0.00060
1386.50035	0.00051
1384.57197	0.00055
1382.64360	0.00066
1380.71523	0.00070
1378.78685	0.00065
1376.85848	0.00026
1374.93011	0.00041
1373.00173	0.00045
1371.07336	0.00021
1369.14499	0.00047
1367.21661	0.00088
1365.28824	0.00118
1363.35987	0.00140
1361.43149	0.00130
1359.50312	0.00125
1357.57475	0.00154
1355.64637	0.00177
1353.71800	0.00180
1351.78963	0.00202
1349.86125	0.00239
1347.93288	0.00256
1346.00451	0.00248
1344.07614	0.00223
1342.14776	0.00188
1340.21939	0.00173
1338.29102	0.00174
1336.36264	0.00167
1334.43427	0.00133
1332.50590	0.00112
1330.57752	0.00129
1328.64915	0.00133
1326.72078	0.00111
1324.79240	0.00108
1322.86403	0.00122
1320.93566	0.00125
1319.00728	0.00103
1317.07891	0.00103
1315.15054	0.00133
1313.22216	0.00127
1311.29379	0.00118
1309.36542	0.00116
1307.43704	0.00113
1305.50867	0.00096
1303.58030	0.00079
1301.65192	0.00080
1299.72355	0.00091
1297.79518	0.00100
1295.86680	0.00102
1293.93843	0.00097
1292.01006	0.00111
1290.08168	0.00107
1288.15331	0.00054
1286.22494	0.00027
1284.29657	0.00070
1282.36819	0.00130
1280.43982	0.00127
1278.51145	0.00093
1276.58307	0.00101
1274.65470	0.00155
1272.72633	0.00195
1270.79795	0.00179
1268.86958	0.00152
1266.94121	0.00131
1265.01283	0.00098
1263.08446	0.00105
1261.15609	0.00087
1259.22771	0.00081
1257.29934	0.00059
1255.37097	0.00102
1253.44259	0.00103
1251.51422	0.00075
1249.58585	0.00113
1247.65747	0.00124
1245.72910	0.00135
1243.80073	0.00143
1241.87235	0.00145
1239.94398	0.00176
1238.01561	0.00151
1236.08723	0.00127
1234.15886	0.00144
1232.23049	0.00163
1230.30212	0.00168
1228.37374	0.00203
1226.44537	0.00245
1224.51700	0.00258
1222.58862	0.00263
1220.66025	0.00274
1218.73188	0.00285
1216.80350	0.00269
1214.87513	0.00245
1212.94676	0.00239
1211.01838	0.00276
1209.09001	0.00284
1207.16164	0.00285
1205.23326	0.00276
1203.30489	0.00276
1201.37652	0.00314
1199.44814	0.00431
1197.51977	0.00543
1195.59140	0.00585
1193.66302	0.00606
1191.73465	0.00688
1189.80628	0.00761
1187.87790	0.00724
1185.94953	0.00653
1184.02116	0.00622
1182.09278	0.00610
1180.16441	0.00593
1178.23604	0.00557
1176.30766	0.00474
1174.37929	0.00402
1172.45092	0.00356
1170.52255	0.00255
1168.59417	0.00115
1166.66580	0.00034
1164.73743	0.00028
1162.80905	0.00068
1160.88068	0.00111
1158.95231	0.00111
1157.02393	0.00073
1155.09556	0.00036
1153.16719	0.00067
1151.23881	0.00122
1149.31044	0.00172
1147.38207	0.00167
1145.45369	0.00195
1143.52532	0.00308
1141.59695	0.00383
1139.66857	0.00411
1137.74020	0.00448
1135.81183	0.00485
1133.88345	0.00434
1131.95508	0.00311
1130.02671	0.00225
1128.09833	0.00179
1126.16996	0.00150
1124.24159	0.00060
1122.31321	0.00080
1120.38484	0.00124
1118.45647	0.00203
1116.52809	0.00203
1114.59972	0.00093
1112.67135	0.00097
1110.74298	0.00119
1108.81460	0.00148
1106.88623	0.00180
1104.95786	0.00209
1103.02948	0.00194
1101.10111	0.00121
1099.17274	0.00081
1097.24436	0.00092
1095.31599	0.00076
1093.38762	0.00094
1091.45924	0.00050
1089.53087	0.00066
1087.60250	0.00133
1085.67412	0.00215
1083.74575	0.00231
1081.81738	0.00174
1079.88900	0.00087
1077.96063	0.00071
1076.03226	0.00103
1074.10388	0.00112
1072.17551	0.00115
1070.24714	0.00100
1068.31876	0.00151
1066.39039	0.00129
1064.46202	0.00064
1062.53364	0.00057
1060.60527	0.00068
1058.67690	0.00133
1056.74853	0.00206
1054.82015	0.00185
1052.89178	0.00103
1050.96341	0.00126
1049.03503	0.00176
1047.10666	0.00143
1045.17829	0.00122
1043.24991	0.00126
1041.32154	0.00093
1039.39317	0.00036
1037.46479	0.00117
1035.53642	0.00180
1033.60805	0.00164
1031.67967	0.00133
1029.75130	0.00105
1027.82293	0.00050
1025.89455	0.00118
1023.96618	0.00131
1022.03781	0.00093
1020.10943	0.00075
1018.18106	0.00097
1016.25269	0.00124
1014.32431	0.00139
1012.39594	0.00114
1010.46757	0.00156
1008.53919	0.00238
1006.61082	0.00292
1004.68245	0.00355
1002.75407	0.00455
1000.82570	0.00607
998.89733	0.00784
996.96896	0.00887
995.04058	0.00936
993.11221	0.01038
991.18384	0.01199
989.25546	0.01356
987.32709	0.01471
985.39872	0.01532
983.47034	0.01540
981.54197	0.01488
979.61360	0.01382
977.68522	0.01283
975.75685	0.01249
973.82848	0.01290
971.90010	0.01419
969.97173	0.01612
968.04336	0.01808
966.11498	0.01978
964.18661	0.02083
962.25824	0.02048
960.32986	0.01822
958.40149	0.01483
956.47312	0.01226
954.54474	0.01169
952.61637	0.01272
950.68800	0.01476
948.75962	0.01764
946.83125	0.02094
944.90288	0.02364
942.97451	0.02551
941.04613	0.02732
939.11776	0.02944
937.18939	0.03156
935.26101	0.03324
933.33264	0.03415
931.40427	0.03472
929.47589	0.03572
927.54752	0.03666
925.61915	0.03672
923.69077	0.03622
921.76240	0.03614
919.83403	0.03700
917.90565	0.03842
915.97728	0.03972
914.04891	0.04038
912.12053	0.03998
910.19216	0.03873
908.26379	0.03749
906.33541	0.03651
904.40704	0.03510
902.47867	0.03305
900.55029	0.03096
898.62192	0.02936
896.69355	0.02830
894.76517	0.02778
892.83680	0.02836
890.90843	0.03020
888.98005	0.03207
887.05168	0.03305
885.12331	0.03401
883.19494	0.03539
881.26656	0.03636
879.33819	0.03664
877.40982	0.03654
875.48144	0.03615
873.55307	0.03561
871.62470	0.03531
869.69632	0.03584
867.76795	0.03721
865.83958	0.03815
863.91120	0.03817
861.98283	0.03820
860.05446	0.03805
858.12608	0.03728
856.19771	0.03635
854.26934	0.03551
852.34096	0.03494
850.41259	0.03487
848.48422	0.03483
846.55584	0.03386
844.62747	0.03222
842.69910	0.03128
840.77072	0.03130
838.84235	0.03158
836.91398	0.03121
834.98560	0.02970
833.05723	0.02819
831.12886	0.02742
829.20049	0.02675
827.27211	0.02598
825.34374	0.02466
823.41537	0.02226
821.48699	0.02043
819.55862	0.02039
817.63025	0.02054
815.70187	0.02048
813.77350	0.02120
811.84513	0.02182
809.91675	0.02134
807.98838	0.02087
806.06001	0.02129
804.13163	0.02170
802.20326	0.02101
800.27489	0.02007
798.34651	0.01990
796.41814	0.01967
794.48977	0.01865
792.56139	0.01745
790.63302	0.01727
788.70465	0.01733
786.77627	0.01689
784.84790	0.01646
782.91953	0.01632
780.99115	0.01558
779.06278	0.01447
777.13441	0.01394
775.20603	0.01361
773.27766	0.01299
771.34929	0.01204
769.42092	0.01089
767.49254	0.01024
765.56417	0.01020
763.63580	0.01026
761.70742	0.01011
759.77905	0.00964
757.85068	0.00892
755.92230	0.00804
753.99393	0.00739
752.06556	0.00725
750.13718	0.00732
748.20881	0.00716
746.28044	0.00661
744.35206	0.00546
742.42369	0.00526
740.49532	0.00610
738.56694	0.00687
736.63857	0.00735
734.71020	0.00751
732.78182	0.00728
730.85345	0.00683
728.92508	0.00610
726.99670	0.00638
725.06833	0.00670
723.13996	0.00621
721.21158	0.00495
719.28321	0.00426
717.35484	0.00519
715.42647	0.00646
713.49809	0.00627
711.56972	0.00539
709.64135	0.00531
707.71297	0.00530
705.78460	0.00464
703.85623	0.00331
701.92785	0.00324
699.99948	0.00454
698.07111	0.00446
696.14273	0.00420
694.21436	0.00384
692.28599	0.00435
690.35761	0.00509
688.42924	0.00518
686.50087	0.00542
684.57249	0.00582
682.64412	0.00581
680.71575	0.00527
678.78737	0.00529
676.85900	0.00630
674.93063	0.00746
673.00225	0.00664
671.07388	0.00474
669.14551	0.00495
667.21713	0.00503
665.28876	0.00310
663.36039	0.00266
661.43201	0.00240
659.50364	0.00285
657.57527	0.00336
655.64690	0.00351
653.71852	0.00329
651.79015	0.00425
649.86178	0.00442
647.93340	0.00368
646.00503	0.00196
644.07666	0.00452
642.14828	0.00547
640.21991	0.00410
638.29154	0.00238
636.36316	0.00220
634.43479	0.00502
632.50642	0.00602
630.57804	0.00511
628.64967	0.00296
626.72130	0.00418
624.79292	0.00539
622.86455	0.00410
620.93618	0.00403
619.00780	0.00550
617.07943	0.00527
615.15106	0.00646
613.22268	0.00433
611.29431	0.00475
609.36594	0.00882
607.43756	0.00763
605.50919	0.00317
603.58082	0.00824
601.65244	0.01347
599.72407	0.00843
