3997.51769	0.46610
3995.58931	0.46692
3993.66094	0.46756
3991.73257	0.46772
3989.80419	0.46797
3987.87582	0.46826
3985.94745	0.46844
3984.01907	0.46842
3982.09070	0.46796
3980.16233	0.46729
3978.23396	0.46718
3976.30558	0.46791
3974.37721	0.46858
3972.44884	0.46820
3970.52046	0.46748
3968.59209	0.46770
3966.66372	0.46858
3964.73534	0.46933
3962.80697	0.47010
3960.87860	0.47085
3958.95022	0.47119
3957.02185	0.47114
3955.09348	0.47104
3953.16510	0.47134
3951.23673	0.47232
3949.30836	0.47320
3947.37998	0.47304
3945.45161	0.47286
3943.52324	0.47332
3941.59486	0.47316
3939.66649	0.47247
3937.73812	0.47226
3935.80974	0.47257
3933.88137	0.47362
3931.95300	0.47494
3930.02462	0.47498
3928.09625	0.47447
3926.16788	0.47510
3924.23950	0.47611
3922.31113	0.47641
3920.38276	0.47664
3918.45439	0.47707
3916.52601	0.47684
3914.59764	0.47581
3912.66927	0.47489
3910.74089	0.47448
3908.81252	0.47501
3906.88415	0.47721
3904.95577	0.48061
3903.02740	0.48311
3901.09903	0.48358
3899.17065	0.48228
3897.24228	0.48030
3895.31391	0.47960
3893.38553	0.48054
3891.45716	0.48124
3889.52879	0.48080
3887.60041	0.48155
3885.67204	0.48362
3883.74367	0.48451
3881.81529	0.48448
3879.88692	0.48389
3877.95855	0.48276
3876.03017	0.48330
3874.10180	0.48537
3872.17343	0.48726
3870.24505	0.48829
3868.31668	0.48763
3866.38831	0.48708
3864.45994	0.48758
3862.53156	0.48652
3860.60319	0.48461
3858.67482	0.48464
3856.74644	0.48682
3854.81807	0.49080
3852.88970	0.49329
3850.96132	0.49004
3849.03295	0.48593
3847.10458	0.48392
3845.17620	0.48461
3843.24783	0.48727
3841.31946	0.49048
3839.39108	0.49293
3837.46271	0.49272
3835.53434	0.49041
3833.60596	0.48835
3831.67759	0.48661
3829.74922	0.48569
3827.82084	0.48641
3825.89247	0.48781
3823.96410	0.48955
3822.03572	0.49233
3820.10735	0.49314
3818.17898	0.49142
3816.25060	0.49006
3814.32223	0.48788
3812.39386	0.48537
3810.46548	0.48462
3808.53711	0.48608
3806.60874	0.48795
3804.68037	0.48922
3802.75199	0.49183
3800.82362	0.49314
3798.89525	0.49069
3796.96687	0.48813
3795.03850	0.48599
3793.11013	0.48419
3791.18175	0.48343
3789.25338	0.48345
3787.32501	0.48391
3785.39663	0.48456
3783.46826	0.48533
3781.53989	0.48651
3779.61151	0.48711
3777.68314	0.48550
3775.75477	0.48327
3773.82639	0.48286
3771.89802	0.48477
3769.96965	0.48697
3768.04127	0.48706
3766.11290	0.48637
3764.18453	0.48608
3762.25615	0.48643
3760.32778	0.48776
3758.39941	0.48842
3756.47103	0.48796
3754.54266	0.48908
3752.61429	0.49327
3750.68591	0.49759
3748.75754	0.49746
3746.82917	0.49638
3744.90080	0.49544
3742.97242	0.49185
3741.04405	0.48853
3739.11568	0.48855
3737.18730	0.49167
3735.25893	0.49413
3733.33056	0.49173
3731.40218	0.48777
3729.47381	0.48613
3727.54544	0.48640
3725.61706	0.48691
3723.68869	0.48648
3721.76032	0.48516
3719.83194	0.48341
3717.90357	0.48191
3715.97520	0.48140
3714.04682	0.48249
3712.11845	0.48488
3710.19008	0.48459
3708.26170	0.48035
3706.33333	0.47657
3704.40496	0.47519
3702.47658	0.47477
3700.54821	0.47292
3698.61984	0.47032
3696.69146	0.46839
3694.76309	0.46768
3692.83472	0.46852
3690.90635	0.46956
3688.97797	0.46718
3687.04960	0.46115
3685.12123	0.45599
3683.19285	0.45275
3681.26448	0.45072
3679.33611	0.44977
3677.40773	0.44976
3675.47936	0.44784
3673.55099	0.44248
3671.62261	0.43812
3669.69424	0.43285
3667.76587	0.42475
3665.83749	0.41770
3663.90912	0.41202
3661.98075	0.40675
3660.05237	0.40228
3658.12400	0.39862
3656.19563	0.39395
3654.26725	0.38910
3652.33888	0.38694
3650.41051	0.38572
3648.48213	0.37951
3646.55376	0.36914
3644.62539	0.36065
3642.69701	0.35434
3640.76864	0.34895
3638.84027	0.34381
3636.91189	0.33882
3634.98352	0.33396
3633.05515	0.32979
3631.12678	0.32721
3629.19840	0.32384
3627.27003	0.31637
3625.34166	0.30878
3623.41328	0.30341
3621.48491	0.29996
3619.55654	0.29672
3617.62816	0.29194
3615.69979	0.28730
3613.77142	0.28334
3611.84304	0.27864
3609.91467	0.27334
3607.98630	0.26805
3606.05792	0.26295
3604.12955	0.25869
3602.20118	0.25503
3600.27280	0.25114
3598.34443	0.24673
3596.41606	0.24227
3594.48768	0.23815
3592.55931	0.23432
3590.63094	0.23112
3588.70256	0.22790
3586.77419	0.22320
3584.84582	0.21807
3582.91744	0.21417
3580.98907	0.21100
3579.06070	0.20742
3577.13233	0.20332
3575.20395	0.19923
3573.27558	0.19547
3571.34721	0.19239
3569.41883	0.18999
3567.49046	0.18709
3565.56209	0.18289
3563.63371	0.17887
3561.70534	0.17550
3559.77697	0.17245
3557.84859	0.16950
3555.92022	0.16640
3553.99185	0.16302
3552.06347	0.15943
3550.13510	0.15636
3548.20673	0.15433
3546.27835	0.15280
3544.34998	0.15040
3542.42161	0.14693
3540.49323	0.14355
3538.56486	0.14100
3536.63649	0.13895
3534.70811	0.13676
3532.77974	0.13433
3530.85137	0.13171
3528.92299	0.12918
3526.99462	0.12692
3525.06625	0.12481
3523.13787	0.12273
3521.20950	0.12051
3519.28113	0.11829
3517.35276	0.11602
3515.42438	0.11376
3513.49601	0.11178
3511.56764	0.10985
3509.63926	0.10780
3507.71089	0.10581
3505.78252	0.10415
3503.85414	0.10280
3501.92577	0.10136
3499.99740	0.09932
3498.06902	0.09711
3496.14065	0.09555
3494.21228	0.09427
3492.28390	0.09253
3490.35553	0.09064
3488.42716	0.08922
3486.49878	0.08815
3484.57041	0.08703
3482.64204	0.08610
3480.71366	0.08548
3478.78529	0.08485
3476.85692	0.08404
3474.92854	0.08311
3473.00017	0.08219
3471.07180	0.08158
3469.14342	0.08119
3467.21505	0.08071
3465.28668	0.08006
3463.35831	0.07920
3461.42993	0.07820
3459.50156	0.07713
3457.57319	0.07609
3455.64481	0.07540
3453.71644	0.07502
3451.78807	0.07449
3449.85969	0.07350
3447.93132	0.07238
3446.00295	0.07168
3444.07457	0.07133
3442.14620	0.07087
3440.21783	0.07016
3438.28945	0.06956
3436.36108	0.06924
3434.43271	0.06925
3432.50433	0.06932
3430.57596	0.06884
3428.64759	0.06776
3426.71921	0.06664
3424.79084	0.06604
3422.86247	0.06621
3420.93409	0.06657
3419.00572	0.06631
3417.07735	0.06567
3415.14897	0.06530
3413.22060	0.06503
3411.29223	0.06438
3409.36385	0.06365
3407.43548	0.06341
3405.50711	0.06332
3403.57874	0.06317
3401.65036	0.06317
3399.72199	0.06299
3397.79362	0.06241
3395.86524	0.06199
3393.93687	0.06192
3392.00850	0.06150
3390.08012	0.06036
3388.15175	0.05913
3386.22338	0.05854
3384.29500	0.05859
3382.36663	0.05867
3380.43826	0.05830
3378.50988	0.05763
3376.58151	0.05721
3374.65314	0.05716
3372.72476	0.05697
3370.79639	0.05624
3368.86802	0.05531
3366.93964	0.05472
3365.01127	0.05436
3363.08290	0.05378
3361.15452	0.05300
3359.22615	0.05234
3357.29778	0.05168
3355.36940	0.05091
3353.44103	0.05016
3351.51266	0.04935
3349.58428	0.04831
3347.65591	0.04722
3345.72754	0.04627
3343.79917	0.04561
3341.87079	0.04524
3339.94242	0.04477
3338.01405	0.04382
3336.08567	0.04242
3334.15730	0.04123
3332.22893	0.04051
3330.30055	0.03959
3328.37218	0.03836
3326.44381	0.03749
3324.51543	0.03710
3322.58706	0.03655
3320.65869	0.03572
3318.73031	0.03500
3316.80194	0.03423
3314.87357	0.03320
3312.94519	0.03211
3311.01682	0.03096
3309.08845	0.02992
3307.16007	0.02926
3305.23170	0.02863
3303.30333	0.02789
3301.37495	0.02735
3299.44658	0.02675
3297.51821	0.02597
3295.58983	0.02538
3293.66146	0.02498
3291.73309	0.02461
3289.80472	0.02451
3287.87634	0.02493
3285.94797	0.02550
3284.01960	0.02572
3282.09122	0.02583
3280.16285	0.02603
3278.23448	0.02616
3276.30610	0.02656
3274.37773	0.02743
3272.44936	0.02841
3270.52098	0.02930
3268.59261	0.03003
3266.66424	0.03068
3264.73586	0.03148
3262.80749	0.03247
3260.87912	0.03370
3258.95074	0.03524
3257.02237	0.03696
3255.09400	0.03857
3253.16562	0.03989
3251.23725	0.04133
3249.30888	0.04319
3247.38050	0.04510
3245.45213	0.04676
3243.52376	0.04823
3241.59538	0.04966
3239.66701	0.05125
3237.73864	0.05278
3235.81026	0.05406
3233.88189	0.05553
3231.95352	0.05728
3230.02515	0.05876
3228.09677	0.05967
3226.16840	0.06025
3224.24003	0.06086
3222.31165	0.06185
3220.38328	0.06329
3218.45491	0.06484
3216.52653	0.06624
3214.59816	0.06753
3212.66979	0.06867
3210.74141	0.06967
3208.81304	0.07080
3206.88467	0.07227
3204.95629	0.07393
3203.02792	0.07539
3201.09955	0.07659
3199.17117	0.07774
3197.24280	0.07878
3195.31443	0.07986
3193.38605	0.08131
3191.45768	0.08287
3189.52931	0.08431
3187.60093	0.08585
3185.67256	0.08762
3183.74419	0.08957
3181.81581	0.09150
3179.88744	0.09324
3177.95907	0.09486
3176.03070	0.09654
3174.10232	0.09824
3172.17395	0.09983
3170.24558	0.10154
3168.31720	0.10348
3166.38883	0.10512
3164.46046	0.10648
3162.53208	0.10796
3160.60371	0.10935
3158.67534	0.11080
3156.74696	0.11270
3154.81859	0.11453
3152.89022	0.11581
3150.96184	0.11681
3149.03347	0.11764
3147.10510	0.11830
3145.17672	0.11898
3143.24835	0.11986
3141.31998	0.12099
3139.39160	0.12246
3137.46323	0.12391
3135.53486	0.12493
3133.60648	0.12549
3131.67811	0.12566
3129.74974	0.12572
3127.82136	0.12629
3125.89299	0.12746
3123.96462	0.12829
3122.03624	0.12811
3120.10787	0.12738
3118.17950	0.12684
3116.25113	0.12663
3114.32275	0.12641
3112.39438	0.12599
3110.46601	0.12581
3108.53763	0.12606
3106.60926	0.12629
3104.68089	0.12623
3102.75251	0.12590
3100.82414	0.12521
3098.89577	0.12454
3096.96739	0.12433
3095.03902	0.12431
3093.11065	0.12397
3091.18227	0.12341
3089.25390	0.12313
3087.32553	0.12308
3085.39715	0.12303
3083.46878	0.12300
3081.54041	0.12299
3079.61203	0.12335
3077.68366	0.12427
3075.75529	0.12500
3073.82691	0.12530
3071.89854	0.12572
3069.97017	0.12622
3068.04179	0.12672
3066.11342	0.12764
3064.18505	0.12879
3062.25668	0.12972
3060.32830	0.13072
3058.39993	0.13223
3056.47156	0.13438
3054.54318	0.13696
3052.61481	0.13958
3050.68644	0.14173
3048.75806	0.14330
3046.82969	0.14475
3044.90132	0.14638
3042.97294	0.14832
3041.04457	0.15052
3039.11620	0.15265
3037.18782	0.15418
3035.25945	0.15526
3033.33108	0.15676
3031.40270	0.15893
3029.47433	0.16113
3027.54596	0.16301
3025.61758	0.16478
3023.68921	0.16649
3021.76084	0.16796
3019.83246	0.16949
3017.90409	0.17135
3015.97572	0.17306
3014.04734	0.17417
3012.11897	0.17500
3010.19060	0.17577
3008.26222	0.17639
3006.33385	0.17681
3004.40548	0.17711
3002.47711	0.17721
3000.54873	0.17677
2998.62036	0.17566
2996.69199	0.17410
2994.76361	0.17224
2992.83524	0.17014
2990.90687	0.16791
2988.97849	0.16530
2987.05012	0.16201
2985.12175	0.15835
2983.19337	0.15479
2981.26500	0.15141
2979.33663	0.14827
2977.40825	0.14473
2975.47988	0.14013
2973.55151	0.13550
2971.62313	0.13176
2969.69476	0.12832
2967.76639	0.12488
2965.83801	0.12233
2963.90964	0.12130
2961.98127	0.12136
2960.05289	0.12199
2958.12452	0.12316
2956.19615	0.12503
2954.26777	0.12759
2952.33940	0.13056
2950.41103	0.13370
2948.48266	0.13623
2946.55428	0.13715
2944.62591	0.13633
2942.69754	0.13413
2940.76916	0.13092
2938.84079	0.12735
2936.91242	0.12402
2934.98404	0.12093
2933.05567	0.11778
2931.12730	0.11486
2929.19892	0.11280
2927.27055	0.11132
2925.34218	0.10984
2923.41380	0.10818
2921.48543	0.10632
2919.55706	0.10525
2917.62868	0.10668
2915.70031	0.11181
2913.77194	0.12051
2911.84356	0.13078
2909.91519	0.13998
2907.98682	0.14708
2906.05844	0.15262
2904.13007	0.15695
2902.20170	0.16009
2900.27332	0.16275
2898.34495	0.16520
2896.41658	0.16690
2894.48820	0.16800
2892.55983	0.16917
2890.63146	0.17052
2888.70309	0.17172
2886.77471	0.17267
2884.84634	0.17329
2882.91797	0.17328
2880.98959	0.17262
2879.06122	0.17167
2877.13285	0.17103
2875.20447	0.17126
2873.27610	0.17256
2871.34773	0.17512
2869.41935	0.17888
2867.49098	0.18296
2865.56261	0.18620
2863.63423	0.18815
2861.70586	0.18878
2859.77749	0.18787
2857.84911	0.18540
2855.92074	0.18168
2853.99237	0.17684
2852.06399	0.17121
2850.13562	0.16760
2848.20725	0.17151
2846.27887	0.18444
2844.35050	0.20051
2842.42213	0.21366
2840.49375	0.22262
2838.56538	0.22864
2836.63701	0.23296
2834.70863	0.23621
2832.78026	0.23864
2830.85189	0.24063
2828.92352	0.24269
2826.99514	0.24467
2825.06677	0.24633
2823.13840	0.24786
2821.21002	0.24932
2819.28165	0.25061
2817.35328	0.25191
2815.42490	0.25341
2813.49653	0.25517
2811.56816	0.25686
2809.63978	0.25813
2807.71141	0.25939
2805.78304	0.26112
2803.85466	0.26294
2801.92629	0.26440
2799.99792	0.26569
2798.06954	0.26716
2796.14117	0.26864
2794.21280	0.26982
2792.28442	0.27075
2790.35605	0.27182
2788.42768	0.27343
2786.49930	0.27538
2784.57093	0.27706
2782.64256	0.27833
2780.71418	0.27947
2778.78581	0.28062
2776.85744	0.28167
2774.92907	0.28258
2773.00069	0.28349
2771.07232	0.28434
2769.14395	0.28503
2767.21557	0.28581
2765.28720	0.28706
2763.35883	0.28860
2761.43045	0.28995
2759.50208	0.29091
2757.57371	0.29183
2755.64533	0.29303
2753.71696	0.29431
2751.78859	0.29531
2749.86021	0.29596
2747.93184	0.29663
2746.00347	0.29746
2744.07509	0.29810
2742.14672	0.29861
2740.21835	0.29928
2738.28997	0.29999
2736.36160	0.30087
2734.43323	0.30209
2732.50485	0.30330
2730.57648	0.30410
2728.64811	0.30474
2726.71973	0.30554
2724.79136	0.30636
2722.86299	0.30716
2720.93461	0.30816
2719.00624	0.30927
2717.07787	0.31018
2715.14950	0.31088
2713.22112	0.31178
2711.29275	0.31292
2709.36438	0.31377
2707.43600	0.31433
2705.50763	0.31502
2703.57926	0.31592
2701.65088	0.31690
2699.72251	0.31789
2697.79414	0.31868
2695.86576	0.31920
2693.93739	0.31959
2692.00902	0.32002
2690.08064	0.32055
2688.15227	0.32107
2686.22390	0.32156
2684.29552	0.32235
2682.36715	0.32338
2680.43878	0.32404
2678.51040	0.32420
2676.58203	0.32449
2674.65366	0.32518
2672.72528	0.32593
2670.79691	0.32648
2668.86854	0.32685
2666.94016	0.32726
2665.01179	0.32795
2663.08342	0.32875
2661.15505	0.32942
2659.22667	0.33007
2657.29830	0.33070
2655.36993	0.33088
2653.44155	0.33056
2651.51318	0.33051
2649.58481	0.33113
2647.65643	0.33190
2645.72806	0.33250
2643.79969	0.33301
2641.87131	0.33342
2639.94294	0.33371
2638.01457	0.33386
2636.08619	0.33393
2634.15782	0.33424
2632.22945	0.33491
2630.30107	0.33563
2628.37270	0.33609
2626.44433	0.33651
2624.51595	0.33710
2622.58758	0.33764
2620.65921	0.33787
2618.73083	0.33780
2616.80246	0.33787
2614.87409	0.33844
2612.94571	0.33919
2611.01734	0.33972
2609.08897	0.34003
2607.16059	0.34043
2605.23222	0.34112
2603.30385	0.34173
2601.37548	0.34215
2599.44710	0.34268
2597.51873	0.34317
2595.59036	0.34343
2593.66198	0.34384
2591.73361	0.34454
2589.80524	0.34519
2587.87686	0.34561
2585.94849	0.34596
2584.02012	0.34658
2582.09174	0.34742
2580.16337	0.34818
2578.23500	0.34887
2576.30662	0.34944
2574.37825	0.34993
2572.44988	0.35060
2570.52150	0.35139
2568.59313	0.35196
2566.66476	0.35249
2564.73638	0.35345
2562.80801	0.35472
2560.87964	0.35571
2558.95126	0.35640
2557.02289	0.35720
2555.09452	0.35825
2553.16614	0.35917
2551.23777	0.35957
2549.30940	0.35964
2547.38103	0.36000
2545.45265	0.36075
2543.52428	0.36127
2541.59591	0.36142
2539.66753	0.36171
2537.73916	0.36224
2535.81079	0.36274
2533.88241	0.36318
2531.95404	0.36363
2530.02567	0.36411
2528.09729	0.36443
2526.16892	0.36458
2524.24055	0.36490
2522.31217	0.36547
2520.38380	0.36607
2518.45543	0.36676
2516.52705	0.36750
2514.59868	0.36808
2512.67031	0.36835
2510.74193	0.36845
2508.81356	0.36885
2506.88519	0.36974
2504.95681	0.37072
2503.02844	0.37153
2501.10007	0.37216
2499.17169	0.37259
2497.24332	0.37295
2495.31495	0.37326
2493.38657	0.37356
2491.45820	0.37405
2489.52983	0.37449
2487.60146	0.37483
2485.67308	0.37550
2483.74471	0.37634
2481.81634	0.37679
2479.88796	0.37704
2477.95959	0.37767
2476.03122	0.37858
2474.10284	0.37937
2472.17447	0.37988
2470.24610	0.38019
2468.31772	0.38062
2466.38935	0.38149
2464.46098	0.38254
2462.53260	0.38334
2460.60423	0.38388
2458.67586	0.38436
2456.74748	0.38488
2454.81911	0.38534
2452.89074	0.38575
2450.96236	0.38629
2449.03399	0.38678
2447.10562	0.38706
2445.17724	0.38742
2443.24887	0.38808
2441.32050	0.38881
2439.39212	0.38944
2437.46375	0.39000
2435.53538	0.39040
2433.60700	0.39066
2431.67863	0.39100
2429.75026	0.39146
2427.82189	0.39208
2425.89351	0.39279
2423.96514	0.39330
2422.03677	0.39360
2420.10839	0.39394
2418.18002	0.39427
2416.25165	0.39457
2414.32327	0.39516
2412.39490	0.39606
2410.46653	0.39677
2408.53815	0.39689
2406.60978	0.39672
2404.68141	0.39671
2402.75303	0.39700
2400.82466	0.39760
2398.89629	0.39837
2396.96791	0.39919
2395.03954	0.39987
2393.11117	0.40019
2391.18279	0.40032
2389.25442	0.40061
2387.32605	0.40111
2385.39767	0.40171
2383.46930	0.40243
2381.54093	0.40324
2379.61255	0.40393
2377.68418	0.40443
2375.75581	0.40529
2373.82744	0.40711
2371.89906	0.40949
2369.97069	0.41196
2368.04232	0.41471
2366.11394	0.41722
2364.18557	0.41969
2362.25720	0.42278
2360.32882	0.42440
2358.40045	0.42262
2356.47208	0.41910
2354.54370	0.41626
2352.61533	0.41459
2350.68696	0.41369
2348.75858	0.41341
2346.83021	0.41375
2344.90184	0.41452
2342.97346	0.41495
2341.04509	0.41499
2339.11672	0.41517
2337.18834	0.41508
2335.25997	0.41477
2333.33160	0.41510
2331.40322	0.41600
2329.47485	0.41649
2327.54648	0.41620
2325.61810	0.41571
2323.68973	0.41520
2321.76136	0.41441
2319.83298	0.41364
2317.90461	0.41313
2315.97624	0.41286
2314.04787	0.41297
2312.11949	0.41330
2310.19112	0.41345
2308.26275	0.41326
2306.33437	0.41285
2304.40600	0.41267
2302.47763	0.41306
2300.54925	0.41364
2298.62088	0.41389
2296.69251	0.41390
2294.76413	0.41387
2292.83576	0.41387
2290.90739	0.41396
2288.97901	0.41405
2287.05064	0.41413
2285.12227	0.41438
2283.19389	0.41475
2281.26552	0.41511
2279.33715	0.41537
2277.40877	0.41547
2275.48040	0.41551
2273.55203	0.41564
2271.62365	0.41571
2269.69528	0.41557
2267.76691	0.41543
2265.83853	0.41549
2263.91016	0.41573
2261.98179	0.41603
2260.05342	0.41626
2258.12504	0.41639
2256.19667	0.41650
2254.26830	0.41672
2252.33992	0.41708
2250.41155	0.41758
2248.48318	0.41806
2246.55480	0.41823
2244.62643	0.41824
2242.69806	0.41832
2240.76968	0.41832
2238.84131	0.41836
2236.91294	0.41852
2234.98456	0.41859
2233.05619	0.41860
2231.12782	0.41874
2229.19944	0.41911
2227.27107	0.41958
2225.34270	0.41985
2223.41432	0.41979
2221.48595	0.41954
2219.55758	0.41946
2217.62920	0.41964
2215.70083	0.41993
2213.77246	0.42025
2211.84408	0.42049
2209.91571	0.42047
2207.98734	0.42028
2206.05896	0.42023
2204.13059	0.42046
2202.20222	0.42072
2200.27385	0.42071
2198.34547	0.42062
2196.41710	0.42078
2194.48873	0.42118
2192.56035	0.42162
2190.63198	0.42195
2188.70361	0.42221
2186.77523	0.42240
2184.84686	0.42253
2182.91849	0.42253
2180.99011	0.42234
2179.06174	0.42222
2177.13337	0.42240
2175.20499	0.42262
2173.27662	0.42266
2171.34825	0.42271
2169.41987	0.42290
2167.49150	0.42314
2165.56313	0.42331
2163.63475	0.42332
2161.70638	0.42330
2159.77801	0.42355
2157.84963	0.42408
2155.92126	0.42458
2153.99289	0.42498
2152.06451	0.42546
2150.13614	0.42590
2148.20777	0.42597
2146.27940	0.42573
2144.35102	0.42559
2142.42265	0.42582
2140.49428	0.42626
2138.56590	0.42658
2136.63753	0.42682
2134.70916	0.42717
2132.78078	0.42761
2130.85241	0.42787
2128.92404	0.42788
2126.99566	0.42806
2125.06729	0.42857
2123.13892	0.42904
2121.21054	0.42943
2119.28217	0.42993
2117.35380	0.43045
2115.42542	0.43065
2113.49705	0.43054
2111.56868	0.43064
2109.64030	0.43117
2107.71193	0.43183
2105.78356	0.43247
2103.85518	0.43298
2101.92681	0.43316
2099.99844	0.43327
2098.07006	0.43356
2096.14169	0.43397
2094.21332	0.43436
2092.28494	0.43454
2090.35657	0.43459
2088.42820	0.43488
2086.49983	0.43547
2084.57145	0.43623
2082.64308	0.43693
2080.71471	0.43719
2078.78633	0.43701
2076.85796	0.43697
2074.92959	0.43737
2073.00121	0.43807
2071.07284	0.43887
2069.14447	0.43945
2067.21609	0.43976
2065.28772	0.43998
2063.35935	0.44011
2061.43097	0.44027
2059.50260	0.44067
2057.57423	0.44106
2055.64585	0.44118
2053.71748	0.44131
2051.78911	0.44183
2049.86073	0.44264
2047.93236	0.44338
2046.00399	0.44394
2044.07561	0.44431
2042.14724	0.44457
2040.21887	0.44491
2038.29049	0.44541
2036.36212	0.44592
2034.43375	0.44616
2032.50538	0.44604
2030.57700	0.44600
2028.64863	0.44642
2026.72026	0.44705
2024.79188	0.44749
2022.86351	0.44774
2020.93514	0.44819
2019.00676	0.44889
2017.07839	0.44935
2015.15002	0.44928
2013.22164	0.44916
2011.29327	0.44946
2009.36490	0.44995
2007.43652	0.45021
2005.50815	0.45034
2003.57978	0.45054
2001.65140	0.45095
1999.72303	0.45157
1997.79466	0.45197
1995.86628	0.45215
1993.93791	0.45272
1992.00954	0.45348
1990.08116	0.45376
1988.15279	0.45374
1986.22442	0.45370
1984.29604	0.45366
1982.36767	0.45375
1980.43930	0.45390
1978.51092	0.45398
1976.58255	0.45418
1974.65418	0.45470
1972.72581	0.45526
1970.79743	0.45571
1968.86906	0.45635
1966.94069	0.45690
1965.01231	0.45689
1963.08394	0.45680
1961.15557	0.45705
1959.22719	0.45753
1957.29882	0.45815
1955.37045	0.45867
1953.44207	0.45905
1951.51370	0.45959
1949.58533	0.46038
1947.65695	0.46123
1945.72858	0.46206
1943.80021	0.46281
1941.87183	0.46306
1939.94346	0.46282
1938.01509	0.46273
1936.08671	0.46290
1934.15834	0.46311
1932.22997	0.46341
1930.30159	0.46379
1928.37322	0.46422
1926.44485	0.46492
1924.51647	0.46596
1922.58810	0.46669
1920.65973	0.46699
1918.73135	0.46741
1916.80298	0.46754
1914.87461	0.46721
1912.94624	0.46730
1911.01786	0.46819
1909.08949	0.46922
1907.16112	0.46944
1905.23274	0.46913
1903.30437	0.46902
1901.37600	0.46897
1899.44762	0.46896
1897.51925	0.46942
1895.59088	0.47023
1893.66250	0.47099
1891.73413	0.47189
1889.80576	0.47262
1887.87738	0.47245
1885.94901	0.47208
1884.02064	0.47227
1882.09226	0.47284
1880.16389	0.47346
1878.23552	0.47401
1876.30714	0.47466
1874.37877	0.47553
1872.45040	0.47692
1870.52202	0.47926
1868.59365	0.48119
1866.66528	0.48067
1864.73690	0.47932
1862.80853	0.47907
1860.88016	0.47945
1858.95179	0.47968
1857.02341	0.47984
1855.09504	0.48019
1853.16667	0.48074
1851.23829	0.48144
1849.30992	0.48231
1847.38155	0.48362
1845.45317	0.48538
1843.52480	0.48611
1841.59643	0.48498
1839.66805	0.48408
1837.73968	0.48436
1835.81131	0.48493
1833.88293	0.48571
1831.95456	0.48749
1830.02619	0.48923
1828.09781	0.48928
1826.16944	0.48888
1824.24107	0.48848
1822.31269	0.48741
1820.38432	0.48666
1818.45595	0.48662
1816.52757	0.48672
1814.59920	0.48704
1812.67083	0.48794
1810.74245	0.48859
1808.81408	0.48806
1806.88571	0.48704
1804.95733	0.48669
1803.02896	0.48749
1801.10059	0.48850
1799.17222	0.48821
1797.24384	0.48724
1795.31547	0.48726
1793.38710	0.48802
1791.45872	0.48699
1789.53035	0.48395
1787.60198	0.48169
1785.67360	0.48079
1783.74523	0.48029
1781.81686	0.47965
1779.88848	0.47851
1777.96011	0.47704
1776.03174	0.47659
1774.10336	0.47770
1772.17499	0.47819
1770.24662	0.47570
1768.31824	0.47187
1766.38987	0.46850
1764.46150	0.46669
1762.53312	0.46600
1760.60475	0.46447
1758.67638	0.46222
1756.74800	0.45959
1754.81963	0.45675
1752.89126	0.45539
1750.96288	0.45483
1749.03451	0.45190
1747.10614	0.44658
1745.17777	0.44141
1743.24939	0.43700
1741.32102	0.43224
1739.39265	0.42640
1737.46427	0.42147
1735.53590	0.41831
1733.60753	0.41248
1731.67915	0.40297
1729.75078	0.39385
1727.82241	0.38530
1725.89403	0.37767
1723.96566	0.37020
1722.03729	0.36300
1720.10891	0.35713
1718.18054	0.35009
1716.25217	0.33738
1714.32379	0.32261
1712.39542	0.30935
1710.46705	0.29661
1708.53867	0.28371
1706.61030	0.26761
1704.68193	0.24767
1702.75355	0.22884
1700.82518	0.20593
1698.89681	0.17735
1696.96843	0.15364
1695.04006	0.13141
1693.11169	0.11378
1691.18331	0.10056
1689.25494	0.08762
1687.32657	0.07692
1685.39820	0.06686
1683.46982	0.05408
1681.54145	0.04486
1679.61308	0.03939
1677.68470	0.03462
1675.75633	0.02951
1673.82796	0.02473
1671.89958	0.02121
1669.97121	0.01821
1668.04284	0.01562
1666.11446	0.01402
1664.18609	0.01253
1662.25772	0.01061
1660.32934	0.00888
1658.40097	0.00756
1656.47260	0.00669
1654.54422	0.00611
1652.61585	0.00541
1650.68748	0.00498
1648.75910	0.00507
1646.83073	0.00536
1644.90236	0.00560
1642.97398	0.00606
1641.04561	0.00672
1639.11724	0.00734
1637.18886	0.00790
1635.26049	0.00893
1633.33212	0.00974
1631.40375	0.00983
1629.47537	0.01016
1627.54700	0.01139
1625.61863	0.01334
1623.69025	0.01610
1621.76188	0.01971
1619.83351	0.02333
1617.90513	0.02770
1615.97676	0.03366
1614.04839	0.03903
1612.12001	0.04377
1610.19164	0.04918
1608.26327	0.05509
1606.33489	0.06052
1604.40652	0.06509
1602.47815	0.06894
1600.54977	0.07212
1598.62140	0.07482
1596.69303	0.07690
1594.76465	0.07837
1592.83628	0.07970
1590.90791	0.08097
1588.97953	0.08145
1587.05116	0.08067
1585.12279	0.07897
1583.19441	0.07677
1581.26604	0.07443
1579.33767	0.07233
1577.40929	0.06966
1575.48092	0.06547
1573.55255	0.06184
1571.62418	0.05916
1569.69580	0.05561
1567.76743	0.05127
1565.83906	0.04725
1563.91068	0.04365
1561.98231	0.04103
1560.05394	0.03842
1558.12556	0.03372
1556.19719	0.03007
1554.26882	0.02764
1552.34044	0.02564
1550.41207	0.02447
1548.48370	0.02416
1546.55532	0.02437
1544.62695	0.02482
1542.69858	0.02550
1540.77020	0.02670
1538.84183	0.02847
1536.91346	0.02980
1534.98508	0.03100
1533.05671	0.03241
1531.12834	0.03391
1529.19996	0.03559
1527.27159	0.03775
1525.34322	0.04016
1523.41484	0.04228
1521.48647	0.04426
1519.55810	0.04563
1517.62972	0.04667
1515.70135	0.04862
1513.77298	0.05191
1511.84461	0.05617
1509.91623	0.06087
1507.98786	0.06736
1506.05949	0.07698
1504.13111	0.08375
1502.20274	0.08865
1500.27437	0.09455
1498.34599	0.10194
1496.41762	0.11009
1494.48925	0.11713
1492.56087	0.12327
1490.63250	0.13045
1488.70413	0.13775
1486.77575	0.14238
1484.84738	0.14519
1482.91901	0.14725
1480.99063	0.14834
1479.06226	0.14792
1477.13389	0.14559
1475.20551	0.14109
1473.27714	0.13432
1471.34877	0.12705
1469.42039	0.12199
1467.49202	0.11842
1465.56365	0.11455
1463.63527	0.11019
1461.70690	0.10729
1459.77853	0.10599
1457.85016	0.10398
1455.92178	0.09997
1453.99341	0.09730
1452.06504	0.09654
1450.13666	0.09730
1448.20829	0.09929
1446.27992	0.10144
1444.35154	0.10345
1442.42317	0.10600
1440.49480	0.10915
1438.56642	0.11306
1436.63805	0.11832
1434.70968	0.12334
1432.78130	0.12716
1430.85293	0.13067
1428.92456	0.13329
1426.99618	0.13443
1425.06781	0.13455
1423.13944	0.13398
1421.21106	0.13324
1419.28269	0.13207
1417.35432	0.12978
1415.42594	0.12741
1413.49757	0.12579
1411.56920	0.12505
1409.64082	0.12504
1407.71245	0.12555
1405.78408	0.12623
1403.85570	0.12648
1401.92733	0.12638
1399.99896	0.12620
1398.07059	0.12556
1396.14221	0.12447
1394.21384	0.12292
1392.28547	0.12078
1390.35709	0.11868
1388.42872	0.11662
1386.50035	0.11411
1384.57197	0.11143
1382.64360	0.10941
1380.71523	0.10899
1378.78685	0.11048
1376.85848	0.11315
1374.93011	0.11633
1373.00173	0.11974
1371.07336	0.12370
1369.14499	0.12876
1367.21661	0.13485
1365.28824	0.14165
1363.35987	0.14869
1361.43149	0.15427
1359.50312	0.15789
1357.57475	0.16086
1355.64637	0.16345
1353.71800	0.16516
1351.78963	0.16595
1349.86125	0.16609
1347.93288	0.16583
1346.00451	0.16542
1344.07614	0.16463
1342.14776	0.16338
1340.21939	0.16198
1338.29102	0.16038
1336.36264	0.15846
1334.43427	0.15634
1332.50590	0.15424
1330.57752	0.15234
1328.64915	0.15089
1326.72078	0.15009
1324.79240	0.14982
1322.86403	0.14977
1320.93566	0.14954
1319.00728	0.14879
1317.07891	0.14749
1315.15054	0.14621
1313.22216	0.14548
1311.29379	0.14482
1309.36542	0.14393
1307.43704	0.14333
1305.50867	0.14318
1303.58030	0.14332
1301.65192	0.14369
1299.72355	0.14430
1297.79518	0.14528
1295.86680	0.14657
1293.93843	0.14734
1292.01006	0.14700
1290.08168	0.14600
1288.15331	0.14473
1286.22494	0.14339
1284.29657	0.14289
1282.36819	0.14329
1280.43982	0.14335
1278.51145	0.14257
1276.58307	0.14143
1274.65470	0.14003
1272.72633	0.13830
1270.79795	0.13656
1268.86958	0.13508
1266.94121	0.13369
1265.01283	0.13240
1263.08446	0.13150
1261.15609	0.13085
1259.22771	0.13001
1257.29934	0.12905
1255.37097	0.12835
1253.44259	0.12780
1251.51422	0.12726
1249.58585	0.12669
1247.65747	0.12584
1245.72910	0.12489
1243.80073	0.12424
1241.87235	0.12396
1239.94398	0.12394
1238.01561	0.12411
1236.08723	0.12500
1234.15886	0.12713
1232.23049	0.12987
1230.30212	0.13271
1228.37374	0.13579
1226.44537	0.13940
1224.51700	0.14358
1222.58862	0.14790
1220.66025	0.15238
1218.73188	0.15711
1216.80350	0.16134
1214.87513	0.16416
1212.94676	0.16530
1211.01838	0.16538
1209.09001	0.16555
1207.16164	0.16630
1205.23326	0.16737
1203.30489	0.16928
1201.37652	0.17269
1199.44814	0.17675
1197.51977	0.18056
1195.59140	0.18440
1193.66302	0.18842
1191.73465	0.19230
1189.80628	0.19546
1187.87790	0.19743
1185.94953	0.19842
1184.02116	0.19876
1182.09278	0.19807
1180.16441	0.19614
1178.23604	0.19355
1176.30766	0.19030
1174.37929	0.18600
1172.45092	0.18128
1170.52255	0.17670
1168.59417	0.17172
1166.66580	0.16615
1164.73743	0.16063
1162.80905	0.15614
1160.88068	0.15344
1158.95231	0.15301
1157.02393	0.15532
1155.09556	0.15997
1153.16719	0.16571
1151.23881	0.17208
1149.31044	0.17917
1147.38207	0.18658
1145.45369	0.19324
1143.52532	0.19792
1141.59695	0.20050
1139.66857	0.20150
1137.74020	0.20132
1135.81183	0.20028
1133.88345	0.19836
1131.95508	0.19509
1130.02671	0.19003
1128.09833	0.18403
1126.16996	0.17861
1124.24159	0.17434
1122.31321	0.17114
1120.38484	0.16886
1118.45647	0.16736
1116.52809	0.16723
1114.59972	0.16874
1112.67135	0.17092
1110.74298	0.17300
1108.81460	0.17540
1106.88623	0.17844
1104.95786	0.18140
1103.02948	0.18350
1101.10111	0.18463
1099.17274	0.18465
1097.24436	0.18343
1095.31599	0.18116
1093.38762	0.17797
1091.45924	0.17420
1089.53087	0.17006
1087.60250	0.16463
1085.67412	0.15763
1083.74575	0.15094
1081.81738	0.14605
1079.88900	0.14277
1077.96063	0.14094
1076.03226	0.14092
1074.10388	0.14268
1072.17551	0.14563
1070.24714	0.14889
1068.31876	0.15266
1066.39039	0.15741
1064.46202	0.16193
1062.53364	0.16556
1060.60527	0.16927
1058.67690	0.17297
1056.74853	0.17622
1054.82015	0.17941
1052.89178	0.18226
1050.96341	0.18388
1049.03503	0.18402
1047.10666	0.18325
1045.17829	0.18187
1043.24991	0.17970
1041.32154	0.17686
1039.39317	0.17339
1037.46479	0.16917
1035.53642	0.16478
1033.60805	0.16163
1031.67967	0.16052
1029.75130	0.16099
1027.82293	0.16252
1025.89455	0.16490
1023.96618	0.16812
1022.03781	0.17186
1020.10943	0.17539
1018.18106	0.17842
1016.25269	0.18165
1014.32431	0.18587
1012.39594	0.19103
1010.46757	0.19672
1008.53919	0.20316
1006.61082	0.21071
1004.68245	0.21866
1002.75407	0.22594
1000.82570	0.23225
998.89733	0.23754
996.96896	0.24182
995.04058	0.24542
993.11221	0.24889
991.18384	0.25273
989.25546	0.25686
987.32709	0.26044
985.39872	0.26268
983.47034	0.26382
981.54197	0.26438
979.61360	0.26459
977.68522	0.26493
975.75685	0.26593
973.82848	0.26815
971.90010	0.27182
969.97173	0.27604
968.04336	0.28004
966.11498	0.28378
964.18661	0.28631
962.25824	0.28644
960.32986	0.28368
958.40149	0.27795
956.47312	0.27177
954.54474	0.26898
952.61637	0.27042
950.68800	0.27444
948.75962	0.27944
946.83125	0.28428
944.90288	0.28820
942.97451	0.29131
941.04613	0.29422
939.11776	0.29711
937.18939	0.29979
935.26101	0.30199
933.33264	0.30358
931.40427	0.30463
929.47589	0.30531
927.54752	0.30587
925.61915	0.30626
923.69077	0.30628
921.76240	0.30637
919.83403	0.30742
917.90565	0.30911
915.97728	0.31031
914.04891	0.31083
912.12053	0.31107
910.19216	0.31097
908.26379	0.30996
906.33541	0.30824
904.40704	0.30648
902.47867	0.30475
900.55029	0.30342
898.62192	0.30295
896.69355	0.30305
894.76517	0.30363
892.83680	0.30457
890.90843	0.30541
888.98005	0.30677
887.05168	0.30904
885.12331	0.31099
883.19494	0.31212
881.26656	0.31301
879.33819	0.31322
877.40982	0.31242
875.48144	0.31168
873.55307	0.31150
871.62470	0.31152
869.69632	0.31204
867.76795	0.31276
865.83958	0.31227
863.91120	0.31078
861.98283	0.30982
860.05446	0.30938
858.12608	0.30852
856.19771	0.30705
854.26934	0.30546
852.34096	0.30451
850.41259	0.30437
848.48422	0.30411
846.55584	0.30295
844.62747	0.30152
842.69910	0.30035
840.77072	0.29831
838.84235	0.29496
836.91398	0.29185
834.98560	0.29004
833.05723	0.28911
831.12886	0.28799
829.20049	0.28662
827.27211	0.28629
825.34374	0.28696
823.41537	0.28690
821.48699	0.28582
819.55862	0.28468
817.63025	0.28349
815.70187	0.28237
813.77350	0.28185
811.84513	0.28123
809.91675	0.27975
807.98838	0.27822
806.06001	0.27729
804.13163	0.27574
802.20326	0.27291
800.27489	0.27061
798.34651	0.26916
796.41814	0.26691
794.48977	0.26440
792.56139	0.26254
790.63302	0.26032
788.70465	0.25796
786.77627	0.25629
784.84790	0.25465
782.91953	0.25270
780.99115	0.25023
779.06278	0.24682
777.13441	0.24383
775.20603	0.24222
773.27766	0.24075
771.34929	0.23894
769.42092	0.23730
767.49254	0.23549
765.56417	0.23355
763.63580	0.23183
761.70742	0.23008
759.77905	0.22816
757.85068	0.22612
755.92230	0.22422
753.99393	0.22283
752.06556	0.22146
750.13718	0.21989
748.20881	0.21868
746.28044	0.21842
744.35206	0.21875
742.42369	0.21813
740.49532	0.21576
738.56694	0.21346
736.63857	0.21260
734.71020	0.21140
732.78182	0.20846
730.85345	0.20522
728.92508	0.20376
726.99670	0.20385
725.06833	0.20300
723.13996	0.20062
721.21158	0.19802
719.28321	0.19578
717.35484	0.19448
715.42647	0.19432
713.49809	0.19431
711.56972	0.19360
709.64135	0.19197
707.71297	0.18922
705.78460	0.18597
703.85623	0.18362
701.92785	0.18258
699.99948	0.18252
698.07111	0.18286
696.14273	0.18311
694.21436	0.18372
692.28599	0.18532
690.35761	0.18689
688.42924	0.18697
686.50087	0.18571
684.57249	0.18381
682.64412	0.18222
680.71575	0.18204
678.78737	0.18238
676.85900	0.18184
674.93063	0.18092
673.00225	0.18012
671.07388	0.17920
669.14551	0.17823
667.21713	0.17803
665.28876	0.17820
663.36039	0.17795
661.43201	0.17768
659.50364	0.17781
657.57527	0.17701
655.64690	0.17479
653.71852	0.17369
651.79015	0.17501
649.86178	0.17604
647.93340	0.17536
646.00503	0.17600
644.07666	0.17863
642.14828	0.18000
640.21991	0.17839
638.29154	0.17519
636.36316	0.17288
634.43479	0.17198
632.50642	0.17198
630.57804	0.17344
628.64967	0.17595
626.72130	0.17763
624.79292	0.17869
622.86455	0.18044
620.93618	0.18062
619.00780	0.17867
617.07943	0.17765
615.15106	0.17637
613.22268	0.17148
611.29431	0.16736
609.36594	0.17059
607.43756	0.17887
605.50919	0.18559
603.58082	0.18878
601.65244	0.18925
599.72407	0.18652
