3997.51769	0.41939
3995.58931	0.41992
3993.66094	0.42044
3991.73257	0.42073
3989.80419	0.42073
3987.87582	0.42078
3985.94745	0.42136
3984.01907	0.42211
3982.09070	0.42238
3980.16233	0.42230
3978.23396	0.42235
3976.30558	0.42276
3974.37721	0.42328
3972.44884	0.42376
3970.52046	0.42437
3968.59209	0.42512
3966.66372	0.42575
3964.73534	0.42629
3962.80697	0.42713
3960.87860	0.42805
3958.95022	0.42860
3957.02185	0.42910
3955.09348	0.42987
3953.16510	0.43077
3951.23673	0.43178
3949.30836	0.43267
3947.37998	0.43302
3945.45161	0.43339
3943.52324	0.43427
3941.59486	0.43503
3939.66649	0.43532
3937.73812	0.43532
3935.80974	0.43548
3933.88137	0.43664
3931.95300	0.43838
3930.02462	0.43891
3928.09625	0.43874
3926.16788	0.43961
3924.23950	0.44094
3922.31113	0.44142
3920.38276	0.44163
3918.45439	0.44242
3916.52601	0.44334
3914.59764	0.44348
3912.66927	0.44306
3910.74089	0.44314
3908.81252	0.44446
3906.88415	0.44713
3904.95577	0.45075
3903.02740	0.45381
3901.09903	0.45454
3899.17065	0.45301
3897.24228	0.45118
3895.31391	0.45124
3893.38553	0.45340
3891.45716	0.45530
3889.52879	0.45507
3887.60041	0.45503
3885.67204	0.45623
3883.74367	0.45739
3881.81529	0.45861
3879.88692	0.45909
3877.95855	0.45833
3876.03017	0.45882
3874.10180	0.46108
3872.17343	0.46350
3870.24505	0.46485
3868.31668	0.46475
3866.38831	0.46500
3864.45994	0.46593
3862.53156	0.46513
3860.60319	0.46338
3858.67482	0.46327
3856.74644	0.46549
3854.81807	0.47049
3852.88970	0.47425
3850.96132	0.47068
3849.03295	0.46653
3847.10458	0.46534
3845.17620	0.46679
3843.24783	0.46951
3841.31946	0.47213
3839.39108	0.47418
3837.46271	0.47470
3835.53434	0.47326
3833.60596	0.47158
3831.67759	0.47079
3829.74922	0.47092
3827.82084	0.47156
3825.89247	0.47213
3823.96410	0.47324
3822.03572	0.47608
3820.10735	0.47781
3818.17898	0.47649
3816.25060	0.47511
3814.32223	0.47375
3812.39386	0.47217
3810.46548	0.47174
3808.53711	0.47327
3806.60874	0.47540
3804.68037	0.47644
3802.75199	0.47795
3800.82362	0.47901
3798.89525	0.47756
3796.96687	0.47573
3795.03850	0.47401
3793.11013	0.47255
3791.18175	0.47231
3789.25338	0.47301
3787.32501	0.47361
3785.39663	0.47374
3783.46826	0.47400
3781.53989	0.47515
3779.61151	0.47636
3777.68314	0.47570
3775.75477	0.47410
3773.82639	0.47367
3771.89802	0.47481
3769.96965	0.47628
3768.04127	0.47649
3766.11290	0.47615
3764.18453	0.47587
3762.25615	0.47581
3760.32778	0.47680
3758.39941	0.47795
3756.47103	0.47804
3754.54266	0.47865
3752.61429	0.48203
3750.68591	0.48627
3748.75754	0.48598
3746.82917	0.48443
3744.90080	0.48378
3742.97242	0.48139
3741.04405	0.47871
3739.11568	0.47829
3737.18730	0.48029
3735.25893	0.48252
3733.33056	0.48087
3731.40218	0.47673
3729.47381	0.47419
3727.54544	0.47350
3725.61706	0.47335
3723.68869	0.47289
3721.76032	0.47173
3719.83194	0.46962
3717.90357	0.46736
3715.97520	0.46648
3714.04682	0.46746
3712.11845	0.46907
3710.19008	0.46764
3708.26170	0.46288
3706.33333	0.45846
3704.40496	0.45588
3702.47658	0.45426
3700.54821	0.45156
3698.61984	0.44791
3696.69146	0.44425
3694.76309	0.44136
3692.83472	0.44033
3690.90635	0.44000
3688.97797	0.43538
3687.04960	0.42570
3685.12123	0.41696
3683.19285	0.41049
3681.26448	0.40519
3679.33611	0.40055
3677.40773	0.39579
3675.47936	0.38727
3673.55099	0.37606
3671.62261	0.36712
3669.69424	0.35608
3667.76587	0.34280
3665.83749	0.33169
3663.90912	0.32161
3661.98075	0.31175
3660.05237	0.30245
3658.12400	0.29324
3656.19563	0.28201
3654.26725	0.27079
3652.33888	0.26290
3650.41051	0.25520
3648.48213	0.24239
3646.55376	0.22801
3644.62539	0.21704
3642.69701	0.20749
3640.76864	0.19774
3638.84027	0.18848
3636.91189	0.18014
3634.98352	0.17188
3633.05515	0.16384
3631.12678	0.15712
3629.19840	0.14933
3627.27003	0.13955
3625.34166	0.13196
3623.41328	0.12630
3621.48491	0.12119
3619.55654	0.11510
3617.62816	0.10833
3615.69979	0.10262
3613.77142	0.09722
3611.84304	0.09201
3609.91467	0.08761
3607.98630	0.08302
3606.05792	0.07781
3604.12955	0.07316
3602.20118	0.06909
3600.27280	0.06517
3598.34443	0.06146
3596.41606	0.05804
3594.48768	0.05458
3592.55931	0.05105
3590.63094	0.04813
3588.70256	0.04552
3586.77419	0.04255
3584.84582	0.03959
3582.91744	0.03713
3580.98907	0.03488
3579.06070	0.03262
3577.13233	0.03056
3575.20395	0.02879
3573.27558	0.02726
3571.34721	0.02557
3569.41883	0.02355
3567.49046	0.02131
3565.56209	0.01921
3563.63371	0.01789
3561.70534	0.01695
3559.77697	0.01588
3557.84859	0.01489
3555.92022	0.01429
3553.99185	0.01362
3552.06347	0.01223
3550.13510	0.01062
3548.20673	0.00954
3546.27835	0.00900
3544.34998	0.00842
3542.42161	0.00767
3540.49323	0.00698
3538.56486	0.00631
3536.63649	0.00586
3534.70811	0.00556
3532.77974	0.00504
3530.85137	0.00440
3528.92299	0.00375
3526.99462	0.00315
3525.06625	0.00273
3523.13787	0.00251
3521.20950	0.00233
3519.28113	0.00205
3517.35276	0.00193
3515.42438	0.00207
3513.49601	0.00205
3511.56764	0.00175
3509.63926	0.00122
3507.71089	0.00071
3505.78252	0.00069
3503.85414	0.00075
3501.92577	0.00127
3499.99740	0.00158
3498.06902	0.00153
3496.14065	0.00122
3494.21228	0.00091
3492.28390	0.00097
3490.35553	0.00130
3488.42716	0.00116
3486.49878	0.00078
3484.57041	0.00094
3482.64204	0.00092
3480.71366	0.00067
3478.78529	0.00081
3476.85692	0.00121
3474.92854	0.00131
3473.00017	0.00112
3471.07180	0.00126
3469.14342	0.00090
3467.21505	0.00065
3465.28668	0.00074
3463.35831	0.00050
3461.42993	0.00052
3459.50156	0.00047
3457.57319	0.00073
3455.64481	0.00092
3453.71644	0.00110
3451.78807	0.00118
3449.85969	0.00110
3447.93132	0.00105
3446.00295	0.00072
3444.07457	0.00038
3442.14620	0.00065
3440.21783	0.00083
3438.28945	0.00065
3436.36108	0.00088
3434.43271	0.00112
3432.50433	0.00086
3430.57596	0.00089
3428.64759	0.00070
3426.71921	0.00054
3424.79084	0.00046
3422.86247	0.00043
3420.93409	0.00080
3419.00572	0.00127
3417.07735	0.00145
3415.14897	0.00129
3413.22060	0.00085
3411.29223	0.00019
3409.36385	0.00041
3407.43548	0.00063
3405.50711	0.00067
3403.57874	0.00061
3401.65036	0.00045
3399.72199	0.00041
3397.79362	0.00052
3395.86524	0.00050
3393.93687	0.00024
3392.00850	0.00083
3390.08012	0.00119
3388.15175	0.00127
3386.22338	0.00100
3384.29500	0.00068
3382.36663	0.00067
3380.43826	0.00069
3378.50988	0.00062
3376.58151	0.00085
3374.65314	0.00081
3372.72476	0.00035
3370.79639	0.00044
3368.86802	0.00086
3366.93964	0.00078
3365.01127	0.00063
3363.08290	0.00083
3361.15452	0.00126
3359.22615	0.00130
3357.29778	0.00062
3355.36940	0.00014
3353.44103	0.00013
3351.51266	0.00039
3349.58428	0.00064
3347.65591	0.00082
3345.72754	0.00143
3343.79917	0.00115
3341.87079	0.00077
3339.94242	0.00073
3338.01405	0.00069
3336.08567	0.00100
3334.15730	0.00083
3332.22893	0.00058
3330.30055	0.00056
3328.37218	0.00121
3326.44381	0.00137
3324.51543	0.00134
3322.58706	0.00136
3320.65869	0.00117
3318.73031	0.00095
3316.80194	0.00113
3314.87357	0.00118
3312.94519	0.00072
3311.01682	0.00074
3309.08845	0.00089
3307.16007	0.00090
3305.23170	0.00087
3303.30333	0.00080
3301.37495	0.00081
3299.44658	0.00072
3297.51821	0.00037
3295.58983	0.00031
3293.66146	0.00039
3291.73309	0.00039
3289.80472	0.00056
3287.87634	0.00100
3285.94797	0.00118
3284.01960	0.00100
3282.09122	0.00065
3280.16285	0.00041
3278.23448	0.00055
3276.30610	0.00069
3274.37773	0.00063
3272.44936	0.00098
3270.52098	0.00105
3268.59261	0.00048
3266.66424	0.00066
3264.73586	0.00088
3262.80749	0.00074
3260.87912	0.00086
3258.95074	0.00106
3257.02237	0.00096
3255.09400	0.00120
3253.16562	0.00149
3251.23725	0.00127
3249.30888	0.00060
3247.38050	0.00042
3245.45213	0.00047
3243.52376	0.00054
3241.59538	0.00074
3239.66701	0.00062
3237.73864	0.00034
3235.81026	0.00058
3233.88189	0.00025
3231.95352	0.00054
3230.02515	0.00067
3228.09677	0.00069
3226.16840	0.00072
3224.24003	0.00066
3222.31165	0.00053
3220.38328	0.00039
3218.45491	0.00018
3216.52653	0.00027
3214.59816	0.00057
3212.66979	0.00060
3210.74141	0.00047
3208.81304	0.00050
3206.88467	0.00066
3204.95629	0.00093
3203.02792	0.00110
3201.09955	0.00100
3199.17117	0.00054
3197.24280	0.00033
3195.31443	0.00041
3193.38605	0.00061
3191.45768	0.00076
3189.52931	0.00065
3187.60093	0.00060
3185.67256	0.00084
3183.74419	0.00081
3181.81581	0.00079
3179.88744	0.00090
3177.95907	0.00080
3176.03070	0.00086
3174.10232	0.00065
3172.17395	0.00077
3170.24558	0.00119
3168.31720	0.00121
3166.38883	0.00118
3164.46046	0.00137
3162.53208	0.00148
3160.60371	0.00175
3158.67534	0.00201
3156.74696	0.00194
3154.81859	0.00162
3152.89022	0.00152
3150.96184	0.00168
3149.03347	0.00179
3147.10510	0.00209
3145.17672	0.00254
3143.24835	0.00295
3141.31998	0.00300
3139.39160	0.00272
3137.46323	0.00220
3135.53486	0.00194
3133.60648	0.00225
3131.67811	0.00251
3129.74974	0.00220
3127.82136	0.00179
3125.89299	0.00187
3123.96462	0.00233
3122.03624	0.00242
3120.10787	0.00207
3118.17950	0.00176
3116.25113	0.00169
3114.32275	0.00157
3112.39438	0.00142
3110.46601	0.00149
3108.53763	0.00170
3106.60926	0.00170
3104.68089	0.00138
3102.75251	0.00124
3100.82414	0.00174
3098.89577	0.00232
3096.96739	0.00254
3095.03902	0.00236
3093.11065	0.00199
3091.18227	0.00184
3089.25390	0.00217
3087.32553	0.00253
3085.39715	0.00256
3083.46878	0.00256
3081.54041	0.00226
3079.61203	0.00145
3077.68366	0.00102
3075.75529	0.00179
3073.82691	0.00308
3071.89854	0.00372
3069.97017	0.00360
3068.04179	0.00332
3066.11342	0.00346
3064.18505	0.00387
3062.25668	0.00396
3060.32830	0.00417
3058.39993	0.00476
3056.47156	0.00516
3054.54318	0.00529
3052.61481	0.00555
3050.68644	0.00573
3048.75806	0.00569
3046.82969	0.00574
3044.90132	0.00604
3042.97294	0.00647
3041.04457	0.00683
3039.11620	0.00727
3037.18782	0.00776
3035.25945	0.00802
3033.33108	0.00843
3031.40270	0.00925
3029.47433	0.00977
3027.54596	0.00993
3025.61758	0.01038
3023.68921	0.01094
3021.76084	0.01117
3019.83246	0.01119
3017.90409	0.01141
3015.97572	0.01204
3014.04734	0.01274
3012.11897	0.01306
3010.19060	0.01310
3008.26222	0.01318
3006.33385	0.01319
3004.40548	0.01315
3002.47711	0.01341
3000.54873	0.01397
2998.62036	0.01428
2996.69199	0.01396
2994.76361	0.01335
2992.83524	0.01289
2990.90687	0.01245
2988.97849	0.01176
2987.05012	0.01089
2985.12175	0.01022
2983.19337	0.00972
2981.26500	0.00895
2979.33663	0.00786
2977.40825	0.00687
2975.47988	0.00622
2973.55151	0.00574
2971.62313	0.00516
2969.69476	0.00472
2967.76639	0.00455
2965.83801	0.00425
2963.90964	0.00367
2961.98127	0.00332
2960.05289	0.00371
2958.12452	0.00454
2956.19615	0.00546
2954.26777	0.00619
2952.33940	0.00706
2950.41103	0.00800
2948.48266	0.00833
2946.55428	0.00797
2944.62591	0.00722
2942.69754	0.00661
2940.76916	0.00631
2938.84079	0.00574
2936.91242	0.00513
2934.98404	0.00494
2933.05567	0.00489
2931.12730	0.00491
2929.19892	0.00507
2927.27055	0.00567
2925.34218	0.00654
2923.41380	0.00704
2921.48543	0.00717
2919.55706	0.00761
2917.62868	0.00856
2915.70031	0.00968
2913.77194	0.01032
2911.84356	0.01053
2909.91519	0.01097
2907.98682	0.01185
2906.05844	0.01282
2904.13007	0.01339
2902.20170	0.01341
2900.27332	0.01322
2898.34495	0.01302
2896.41658	0.01290
2894.48820	0.01270
2892.55983	0.01248
2890.63146	0.01260
2888.70309	0.01293
2886.77471	0.01312
2884.84634	0.01314
2882.91797	0.01320
2880.98959	0.01342
2879.06122	0.01374
2877.13285	0.01393
2875.20447	0.01381
2873.27610	0.01391
2871.34773	0.01481
2869.41935	0.01623
2867.49098	0.01788
2865.56261	0.01977
2863.63423	0.02174
2861.70586	0.02329
2859.77749	0.02415
2857.84911	0.02482
2855.92074	0.02598
2853.99237	0.02741
2852.06399	0.02893
2850.13562	0.03089
2848.20725	0.03351
2846.27887	0.03652
2844.35050	0.03937
2842.42213	0.04171
2840.49375	0.04360
2838.56538	0.04544
2836.63701	0.04734
2834.70863	0.04884
2832.78026	0.04997
2830.85189	0.05109
2828.92352	0.05233
2826.99514	0.05364
2825.06677	0.05492
2823.13840	0.05626
2821.21002	0.05779
2819.28165	0.05918
2817.35328	0.06033
2815.42490	0.06163
2813.49653	0.06318
2811.56816	0.06472
2809.63978	0.06635
2807.71141	0.06815
2805.78304	0.06996
2803.85466	0.07163
2801.92629	0.07337
2799.99792	0.07530
2798.06954	0.07711
2796.14117	0.07875
2794.21280	0.08040
2792.28442	0.08190
2790.35605	0.08332
2788.42768	0.08507
2786.49930	0.08692
2784.57093	0.08836
2782.64256	0.08943
2780.71418	0.09051
2778.78581	0.09157
2776.85744	0.09244
2774.92907	0.09343
2773.00069	0.09473
2771.07232	0.09608
2769.14395	0.09726
2767.21557	0.09825
2765.28720	0.09920
2763.35883	0.10047
2761.43045	0.10201
2759.50208	0.10343
2757.57371	0.10460
2755.64533	0.10562
2753.71696	0.10669
2751.78859	0.10794
2749.86021	0.10914
2747.93184	0.11007
2746.00347	0.11095
2744.07509	0.11211
2742.14672	0.11351
2740.21835	0.11479
2738.28997	0.11576
2736.36160	0.11651
2734.43323	0.11744
2732.50485	0.11888
2730.57648	0.12057
2728.64811	0.12202
2726.71973	0.12313
2724.79136	0.12412
2722.86299	0.12525
2720.93461	0.12677
2719.00624	0.12863
2717.07787	0.13033
2715.14950	0.13169
2713.22112	0.13318
2711.29275	0.13504
2709.36438	0.13701
2707.43600	0.13860
2705.50763	0.13970
2703.57926	0.14088
2701.65088	0.14255
2699.72251	0.14447
2697.79414	0.14617
2695.86576	0.14740
2693.93739	0.14839
2692.00902	0.14949
2690.08064	0.15071
2688.15227	0.15201
2686.22390	0.15331
2684.29552	0.15438
2682.36715	0.15541
2680.43878	0.15680
2678.51040	0.15827
2676.58203	0.15957
2674.65366	0.16097
2672.72528	0.16234
2670.79691	0.16336
2668.86854	0.16432
2666.94016	0.16551
2665.01179	0.16683
2663.08342	0.16804
2661.15505	0.16898
2659.22667	0.16979
2657.29830	0.17057
2655.36993	0.17120
2653.44155	0.17174
2651.51318	0.17245
2649.58481	0.17328
2647.65643	0.17393
2645.72806	0.17446
2643.79969	0.17511
2641.87131	0.17585
2639.94294	0.17662
2638.01457	0.17734
2636.08619	0.17810
2634.15782	0.17916
2632.22945	0.18032
2630.30107	0.18116
2628.37270	0.18189
2626.44433	0.18288
2624.51595	0.18402
2622.58758	0.18526
2620.65921	0.18653
2618.73083	0.18748
2616.80246	0.18810
2614.87409	0.18877
2612.94571	0.18974
2611.01734	0.19097
2609.08897	0.19228
2607.16059	0.19350
2605.23222	0.19452
2603.30385	0.19548
2601.37548	0.19663
2599.44710	0.19803
2597.51873	0.19936
2595.59036	0.20030
2593.66198	0.20112
2591.73361	0.20223
2589.80524	0.20346
2587.87686	0.20467
2585.94849	0.20605
2584.02012	0.20744
2582.09174	0.20876
2580.16337	0.21035
2578.23500	0.21196
2576.30662	0.21303
2574.37825	0.21401
2572.44988	0.21561
2570.52150	0.21755
2568.59313	0.21941
2566.66476	0.22127
2564.73638	0.22326
2562.80801	0.22537
2560.87964	0.22753
2558.95126	0.22967
2557.02289	0.23171
2555.09452	0.23367
2553.16614	0.23563
2551.23777	0.23753
2549.30940	0.23925
2547.38103	0.24087
2545.45265	0.24247
2543.52428	0.24395
2541.59591	0.24537
2539.66753	0.24680
2537.73916	0.24800
2535.81079	0.24895
2533.88241	0.25001
2531.95404	0.25130
2530.02567	0.25266
2528.09729	0.25393
2526.16892	0.25491
2524.24055	0.25568
2522.31217	0.25661
2520.38380	0.25793
2518.45543	0.25946
2516.52705	0.26087
2514.59868	0.26212
2512.67031	0.26323
2510.74193	0.26413
2508.81356	0.26525
2506.88519	0.26688
2504.95681	0.26862
2503.02844	0.27021
2501.10007	0.27179
2499.17169	0.27332
2497.24332	0.27474
2495.31495	0.27632
2493.38657	0.27822
2491.45820	0.28016
2489.52983	0.28180
2487.60146	0.28330
2485.67308	0.28490
2483.74471	0.28646
2481.81634	0.28776
2479.88796	0.28898
2477.95959	0.29046
2476.03122	0.29215
2474.10284	0.29384
2472.17447	0.29554
2470.24610	0.29740
2468.31772	0.29945
2466.38935	0.30143
2464.46098	0.30325
2462.53260	0.30518
2460.60423	0.30724
2458.67586	0.30922
2456.74748	0.31100
2454.81911	0.31265
2452.89074	0.31444
2450.96236	0.31643
2449.03399	0.31823
2447.10562	0.31978
2445.17724	0.32147
2443.24887	0.32329
2441.32050	0.32496
2439.39212	0.32644
2437.46375	0.32807
2435.53538	0.32981
2433.60700	0.33117
2431.67863	0.33228
2429.75026	0.33378
2427.82189	0.33564
2425.89351	0.33726
2423.96514	0.33843
2422.03677	0.33945
2420.10839	0.34065
2418.18002	0.34206
2416.25165	0.34357
2414.32327	0.34506
2412.39490	0.34652
2410.46653	0.34805
2408.53815	0.34962
2406.60978	0.35115
2404.68141	0.35275
2402.75303	0.35465
2400.82466	0.35669
2398.89629	0.35870
2396.96791	0.36082
2395.03954	0.36285
2393.11117	0.36448
2391.18279	0.36603
2389.25442	0.36773
2387.32605	0.36940
2385.39767	0.37104
2383.46930	0.37295
2381.54093	0.37528
2379.61255	0.37763
2377.68418	0.37969
2375.75581	0.38190
2373.82744	0.38435
2371.89906	0.38663
2369.97069	0.38954
2368.04232	0.39341
2366.11394	0.39718
2364.18557	0.40060
2362.25720	0.40329
2360.32882	0.40578
2358.40045	0.40819
2356.47208	0.40799
2354.54370	0.40592
2352.61533	0.40451
2350.68696	0.40373
2348.75858	0.40359
2346.83021	0.40486
2344.90184	0.40784
2342.97346	0.41041
2341.04509	0.41083
2339.11672	0.41098
2337.18834	0.41195
2335.25997	0.41223
2333.33160	0.41138
2331.40322	0.41119
2329.47485	0.41244
2327.54648	0.41388
2325.61810	0.41473
2323.68973	0.41501
2321.76136	0.41461
2319.83298	0.41358
2317.90461	0.41260
2315.97624	0.41261
2314.04787	0.41377
2312.11949	0.41533
2310.19112	0.41658
2308.26275	0.41738
2306.33437	0.41794
2304.40600	0.41868
2302.47763	0.41988
2300.54925	0.42123
2298.62088	0.42230
2296.69251	0.42312
2294.76413	0.42386
2292.83576	0.42464
2290.90739	0.42538
2288.97901	0.42600
2287.05064	0.42662
2285.12227	0.42724
2283.19389	0.42764
2281.26552	0.42785
2279.33715	0.42828
2277.40877	0.42901
2275.48040	0.42965
2273.55203	0.42993
2271.62365	0.43015
2269.69528	0.43056
2267.76691	0.43105
2265.83853	0.43143
2263.91016	0.43177
2261.98179	0.43217
2260.05342	0.43253
2258.12504	0.43285
2256.19667	0.43338
2254.26830	0.43409
2252.33992	0.43490
2250.41155	0.43569
2248.48318	0.43629
2246.55480	0.43677
2244.62643	0.43740
2242.69806	0.43822
2240.76968	0.43887
2238.84131	0.43907
2236.91294	0.43908
2234.98456	0.43915
2233.05619	0.43934
2231.12782	0.43970
2229.19944	0.44012
2227.27107	0.44036
2225.34270	0.44044
2223.41432	0.44044
2221.48595	0.44042
2219.55758	0.44034
2217.62920	0.44017
2215.70083	0.44004
2213.77246	0.44017
2211.84408	0.44040
2209.91571	0.44044
2207.98734	0.44028
2206.05896	0.44010
2204.13059	0.44000
2202.20222	0.44003
2200.27385	0.44003
2198.34547	0.43991
2196.41710	0.43973
2194.48873	0.43961
2192.56035	0.43948
2190.63198	0.43935
2188.70361	0.43927
2186.77523	0.43912
2184.84686	0.43884
2182.91849	0.43864
2180.99011	0.43855
2179.06174	0.43842
2177.13337	0.43824
2175.20499	0.43803
2173.27662	0.43785
2171.34825	0.43793
2169.41987	0.43822
2167.49150	0.43829
2165.56313	0.43816
2163.63475	0.43813
2161.70638	0.43824
2159.77801	0.43827
2157.84963	0.43828
2155.92126	0.43841
2153.99289	0.43859
2152.06451	0.43880
2150.13614	0.43911
2148.20777	0.43936
2146.27940	0.43948
2144.35102	0.43950
2142.42265	0.43959
2140.49428	0.43977
2138.56590	0.43986
2136.63753	0.43996
2134.70916	0.44035
2132.78078	0.44085
2130.85241	0.44114
2128.92404	0.44122
2126.99566	0.44145
2125.06729	0.44206
2123.13892	0.44286
2121.21054	0.44349
2119.28217	0.44406
2117.35380	0.44489
2115.42542	0.44589
2113.49705	0.44686
2111.56868	0.44769
2109.64030	0.44842
2107.71193	0.44925
2105.78356	0.45008
2103.85518	0.45050
2101.92681	0.45070
2099.99844	0.45111
2098.07006	0.45171
2096.14169	0.45238
2094.21332	0.45302
2092.28494	0.45342
2090.35657	0.45353
2088.42820	0.45358
2086.49983	0.45382
2084.57145	0.45427
2082.64308	0.45479
2080.71471	0.45511
2078.78633	0.45510
2076.85796	0.45518
2074.92959	0.45567
2073.00121	0.45621
2071.07284	0.45657
2069.14447	0.45700
2067.21609	0.45778
2065.28772	0.45888
2063.35935	0.45983
2061.43097	0.46051
2059.50260	0.46124
2057.57423	0.46202
2055.64585	0.46283
2053.71748	0.46378
2051.78911	0.46488
2049.86073	0.46606
2047.93236	0.46725
2046.00399	0.46840
2044.07561	0.46965
2042.14724	0.47095
2040.21887	0.47198
2038.29049	0.47273
2036.36212	0.47348
2034.43375	0.47434
2032.50538	0.47527
2030.57700	0.47621
2028.64863	0.47716
2026.72026	0.47811
2024.79188	0.47908
2022.86351	0.48011
2020.93514	0.48127
2019.00676	0.48253
2017.07839	0.48365
2015.15002	0.48442
2013.22164	0.48509
2011.29327	0.48590
2009.36490	0.48681
2007.43652	0.48773
2005.50815	0.48865
2003.57978	0.48976
2001.65140	0.49102
1999.72303	0.49208
1997.79466	0.49277
1995.86628	0.49346
1993.93791	0.49453
1992.00954	0.49552
1990.08116	0.49597
1988.15279	0.49628
1986.22442	0.49664
1984.29604	0.49692
1982.36767	0.49714
1980.43930	0.49746
1978.51092	0.49796
1976.58255	0.49859
1974.65418	0.49919
1972.72581	0.49990
1970.79743	0.50110
1968.86906	0.50272
1966.94069	0.50380
1965.01231	0.50411
1963.08394	0.50456
1961.15557	0.50546
1959.22719	0.50640
1957.29882	0.50718
1955.37045	0.50781
1953.44207	0.50840
1951.51370	0.50914
1949.58533	0.51010
1947.65695	0.51131
1945.72858	0.51277
1943.80021	0.51416
1941.87183	0.51489
1939.94346	0.51505
1938.01509	0.51527
1936.08671	0.51580
1934.15834	0.51680
1932.22997	0.51791
1930.30159	0.51852
1928.37322	0.51904
1926.44485	0.52018
1924.51647	0.52187
1922.58810	0.52327
1920.65973	0.52395
1918.73135	0.52434
1916.80298	0.52425
1914.87461	0.52392
1912.94624	0.52431
1911.01786	0.52515
1909.08949	0.52556
1907.16112	0.52537
1905.23274	0.52500
1903.30437	0.52470
1901.37600	0.52439
1899.44762	0.52419
1897.51925	0.52420
1895.59088	0.52418
1893.66250	0.52423
1891.73413	0.52485
1889.80576	0.52540
1887.87738	0.52495
1885.94901	0.52446
1884.02064	0.52467
1882.09226	0.52507
1880.16389	0.52536
1878.23552	0.52559
1876.30714	0.52585
1874.37877	0.52647
1872.45040	0.52779
1870.52202	0.52977
1868.59365	0.53115
1866.66528	0.53051
1864.73690	0.52903
1862.80853	0.52815
1860.88016	0.52772
1858.95179	0.52722
1857.02341	0.52665
1855.09504	0.52610
1853.16667	0.52570
1851.23829	0.52571
1849.30992	0.52640
1847.38155	0.52771
1845.45317	0.52895
1843.52480	0.52853
1841.59643	0.52651
1839.66805	0.52505
1837.73968	0.52461
1835.81131	0.52445
1833.88293	0.52456
1831.95456	0.52555
1830.02619	0.52661
1828.09781	0.52613
1826.16944	0.52492
1824.24107	0.52327
1822.31269	0.52091
1820.38432	0.51895
1818.45595	0.51767
1816.52757	0.51638
1814.59920	0.51519
1812.67083	0.51449
1810.74245	0.51350
1808.81408	0.51147
1806.88571	0.50921
1804.95733	0.50748
1803.02896	0.50629
1801.10059	0.50502
1799.17222	0.50294
1797.24384	0.50036
1795.31547	0.49841
1793.38710	0.49705
1791.45872	0.49386
1789.53035	0.48879
1787.60198	0.48469
1785.67360	0.48164
1783.74523	0.47863
1781.81686	0.47547
1779.88848	0.47180
1777.96011	0.46794
1776.03174	0.46523
1774.10336	0.46360
1772.17499	0.46047
1770.24662	0.45437
1768.31824	0.44749
1766.38987	0.44124
1764.46150	0.43626
1762.53312	0.43147
1760.60475	0.42536
1758.67638	0.41865
1756.74800	0.41106
1754.81963	0.40303
1752.89126	0.39560
1750.96288	0.38675
1749.03451	0.37442
1747.10614	0.36043
1745.17777	0.34628
1743.24939	0.33208
1741.32102	0.31738
1739.39265	0.30202
1737.46427	0.28946
1735.53590	0.27901
1733.60753	0.26440
1731.67915	0.24851
1729.75078	0.23506
1727.82241	0.22178
1725.89403	0.20877
1723.96566	0.19512
1722.03729	0.18154
1720.10891	0.16930
1718.18054	0.15446
1716.25217	0.13483
1714.32379	0.11720
1712.39542	0.10195
1710.46705	0.08680
1708.53867	0.07150
1706.61030	0.05504
1704.68193	0.03892
1702.75355	0.02700
1700.82518	0.01719
1698.89681	0.00884
1696.96843	0.00517
1695.04006	0.00318
1693.11169	0.00145
1691.18331	0.00054
1689.25494	0.00052
1687.32657	0.00078
1685.39820	0.00101
1683.46982	0.00094
1681.54145	0.00063
1679.61308	0.00059
1677.68470	0.00078
1675.75633	0.00089
1673.82796	0.00074
1671.89958	0.00087
1669.97121	0.00112
1668.04284	0.00088
1666.11446	0.00032
1664.18609	0.00075
1662.25772	0.00104
1660.32934	0.00070
1658.40097	0.00074
1656.47260	0.00102
1654.54422	0.00103
1652.61585	0.00102
1650.68748	0.00104
1648.75910	0.00098
1646.83073	0.00096
1644.90236	0.00112
1642.97398	0.00122
1641.04561	0.00123
1639.11724	0.00109
1637.18886	0.00104
1635.26049	0.00108
1633.33212	0.00085
1631.40375	0.00077
1629.47537	0.00071
1627.54700	0.00075
1625.61863	0.00050
1623.69025	0.00037
1621.76188	0.00056
1619.83351	0.00039
1617.90513	0.00063
1615.97676	0.00084
1614.04839	0.00065
1612.12001	0.00051
1610.19164	0.00061
1608.26327	0.00081
1606.33489	0.00070
1604.40652	0.00050
1602.47815	0.00052
1600.54977	0.00051
1598.62140	0.00025
1596.69303	0.00023
1594.76465	0.00050
1592.83628	0.00075
1590.90791	0.00056
1588.97953	0.00023
1587.05116	0.00021
1585.12279	0.00045
1583.19441	0.00045
1581.26604	0.00033
1579.33767	0.00049
1577.40929	0.00099
1575.48092	0.00094
1573.55255	0.00077
1571.62418	0.00102
1569.69580	0.00098
1567.76743	0.00077
1565.83906	0.00081
1563.91068	0.00095
1561.98231	0.00114
1560.05394	0.00101
1558.12556	0.00056
1556.19719	0.00057
1554.26882	0.00043
1552.34044	0.00048
1550.41207	0.00061
1548.48370	0.00071
1546.55532	0.00053
1544.62695	0.00030
1542.69858	0.00108
1540.77020	0.00147
1538.84183	0.00115
1536.91346	0.00085
1534.98508	0.00060
1533.05671	0.00068
1531.12834	0.00049
1529.19996	0.00033
1527.27159	0.00061
1525.34322	0.00066
1523.41484	0.00090
1521.48647	0.00131
1519.55810	0.00142
1517.62972	0.00130
1515.70135	0.00099
1513.77298	0.00066
1511.84461	0.00044
1509.91623	0.00022
1507.98786	0.00057
1506.05949	0.00093
1504.13111	0.00067
1502.20274	0.00065
1500.27437	0.00093
1498.34599	0.00147
1496.41762	0.00228
1494.48925	0.00337
1492.56087	0.00444
1490.63250	0.00553
1488.70413	0.00664
1486.77575	0.00766
1484.84738	0.00883
1482.91901	0.00991
1480.99063	0.01057
1479.06226	0.01077
1477.13389	0.01048
1475.20551	0.00973
1473.27714	0.00873
1471.34877	0.00754
1469.42039	0.00639
1467.49202	0.00552
1465.56365	0.00487
1463.63527	0.00430
1461.70690	0.00384
1459.77853	0.00370
1457.85016	0.00357
1455.92178	0.00314
1453.99341	0.00312
1452.06504	0.00320
1450.13666	0.00299
1448.20829	0.00249
1446.27992	0.00191
1444.35154	0.00132
1442.42317	0.00107
1440.49480	0.00093
1438.56642	0.00099
1436.63805	0.00185
1434.70968	0.00278
1432.78130	0.00290
1430.85293	0.00292
1428.92456	0.00323
1426.99618	0.00352
1425.06781	0.00347
1423.13944	0.00299
1421.21106	0.00228
1419.28269	0.00222
1417.35432	0.00275
1415.42594	0.00277
1413.49757	0.00234
1411.56920	0.00203
1409.64082	0.00201
1407.71245	0.00205
1405.78408	0.00228
1403.85570	0.00262
1401.92733	0.00286
1399.99896	0.00286
1398.07059	0.00263
1396.14221	0.00197
1394.21384	0.00127
1392.28547	0.00109
1390.35709	0.00134
1388.42872	0.00152
1386.50035	0.00119
1384.57197	0.00104
1382.64360	0.00106
1380.71523	0.00069
1378.78685	0.00065
1376.85848	0.00068
1374.93011	0.00088
1373.00173	0.00070
1371.07336	0.00058
1369.14499	0.00095
1367.21661	0.00175
1365.28824	0.00337
1363.35987	0.00554
1361.43149	0.00745
1359.50312	0.00861
1357.57475	0.00964
1355.64637	0.01079
1353.71800	0.01172
1351.78963	0.01243
1349.86125	0.01310
1347.93288	0.01338
1346.00451	0.01305
1344.07614	0.01244
1342.14776	0.01182
1340.21939	0.01107
1338.29102	0.01013
1336.36264	0.00925
1334.43427	0.00846
1332.50590	0.00745
1330.57752	0.00626
1328.64915	0.00533
1326.72078	0.00476
1324.79240	0.00461
1322.86403	0.00480
1320.93566	0.00489
1319.00728	0.00454
1317.07891	0.00410
1315.15054	0.00402
1313.22216	0.00430
1311.29379	0.00462
1309.36542	0.00470
1307.43704	0.00450
1305.50867	0.00434
1303.58030	0.00427
1301.65192	0.00392
1299.72355	0.00332
1297.79518	0.00321
1295.86680	0.00384
1293.93843	0.00442
1292.01006	0.00448
1290.08168	0.00418
1288.15331	0.00383
1286.22494	0.00353
1284.29657	0.00315
1282.36819	0.00265
1280.43982	0.00239
1278.51145	0.00265
1276.58307	0.00306
1274.65470	0.00317
1272.72633	0.00278
1270.79795	0.00202
1268.86958	0.00161
1266.94121	0.00176
1265.01283	0.00192
1263.08446	0.00205
1261.15609	0.00239
1259.22771	0.00271
1257.29934	0.00285
1255.37097	0.00303
1253.44259	0.00323
1251.51422	0.00343
1249.58585	0.00386
1247.65747	0.00452
1245.72910	0.00516
1243.80073	0.00540
1241.87235	0.00528
1239.94398	0.00554
1238.01561	0.00632
1236.08723	0.00687
1234.15886	0.00699
1232.23049	0.00701
1230.30212	0.00743
1228.37374	0.00845
1226.44537	0.00984
1224.51700	0.01085
1222.58862	0.01119
1220.66025	0.01176
1218.73188	0.01331
1216.80350	0.01508
1214.87513	0.01599
1212.94676	0.01614
1211.01838	0.01536
1209.09001	0.01352
1207.16164	0.01232
1205.23326	0.01307
1203.30489	0.01557
1201.37652	0.01880
1199.44814	0.02219
1197.51977	0.02601
1195.59140	0.02993
1193.66302	0.03323
1191.73465	0.03617
1189.80628	0.03853
1187.87790	0.03879
1185.94953	0.03701
1184.02116	0.03498
1182.09278	0.03294
1180.16441	0.03027
1178.23604	0.02716
1176.30766	0.02368
1174.37929	0.01937
1172.45092	0.01461
1170.52255	0.01048
1168.59417	0.00749
1166.66580	0.00532
1164.73743	0.00339
1162.80905	0.00147
1160.88068	0.00111
1158.95231	0.00094
1157.02393	0.00115
1155.09556	0.00142
1153.16719	0.00206
1151.23881	0.00299
1149.31044	0.00531
1147.38207	0.00881
1145.45369	0.01300
1143.52532	0.01703
1141.59695	0.01989
1139.66857	0.02108
1137.74020	0.02082
1135.81183	0.01985
1133.88345	0.01817
1131.95508	0.01531
1130.02671	0.01190
1128.09833	0.00864
1126.16996	0.00549
1124.24159	0.00307
1122.31321	0.00224
1120.38484	0.00253
1118.45647	0.00228
1116.52809	0.00144
1114.59972	0.00137
1112.67135	0.00223
1110.74298	0.00344
1108.81460	0.00445
1106.88623	0.00523
1104.95786	0.00592
1103.02948	0.00620
1101.10111	0.00603
1099.17274	0.00561
1097.24436	0.00504
1095.31599	0.00441
1093.38762	0.00400
1091.45924	0.00330
1089.53087	0.00213
1087.60250	0.00117
1085.67412	0.00120
1083.74575	0.00121
1081.81738	0.00084
1079.88900	0.00068
1077.96063	0.00196
1076.03226	0.00237
1074.10388	0.00182
1072.17551	0.00184
1070.24714	0.00163
1068.31876	0.00082
1066.39039	0.00063
1064.46202	0.00082
1062.53364	0.00144
1060.60527	0.00286
1058.67690	0.00461
1056.74853	0.00493
1054.82015	0.00420
1052.89178	0.00449
1050.96341	0.00529
1049.03503	0.00576
1047.10666	0.00519
1045.17829	0.00370
1043.24991	0.00253
1041.32154	0.00238
1039.39317	0.00234
1037.46479	0.00223
1035.53642	0.00253
1033.60805	0.00232
1031.67967	0.00207
1029.75130	0.00170
1027.82293	0.00175
1025.89455	0.00158
1023.96618	0.00088
1022.03781	0.00070
1020.10943	0.00075
1018.18106	0.00074
1016.25269	0.00131
1014.32431	0.00224
1012.39594	0.00349
1010.46757	0.00564
1008.53919	0.00800
1006.61082	0.01144
1004.68245	0.01668
1002.75407	0.02300
1000.82570	0.02981
998.89733	0.03660
996.96896	0.04262
995.04058	0.04786
993.11221	0.05321
991.18384	0.05916
989.25546	0.06543
987.32709	0.07099
985.39872	0.07431
983.47034	0.07435
981.54197	0.07113
979.61360	0.06579
977.68522	0.06074
975.75685	0.05844
973.82848	0.05975
971.90010	0.06467
969.97173	0.07300
968.04336	0.08302
966.11498	0.09174
964.18661	0.09644
962.25824	0.09481
960.32986	0.08515
958.40149	0.06932
956.47312	0.05458
954.54474	0.04811
952.61637	0.05113
950.68800	0.06096
948.75962	0.07452
946.83125	0.08903
944.90288	0.10222
942.97451	0.11333
941.04613	0.12301
939.11776	0.13214
937.18939	0.14062
935.26101	0.14742
933.33264	0.15287
931.40427	0.15786
929.47589	0.16181
927.54752	0.16422
925.61915	0.16554
923.69077	0.16564
921.76240	0.16497
919.83403	0.16582
917.90565	0.16928
915.97728	0.17363
914.04891	0.17708
912.12053	0.17856
910.19216	0.17654
908.26379	0.17013
906.33541	0.16017
904.40704	0.14830
902.47867	0.13682
900.55029	0.12792
898.62192	0.12237
896.69355	0.11965
894.76517	0.11914
892.83680	0.12112
890.90843	0.12563
888.98005	0.13149
887.05168	0.13823
885.12331	0.14501
883.19494	0.14958
881.26656	0.15167
879.33819	0.15220
877.40982	0.15194
875.48144	0.15215
873.55307	0.15282
871.62470	0.15286
869.69632	0.15251
867.76795	0.15248
865.83958	0.15233
863.91120	0.15184
861.98283	0.15170
860.05446	0.15208
858.12608	0.15199
856.19771	0.15007
854.26934	0.14651
852.34096	0.14340
850.41259	0.14182
848.48422	0.14080
846.55584	0.13941
844.62747	0.13775
842.69910	0.13575
840.77072	0.13255
838.84235	0.12789
836.91398	0.12245
834.98560	0.11669
833.05723	0.11112
831.12886	0.10619
829.20049	0.10188
827.27211	0.09789
825.34374	0.09395
823.41537	0.09063
821.48699	0.08851
819.55862	0.08638
817.63025	0.08371
815.70187	0.08206
813.77350	0.08131
811.84513	0.08024
809.91675	0.07945
807.98838	0.07865
806.06001	0.07696
804.13163	0.07528
802.20326	0.07411
800.27489	0.07291
798.34651	0.07187
796.41814	0.07116
794.48977	0.06984
792.56139	0.06703
790.63302	0.06316
788.70465	0.05980
786.77627	0.05787
784.84790	0.05611
782.91953	0.05350
780.99115	0.05086
779.06278	0.04878
777.13441	0.04717
775.20603	0.04541
773.27766	0.04252
771.34929	0.03929
769.42092	0.03717
767.49254	0.03638
765.56417	0.03623
763.63580	0.03554
761.70742	0.03388
759.77905	0.03162
757.85068	0.02880
755.92230	0.02610
753.99393	0.02480
752.06556	0.02499
750.13718	0.02556
748.20881	0.02537
746.28044	0.02446
744.35206	0.02387
742.42369	0.02423
740.49532	0.02478
738.56694	0.02435
736.63857	0.02391
734.71020	0.02464
732.78182	0.02526
730.85345	0.02396
728.92508	0.02162
726.99670	0.02033
725.06833	0.01973
723.13996	0.01878
721.21158	0.01874
719.28321	0.01948
717.35484	0.01886
715.42647	0.01683
713.49809	0.01492
711.56972	0.01419
709.64135	0.01394
707.71297	0.01281
705.78460	0.01221
703.85623	0.01298
701.92785	0.01323
699.99948	0.01271
698.07111	0.01267
696.14273	0.01286
694.21436	0.01282
692.28599	0.01282
690.35761	0.01252
688.42924	0.01194
686.50087	0.01180
684.57249	0.01263
682.64412	0.01458
680.71575	0.01669
678.78737	0.01716
676.85900	0.01619
674.93063	0.01543
673.00225	0.01546
671.07388	0.01547
669.14551	0.01610
667.21713	0.01721
665.28876	0.01621
663.36039	0.01473
661.43201	0.01390
659.50364	0.01431
657.57527	0.01590
655.64690	0.01778
653.71852	0.01791
651.79015	0.01556
649.86178	0.01409
647.93340	0.01613
646.00503	0.01806
644.07666	0.01780
642.14828	0.01678
640.21991	0.01488
638.29154	0.01191
636.36316	0.00946
634.43479	0.00872
632.50642	0.00733
630.57804	0.00482
628.64967	0.00794
626.72130	0.01097
624.79292	0.01132
622.86455	0.01203
620.93618	0.01154
619.00780	0.00928
617.07943	0.00828
615.15106	0.00786
613.22268	0.00786
611.29431	0.00843
609.36594	0.01059
607.43756	0.01158
605.50919	0.00771
603.58082	0.00355
601.65244	0.00838
599.72407	0.01178
