3997.51769	0.42398
3995.58931	0.42411
3993.66094	0.42374
3991.73257	0.42356
3989.80419	0.42393
3987.87582	0.42453
3985.94745	0.42492
3984.01907	0.42493
3982.09070	0.42481
3980.16233	0.42491
3978.23396	0.42525
3976.30558	0.42562
3974.37721	0.42601
3972.44884	0.42636
3970.52046	0.42650
3968.59209	0.42661
3966.66372	0.42689
3964.73534	0.42744
3962.80697	0.42838
3960.87860	0.42933
3958.95022	0.42989
3957.02185	0.43047
3955.09348	0.43130
3953.16510	0.43216
3951.23673	0.43330
3949.30836	0.43438
3947.37998	0.43438
3945.45161	0.43394
3943.52324	0.43399
3941.59486	0.43427
3939.66649	0.43463
3937.73812	0.43495
3935.80974	0.43532
3933.88137	0.43613
3931.95300	0.43682
3930.02462	0.43673
3928.09625	0.43682
3926.16788	0.43794
3924.23950	0.43941
3922.31113	0.44031
3920.38276	0.44102
3918.45439	0.44189
3916.52601	0.44189
3914.59764	0.44063
3912.66927	0.43943
3910.74089	0.43914
3908.81252	0.44019
3906.88415	0.44304
3904.95577	0.44704
3903.02740	0.45015
3901.09903	0.45080
3899.17065	0.44884
3897.24228	0.44620
3895.31391	0.44573
3893.38553	0.44761
3891.45716	0.44909
3889.52879	0.44887
3887.60041	0.44971
3885.67204	0.45177
3883.74367	0.45284
3881.81529	0.45364
3879.88692	0.45390
3877.95855	0.45296
3876.03017	0.45319
3874.10180	0.45514
3872.17343	0.45735
3870.24505	0.45828
3868.31668	0.45754
3866.38831	0.45783
3864.45994	0.45923
3862.53156	0.45874
3860.60319	0.45721
3858.67482	0.45745
3856.74644	0.46011
3854.81807	0.46472
3852.88970	0.46660
3850.96132	0.46244
3849.03295	0.45853
3847.10458	0.45697
3845.17620	0.45794
3843.24783	0.46069
3841.31946	0.46340
3839.39108	0.46513
3837.46271	0.46515
3835.53434	0.46363
3833.60596	0.46218
3831.67759	0.46098
3829.74922	0.46039
3827.82084	0.46110
3825.89247	0.46206
3823.96410	0.46345
3822.03572	0.46678
3820.10735	0.46863
3818.17898	0.46728
3816.25060	0.46560
3814.32223	0.46244
3812.39386	0.45922
3810.46548	0.45878
3808.53711	0.46097
3806.60874	0.46304
3804.68037	0.46409
3802.75199	0.46638
3800.82362	0.46751
3798.89525	0.46537
3796.96687	0.46323
3795.03850	0.46120
3793.11013	0.45939
3791.18175	0.45898
3789.25338	0.45967
3787.32501	0.46048
3785.39663	0.46051
3783.46826	0.46003
3781.53989	0.46055
3779.61151	0.46140
3777.68314	0.46041
3775.75477	0.45878
3773.82639	0.45868
3771.89802	0.46043
3769.96965	0.46263
3768.04127	0.46315
3766.11290	0.46244
3764.18453	0.46140
3762.25615	0.46107
3760.32778	0.46216
3758.39941	0.46265
3756.47103	0.46192
3754.54266	0.46258
3752.61429	0.46593
3750.68591	0.46915
3748.75754	0.46860
3746.82917	0.46821
3744.90080	0.46825
3742.97242	0.46488
3741.04405	0.46139
3739.11568	0.46102
3737.18730	0.46324
3735.25893	0.46530
3733.33056	0.46289
3731.40218	0.45762
3729.47381	0.45440
3727.54544	0.45383
3725.61706	0.45405
3723.68869	0.45336
3721.76032	0.45141
3719.83194	0.44867
3717.90357	0.44612
3715.97520	0.44519
3714.04682	0.44666
3712.11845	0.44913
3710.19008	0.44769
3708.26170	0.44198
3706.33333	0.43678
3704.40496	0.43411
3702.47658	0.43273
3700.54821	0.42970
3698.61984	0.42532
3696.69146	0.42116
3694.76309	0.41780
3692.83472	0.41618
3690.90635	0.41552
3688.97797	0.41094
3687.04960	0.40114
3685.12123	0.39227
3683.19285	0.38553
3681.26448	0.37953
3679.33611	0.37430
3677.40773	0.36955
3675.47936	0.36138
3673.55099	0.35029
3671.62261	0.34148
3669.69424	0.33015
3667.76587	0.31570
3665.83749	0.30371
3663.90912	0.29335
3661.98075	0.28325
3660.05237	0.27367
3658.12400	0.26450
3656.19563	0.25387
3654.26725	0.24348
3652.33888	0.23601
3650.41051	0.22823
3648.48213	0.21565
3646.55376	0.20170
3644.62539	0.19057
3642.69701	0.18109
3640.76864	0.17226
3638.84027	0.16432
3636.91189	0.15703
3634.98352	0.14956
3633.05515	0.14227
3631.12678	0.13598
3629.19840	0.12828
3627.27003	0.11889
3625.34166	0.11201
3623.41328	0.10676
3621.48491	0.10185
3619.55654	0.09662
3617.62816	0.09120
3615.69979	0.08643
3613.77142	0.08151
3611.84304	0.07619
3609.91467	0.07154
3607.98630	0.06736
3606.05792	0.06316
3604.12955	0.05938
3602.20118	0.05587
3600.27280	0.05261
3598.34443	0.04965
3596.41606	0.04655
3594.48768	0.04336
3592.55931	0.04059
3590.63094	0.03834
3588.70256	0.03599
3586.77419	0.03326
3584.84582	0.03068
3582.91744	0.02852
3580.98907	0.02666
3579.06070	0.02510
3577.13233	0.02397
3575.20395	0.02286
3573.27558	0.02139
3571.34721	0.01960
3569.41883	0.01780
3567.49046	0.01649
3565.56209	0.01552
3563.63371	0.01422
3561.70534	0.01259
3559.77697	0.01123
3557.84859	0.01040
3555.92022	0.00982
3553.99185	0.00921
3552.06347	0.00847
3550.13510	0.00783
3548.20673	0.00737
3546.27835	0.00682
3544.34998	0.00585
3542.42161	0.00487
3540.49323	0.00458
3538.56486	0.00479
3536.63649	0.00480
3534.70811	0.00421
3532.77974	0.00334
3530.85137	0.00275
3528.92299	0.00263
3526.99462	0.00251
3525.06625	0.00221
3523.13787	0.00204
3521.20950	0.00171
3519.28113	0.00110
3517.35276	0.00061
3515.42438	0.00046
3513.49601	0.00050
3511.56764	0.00047
3509.63926	0.00075
3507.71089	0.00122
3505.78252	0.00124
3503.85414	0.00070
3501.92577	0.00117
3499.99740	0.00156
3498.06902	0.00158
3496.14065	0.00086
3494.21228	0.00042
3492.28390	0.00113
3490.35553	0.00132
3488.42716	0.00115
3486.49878	0.00091
3484.57041	0.00067
3482.64204	0.00057
3480.71366	0.00083
3478.78529	0.00127
3476.85692	0.00115
3474.92854	0.00089
3473.00017	0.00089
3471.07180	0.00123
3469.14342	0.00129
3467.21505	0.00106
3465.28668	0.00074
3463.35831	0.00090
3461.42993	0.00092
3459.50156	0.00066
3457.57319	0.00095
3455.64481	0.00104
3453.71644	0.00071
3451.78807	0.00083
3449.85969	0.00114
3447.93132	0.00103
3446.00295	0.00062
3444.07457	0.00093
3442.14620	0.00126
3440.21783	0.00138
3438.28945	0.00116
3436.36108	0.00093
3434.43271	0.00061
3432.50433	0.00089
3430.57596	0.00117
3428.64759	0.00108
3426.71921	0.00059
3424.79084	0.00046
3422.86247	0.00093
3420.93409	0.00137
3419.00572	0.00162
3417.07735	0.00115
3415.14897	0.00086
3413.22060	0.00125
3411.29223	0.00109
3409.36385	0.00072
3407.43548	0.00036
3405.50711	0.00050
3403.57874	0.00088
3401.65036	0.00109
3399.72199	0.00132
3397.79362	0.00139
3395.86524	0.00136
3393.93687	0.00146
3392.00850	0.00150
3390.08012	0.00118
3388.15175	0.00095
3386.22338	0.00123
3384.29500	0.00119
3382.36663	0.00117
3380.43826	0.00117
3378.50988	0.00090
3376.58151	0.00088
3374.65314	0.00082
3372.72476	0.00069
3370.79639	0.00074
3368.86802	0.00101
3366.93964	0.00107
3365.01127	0.00099
3363.08290	0.00086
3361.15452	0.00066
3359.22615	0.00047
3357.29778	0.00038
3355.36940	0.00076
3353.44103	0.00115
3351.51266	0.00119
3349.58428	0.00123
3347.65591	0.00096
3345.72754	0.00055
3343.79917	0.00022
3341.87079	0.00068
3339.94242	0.00100
3338.01405	0.00085
3336.08567	0.00045
3334.15730	0.00072
3332.22893	0.00085
3330.30055	0.00103
3328.37218	0.00134
3326.44381	0.00151
3324.51543	0.00105
3322.58706	0.00047
3320.65869	0.00059
3318.73031	0.00061
3316.80194	0.00062
3314.87357	0.00041
3312.94519	0.00023
3311.01682	0.00043
3309.08845	0.00060
3307.16007	0.00044
3305.23170	0.00043
3303.30333	0.00062
3301.37495	0.00108
3299.44658	0.00133
3297.51821	0.00122
3295.58983	0.00103
3293.66146	0.00095
3291.73309	0.00076
3289.80472	0.00057
3287.87634	0.00050
3285.94797	0.00067
3284.01960	0.00086
3282.09122	0.00098
3280.16285	0.00103
3278.23448	0.00085
3276.30610	0.00082
3274.37773	0.00094
3272.44936	0.00080
3270.52098	0.00090
3268.59261	0.00131
3266.66424	0.00118
3264.73586	0.00099
3262.80749	0.00097
3260.87912	0.00076
3258.95074	0.00028
3257.02237	0.00040
3255.09400	0.00052
3253.16562	0.00047
3251.23725	0.00048
3249.30888	0.00053
3247.38050	0.00096
3245.45213	0.00093
3243.52376	0.00046
3241.59538	0.00108
3239.66701	0.00113
3237.73864	0.00093
3235.81026	0.00094
3233.88189	0.00114
3231.95352	0.00108
3230.02515	0.00099
3228.09677	0.00111
3226.16840	0.00112
3224.24003	0.00077
3222.31165	0.00030
3220.38328	0.00036
3218.45491	0.00072
3216.52653	0.00096
3214.59816	0.00061
3212.66979	0.00049
3210.74141	0.00066
3208.81304	0.00091
3206.88467	0.00114
3204.95629	0.00085
3203.02792	0.00057
3201.09955	0.00082
3199.17117	0.00055
3197.24280	0.00067
3195.31443	0.00095
3193.38605	0.00090
3191.45768	0.00062
3189.52931	0.00051
3187.60093	0.00108
3185.67256	0.00151
3183.74419	0.00151
3181.81581	0.00107
3179.88744	0.00070
3177.95907	0.00090
3176.03070	0.00165
3174.10232	0.00208
3172.17395	0.00201
3170.24558	0.00164
3168.31720	0.00137
3166.38883	0.00137
3164.46046	0.00135
3162.53208	0.00120
3160.60371	0.00147
3158.67534	0.00187
3156.74696	0.00217
3154.81859	0.00245
3152.89022	0.00252
3150.96184	0.00242
3149.03347	0.00244
3147.10510	0.00245
3145.17672	0.00256
3143.24835	0.00299
3141.31998	0.00324
3139.39160	0.00309
3137.46323	0.00299
3135.53486	0.00307
3133.60648	0.00323
3131.67811	0.00336
3129.74974	0.00334
3127.82136	0.00318
3125.89299	0.00308
3123.96462	0.00283
3122.03624	0.00244
3120.10787	0.00218
3118.17950	0.00215
3116.25113	0.00230
3114.32275	0.00246
3112.39438	0.00239
3110.46601	0.00220
3108.53763	0.00220
3106.60926	0.00235
3104.68089	0.00246
3102.75251	0.00247
3100.82414	0.00267
3098.89577	0.00281
3096.96739	0.00244
3095.03902	0.00202
3093.11065	0.00199
3091.18227	0.00232
3089.25390	0.00253
3087.32553	0.00246
3085.39715	0.00240
3083.46878	0.00252
3081.54041	0.00292
3079.61203	0.00344
3077.68366	0.00358
3075.75529	0.00337
3073.82691	0.00350
3071.89854	0.00404
3069.97017	0.00437
3068.04179	0.00445
3066.11342	0.00470
3064.18505	0.00503
3062.25668	0.00520
3060.32830	0.00526
3058.39993	0.00553
3056.47156	0.00597
3054.54318	0.00620
3052.61481	0.00624
3050.68644	0.00645
3048.75806	0.00696
3046.82969	0.00763
3044.90132	0.00827
3042.97294	0.00870
3041.04457	0.00896
3039.11620	0.00928
3037.18782	0.00977
3035.25945	0.01026
3033.33108	0.01071
3031.40270	0.01124
3029.47433	0.01159
3027.54596	0.01171
3025.61758	0.01207
3023.68921	0.01261
3021.76084	0.01320
3019.83246	0.01387
3017.90409	0.01454
3015.97572	0.01525
3014.04734	0.01604
3012.11897	0.01681
3010.19060	0.01742
3008.26222	0.01772
3006.33385	0.01753
3004.40548	0.01709
3002.47711	0.01696
3000.54873	0.01715
2998.62036	0.01718
2996.69199	0.01687
2994.76361	0.01627
2992.83524	0.01544
2990.90687	0.01460
2988.97849	0.01382
2987.05012	0.01305
2985.12175	0.01243
2983.19337	0.01171
2981.26500	0.01051
2979.33663	0.00919
2977.40825	0.00807
2975.47988	0.00715
2973.55151	0.00650
2971.62313	0.00577
2969.69476	0.00479
2967.76639	0.00421
2965.83801	0.00469
2963.90964	0.00560
2961.98127	0.00581
2960.05289	0.00525
2958.12452	0.00539
2956.19615	0.00671
2954.26777	0.00785
2952.33940	0.00820
2950.41103	0.00842
2948.48266	0.00891
2946.55428	0.00927
2944.62591	0.00920
2942.69754	0.00852
2940.76916	0.00741
2938.84079	0.00674
2936.91242	0.00683
2934.98404	0.00707
2933.05567	0.00683
2931.12730	0.00673
2929.19892	0.00700
2927.27055	0.00746
2925.34218	0.00811
2923.41380	0.00886
2921.48543	0.00954
2919.55706	0.01012
2917.62868	0.01060
2915.70031	0.01116
2913.77194	0.01187
2911.84356	0.01254
2909.91519	0.01319
2907.98682	0.01392
2906.05844	0.01468
2904.13007	0.01529
2902.20170	0.01558
2900.27332	0.01559
2898.34495	0.01522
2896.41658	0.01454
2894.48820	0.01394
2892.55983	0.01359
2890.63146	0.01357
2888.70309	0.01365
2886.77471	0.01335
2884.84634	0.01302
2882.91797	0.01319
2880.98959	0.01345
2879.06122	0.01325
2877.13285	0.01304
2875.20447	0.01341
2873.27610	0.01437
2871.34773	0.01556
2869.41935	0.01699
2867.49098	0.01898
2865.56261	0.02107
2863.63423	0.02266
2861.70586	0.02398
2859.77749	0.02539
2857.84911	0.02696
2855.92074	0.02867
2853.99237	0.03010
2852.06399	0.03127
2850.13562	0.03269
2848.20725	0.03475
2846.27887	0.03762
2844.35050	0.04086
2842.42213	0.04348
2840.49375	0.04519
2838.56538	0.04655
2836.63701	0.04781
2834.70863	0.04876
2832.78026	0.04973
2830.85189	0.05113
2828.92352	0.05263
2826.99514	0.05391
2825.06677	0.05514
2823.13840	0.05636
2821.21002	0.05758
2819.28165	0.05899
2817.35328	0.06055
2815.42490	0.06224
2813.49653	0.06416
2811.56816	0.06592
2809.63978	0.06729
2807.71141	0.06888
2805.78304	0.07074
2803.85466	0.07230
2801.92629	0.07370
2799.99792	0.07532
2798.06954	0.07702
2796.14117	0.07859
2794.21280	0.08011
2792.28442	0.08179
2790.35605	0.08353
2788.42768	0.08486
2786.49930	0.08580
2784.57093	0.08689
2782.64256	0.08820
2780.71418	0.08944
2778.78581	0.09063
2776.85744	0.09193
2774.92907	0.09311
2773.00069	0.09418
2771.07232	0.09541
2769.14395	0.09665
2767.21557	0.09763
2765.28720	0.09861
2763.35883	0.09982
2761.43045	0.10098
2759.50208	0.10166
2757.57371	0.10203
2755.64533	0.10275
2753.71696	0.10401
2751.78859	0.10546
2749.86021	0.10690
2747.93184	0.10803
2746.00347	0.10869
2744.07509	0.10909
2742.14672	0.10957
2740.21835	0.11042
2738.28997	0.11171
2736.36160	0.11309
2734.43323	0.11405
2732.50485	0.11474
2730.57648	0.11571
2728.64811	0.11696
2726.71973	0.11821
2724.79136	0.11950
2722.86299	0.12071
2720.93461	0.12160
2719.00624	0.12242
2717.07787	0.12364
2715.14950	0.12526
2713.22112	0.12677
2711.29275	0.12799
2709.36438	0.12918
2707.43600	0.13055
2705.50763	0.13207
2703.57926	0.13344
2701.65088	0.13460
2699.72251	0.13584
2697.79414	0.13720
2695.86576	0.13840
2693.93739	0.13937
2692.00902	0.14039
2690.08064	0.14162
2688.15227	0.14290
2686.22390	0.14399
2684.29552	0.14477
2682.36715	0.14549
2680.43878	0.14653
2678.51040	0.14770
2676.58203	0.14881
2674.65366	0.15001
2672.72528	0.15113
2670.79691	0.15187
2668.86854	0.15242
2666.94016	0.15319
2665.01179	0.15425
2663.08342	0.15519
2661.15505	0.15574
2659.22667	0.15629
2657.29830	0.15713
2655.36993	0.15791
2653.44155	0.15831
2651.51318	0.15851
2649.58481	0.15875
2647.65643	0.15904
2645.72806	0.15941
2643.79969	0.15984
2641.87131	0.16034
2639.94294	0.16079
2638.01457	0.16107
2636.08619	0.16147
2634.15782	0.16217
2632.22945	0.16315
2630.30107	0.16417
2628.37270	0.16507
2626.44433	0.16579
2624.51595	0.16625
2622.58758	0.16671
2620.65921	0.16751
2618.73083	0.16849
2616.80246	0.16950
2614.87409	0.17048
2612.94571	0.17137
2611.01734	0.17241
2609.08897	0.17371
2607.16059	0.17495
2605.23222	0.17597
2603.30385	0.17686
2601.37548	0.17760
2599.44710	0.17838
2597.51873	0.17946
2595.59036	0.18057
2593.66198	0.18151
2591.73361	0.18250
2589.80524	0.18336
2587.87686	0.18393
2585.94849	0.18460
2584.02012	0.18555
2582.09174	0.18661
2580.16337	0.18762
2578.23500	0.18854
2576.30662	0.18965
2574.37825	0.19099
2572.44988	0.19207
2570.52150	0.19295
2568.59313	0.19419
2566.66476	0.19587
2564.73638	0.19777
2562.80801	0.19961
2560.87964	0.20110
2558.95126	0.20241
2557.02289	0.20377
2555.09452	0.20519
2553.16614	0.20676
2551.23777	0.20837
2549.30940	0.20969
2547.38103	0.21085
2545.45265	0.21202
2543.52428	0.21299
2541.59591	0.21356
2539.66753	0.21407
2537.73916	0.21497
2535.81079	0.21612
2533.88241	0.21715
2531.95404	0.21803
2530.02567	0.21899
2528.09729	0.22005
2526.16892	0.22083
2524.24055	0.22143
2522.31217	0.22232
2520.38380	0.22323
2518.45543	0.22395
2516.52705	0.22479
2514.59868	0.22569
2512.67031	0.22644
2510.74193	0.22722
2508.81356	0.22828
2506.88519	0.22965
2504.95681	0.23085
2503.02844	0.23171
2501.10007	0.23278
2499.17169	0.23434
2497.24332	0.23601
2495.31495	0.23746
2493.38657	0.23871
2491.45820	0.23992
2489.52983	0.24101
2487.60146	0.24191
2485.67308	0.24292
2483.74471	0.24421
2481.81634	0.24550
2479.88796	0.24678
2477.95959	0.24825
2476.03122	0.24973
2474.10284	0.25103
2472.17447	0.25226
2470.24610	0.25365
2468.31772	0.25524
2466.38935	0.25673
2464.46098	0.25797
2462.53260	0.25916
2460.60423	0.26040
2458.67586	0.26179
2456.74748	0.26340
2454.81911	0.26486
2452.89074	0.26590
2450.96236	0.26700
2449.03399	0.26863
2447.10562	0.27027
2445.17724	0.27136
2443.24887	0.27227
2441.32050	0.27327
2439.39212	0.27425
2437.46375	0.27535
2435.53538	0.27657
2433.60700	0.27762
2431.67863	0.27847
2429.75026	0.27957
2427.82189	0.28093
2425.89351	0.28190
2423.96514	0.28232
2422.03677	0.28259
2420.10839	0.28309
2418.18002	0.28395
2416.25165	0.28511
2414.32327	0.28640
2412.39490	0.28756
2410.46653	0.28856
2408.53815	0.28957
2406.60978	0.29066
2404.68141	0.29191
2402.75303	0.29329
2400.82466	0.29468
2398.89629	0.29617
2396.96791	0.29776
2395.03954	0.29919
2393.11117	0.30043
2391.18279	0.30168
2389.25442	0.30295
2387.32605	0.30418
2385.39767	0.30542
2383.46930	0.30672
2381.54093	0.30800
2379.61255	0.30915
2377.68418	0.31035
2375.75581	0.31154
2373.82744	0.31270
2371.89906	0.31433
2369.97069	0.31642
2368.04232	0.31852
2366.11394	0.32096
2364.18557	0.32377
2362.25720	0.32574
2360.32882	0.32650
2358.40045	0.32656
2356.47208	0.32627
2354.54370	0.32631
2352.61533	0.32619
2350.68696	0.32533
2348.75858	0.32485
2346.83021	0.32566
2344.90184	0.32757
2342.97346	0.32948
2341.04509	0.33048
2339.11672	0.33084
2337.18834	0.33084
2335.25997	0.33006
2333.33160	0.32921
2331.40322	0.32947
2329.47485	0.33014
2327.54648	0.33010
2325.61810	0.32962
2323.68973	0.32949
2321.76136	0.32965
2319.83298	0.32948
2317.90461	0.32923
2315.97624	0.32929
2314.04787	0.32960
2312.11949	0.33032
2310.19112	0.33167
2308.26275	0.33323
2306.33437	0.33438
2304.40600	0.33513
2302.47763	0.33590
2300.54925	0.33662
2298.62088	0.33734
2296.69251	0.33844
2294.76413	0.33950
2292.83576	0.33995
2290.90739	0.34022
2288.97901	0.34073
2287.05064	0.34131
2285.12227	0.34184
2283.19389	0.34236
2281.26552	0.34293
2279.33715	0.34354
2277.40877	0.34396
2275.48040	0.34422
2273.55203	0.34450
2271.62365	0.34475
2269.69528	0.34500
2267.76691	0.34529
2265.83853	0.34547
2263.91016	0.34556
2261.98179	0.34561
2260.05342	0.34558
2258.12504	0.34540
2256.19667	0.34536
2254.26830	0.34574
2252.33992	0.34640
2250.41155	0.34699
2248.48318	0.34745
2246.55480	0.34782
2244.62643	0.34812
2242.69806	0.34833
2240.76968	0.34821
2238.84131	0.34780
2236.91294	0.34757
2234.98456	0.34763
2233.05619	0.34758
2231.12782	0.34739
2229.19944	0.34733
2227.27107	0.34737
2225.34270	0.34728
2223.41432	0.34706
2221.48595	0.34678
2219.55758	0.34647
2217.62920	0.34617
2215.70083	0.34590
2213.77246	0.34575
2211.84408	0.34578
2209.91571	0.34579
2207.98734	0.34555
2206.05896	0.34521
2204.13059	0.34512
2202.20222	0.34518
2200.27385	0.34499
2198.34547	0.34463
2196.41710	0.34450
2194.48873	0.34462
2192.56035	0.34480
2190.63198	0.34481
2188.70361	0.34471
2186.77523	0.34467
2184.84686	0.34469
2182.91849	0.34480
2180.99011	0.34489
2179.06174	0.34482
2177.13337	0.34477
2175.20499	0.34478
2173.27662	0.34472
2171.34825	0.34468
2169.41987	0.34469
2167.49150	0.34460
2165.56313	0.34441
2163.63475	0.34421
2161.70638	0.34395
2159.77801	0.34362
2157.84963	0.34342
2155.92126	0.34344
2153.99289	0.34347
2152.06451	0.34336
2150.13614	0.34323
2148.20777	0.34319
2146.27940	0.34316
2144.35102	0.34299
2142.42265	0.34279
2140.49428	0.34272
2138.56590	0.34260
2136.63753	0.34231
2134.70916	0.34191
2132.78078	0.34154
2130.85241	0.34143
2128.92404	0.34157
2126.99566	0.34178
2125.06729	0.34202
2123.13892	0.34232
2121.21054	0.34266
2119.28217	0.34306
2117.35380	0.34353
2115.42542	0.34378
2113.49705	0.34373
2111.56868	0.34389
2109.64030	0.34460
2107.71193	0.34549
2105.78356	0.34595
2103.85518	0.34591
2101.92681	0.34593
2099.99844	0.34640
2098.07006	0.34704
2096.14169	0.34747
2094.21332	0.34795
2092.28494	0.34867
2090.35657	0.34928
2088.42820	0.34966
2086.49983	0.35003
2084.57145	0.35050
2082.64308	0.35091
2080.71471	0.35103
2078.78633	0.35108
2076.85796	0.35139
2074.92959	0.35186
2073.00121	0.35223
2071.07284	0.35262
2069.14447	0.35310
2067.21609	0.35369
2065.28772	0.35441
2063.35935	0.35501
2061.43097	0.35537
2059.50260	0.35578
2057.57423	0.35645
2055.64585	0.35721
2053.71748	0.35779
2051.78911	0.35835
2049.86073	0.35907
2047.93236	0.35995
2046.00399	0.36088
2044.07561	0.36161
2042.14724	0.36215
2040.21887	0.36252
2038.29049	0.36274
2036.36212	0.36306
2034.43375	0.36352
2032.50538	0.36399
2030.57700	0.36449
2028.64863	0.36488
2026.72026	0.36504
2024.79188	0.36518
2022.86351	0.36558
2020.93514	0.36620
2019.00676	0.36668
2017.07839	0.36684
2015.15002	0.36688
2013.22164	0.36700
2011.29327	0.36728
2009.36490	0.36777
2007.43652	0.36843
2005.50815	0.36924
2003.57978	0.37012
2001.65140	0.37089
1999.72303	0.37166
1997.79466	0.37240
1995.86628	0.37304
1993.93791	0.37398
1992.00954	0.37516
1990.08116	0.37605
1988.15279	0.37665
1986.22442	0.37718
1984.29604	0.37781
1982.36767	0.37865
1980.43930	0.37935
1978.51092	0.37966
1976.58255	0.37988
1974.65418	0.38038
1972.72581	0.38105
1970.79743	0.38195
1968.86906	0.38328
1966.94069	0.38452
1965.01231	0.38510
1963.08394	0.38544
1961.15557	0.38583
1959.22719	0.38618
1957.29882	0.38672
1955.37045	0.38737
1953.44207	0.38791
1951.51370	0.38841
1949.58533	0.38898
1947.65695	0.38969
1945.72858	0.39047
1943.80021	0.39126
1941.87183	0.39170
1939.94346	0.39152
1938.01509	0.39128
1936.08671	0.39128
1934.15834	0.39141
1932.22997	0.39151
1930.30159	0.39141
1928.37322	0.39124
1926.44485	0.39148
1924.51647	0.39220
1922.58810	0.39269
1920.65973	0.39266
1918.73135	0.39266
1916.80298	0.39242
1914.87461	0.39180
1912.94624	0.39164
1911.01786	0.39221
1909.08949	0.39280
1907.16112	0.39268
1905.23274	0.39223
1903.30437	0.39213
1901.37600	0.39248
1899.44762	0.39298
1897.51925	0.39341
1895.59088	0.39377
1893.66250	0.39424
1891.73413	0.39526
1889.80576	0.39646
1887.87738	0.39673
1885.94901	0.39655
1884.02064	0.39674
1882.09226	0.39717
1880.16389	0.39784
1878.23552	0.39854
1876.30714	0.39905
1874.37877	0.39960
1872.45040	0.40073
1870.52202	0.40267
1868.59365	0.40418
1866.66528	0.40356
1864.73690	0.40195
1862.80853	0.40110
1860.88016	0.40085
1858.95179	0.40040
1857.02341	0.39971
1855.09504	0.39917
1853.16667	0.39889
1851.23829	0.39883
1849.30992	0.39898
1847.38155	0.39935
1845.45317	0.39950
1843.52480	0.39845
1841.59643	0.39649
1839.66805	0.39500
1837.73968	0.39412
1835.81131	0.39338
1833.88293	0.39297
1831.95456	0.39344
1830.02619	0.39385
1828.09781	0.39273
1826.16944	0.39129
1824.24107	0.39012
1822.31269	0.38853
1820.38432	0.38698
1818.45595	0.38585
1816.52757	0.38492
1814.59920	0.38432
1812.67083	0.38430
1810.74245	0.38417
1808.81408	0.38318
1806.88571	0.38198
1804.95733	0.38127
1803.02896	0.38119
1801.10059	0.38108
1799.17222	0.37980
1797.24384	0.37790
1795.31547	0.37673
1793.38710	0.37596
1791.45872	0.37346
1789.53035	0.36937
1787.60198	0.36588
1785.67360	0.36299
1783.74523	0.36016
1781.81686	0.35738
1779.88848	0.35431
1777.96011	0.35107
1776.03174	0.34870
1774.10336	0.34734
1772.17499	0.34484
1770.24662	0.33962
1768.31824	0.33392
1766.38987	0.32912
1764.46150	0.32542
1762.53312	0.32160
1760.60475	0.31633
1758.67638	0.31067
1756.74800	0.30476
1754.81963	0.29881
1752.89126	0.29364
1750.96288	0.28764
1749.03451	0.27894
1747.10614	0.26914
1745.17777	0.25965
1743.24939	0.25009
1741.32102	0.23961
1739.39265	0.22799
1737.46427	0.21836
1735.53590	0.21054
1733.60753	0.19916
1731.67915	0.18609
1729.75078	0.17477
1727.82241	0.16386
1725.89403	0.15369
1723.96566	0.14330
1722.03729	0.13313
1720.10891	0.12458
1718.18054	0.11439
1716.25217	0.09971
1714.32379	0.08636
1712.39542	0.07573
1710.46705	0.06552
1708.53867	0.05480
1706.61030	0.04284
1704.68193	0.03100
1702.75355	0.02214
1700.82518	0.01454
1698.89681	0.00743
1696.96843	0.00373
1695.04006	0.00210
1693.11169	0.00147
1691.18331	0.00113
1689.25494	0.00076
1687.32657	0.00116
1685.39820	0.00140
1683.46982	0.00139
1681.54145	0.00088
1679.61308	0.00045
1677.68470	0.00044
1675.75633	0.00118
1673.82796	0.00147
1671.89958	0.00125
1669.97121	0.00088
1668.04284	0.00057
1666.11446	0.00064
1664.18609	0.00099
1662.25772	0.00115
1660.32934	0.00083
1658.40097	0.00061
1656.47260	0.00080
1654.54422	0.00128
1652.61585	0.00151
1650.68748	0.00074
1648.75910	0.00032
1646.83073	0.00064
1644.90236	0.00108
1642.97398	0.00099
1641.04561	0.00074
1639.11724	0.00065
1637.18886	0.00065
1635.26049	0.00107
1633.33212	0.00094
1631.40375	0.00086
1629.47537	0.00065
1627.54700	0.00073
1625.61863	0.00083
1623.69025	0.00079
1621.76188	0.00104
1619.83351	0.00117
1617.90513	0.00102
1615.97676	0.00075
1614.04839	0.00062
1612.12001	0.00049
1610.19164	0.00030
1608.26327	0.00036
1606.33489	0.00031
1604.40652	0.00032
1602.47815	0.00034
1600.54977	0.00048
1598.62140	0.00078
1596.69303	0.00087
1594.76465	0.00063
1592.83628	0.00087
1590.90791	0.00075
1588.97953	0.00054
1587.05116	0.00063
1585.12279	0.00069
1583.19441	0.00059
1581.26604	0.00053
1579.33767	0.00065
1577.40929	0.00086
1575.48092	0.00087
1573.55255	0.00062
1571.62418	0.00036
1569.69580	0.00044
1567.76743	0.00058
1565.83906	0.00048
1563.91068	0.00046
1561.98231	0.00068
1560.05394	0.00125
1558.12556	0.00166
1556.19719	0.00109
1554.26882	0.00104
1552.34044	0.00099
1550.41207	0.00047
1548.48370	0.00041
1546.55532	0.00040
1544.62695	0.00042
1542.69858	0.00082
1540.77020	0.00065
1538.84183	0.00096
1536.91346	0.00104
1534.98508	0.00086
1533.05671	0.00072
1531.12834	0.00088
1529.19996	0.00100
1527.27159	0.00109
1525.34322	0.00108
1523.41484	0.00093
1521.48647	0.00070
1519.55810	0.00061
1517.62972	0.00053
1515.70135	0.00040
1513.77298	0.00047
1511.84461	0.00086
1509.91623	0.00133
1507.98786	0.00155
1506.05949	0.00090
1504.13111	0.00092
1502.20274	0.00058
1500.27437	0.00056
1498.34599	0.00088
1496.41762	0.00167
1494.48925	0.00234
1492.56087	0.00296
1490.63250	0.00400
1488.70413	0.00544
1486.77575	0.00653
1484.84738	0.00720
1482.91901	0.00766
1480.99063	0.00794
1479.06226	0.00806
1477.13389	0.00800
1475.20551	0.00761
1473.27714	0.00674
1471.34877	0.00574
1469.42039	0.00520
1467.49202	0.00486
1465.56365	0.00448
1463.63527	0.00399
1461.70690	0.00361
1459.77853	0.00342
1457.85016	0.00313
1455.92178	0.00242
1453.99341	0.00203
1452.06504	0.00168
1450.13666	0.00123
1448.20829	0.00104
1446.27992	0.00100
1444.35154	0.00109
1442.42317	0.00136
1440.49480	0.00162
1438.56642	0.00183
1436.63805	0.00201
1434.70968	0.00214
1432.78130	0.00233
1430.85293	0.00260
1428.92456	0.00288
1426.99618	0.00303
1425.06781	0.00277
1423.13944	0.00237
1421.21106	0.00238
1419.28269	0.00253
1417.35432	0.00222
1415.42594	0.00175
1413.49757	0.00179
1411.56920	0.00212
1409.64082	0.00230
1407.71245	0.00230
1405.78408	0.00233
1403.85570	0.00228
1401.92733	0.00206
1399.99896	0.00178
1398.07059	0.00147
1396.14221	0.00133
1394.21384	0.00134
1392.28547	0.00144
1390.35709	0.00177
1388.42872	0.00201
1386.50035	0.00155
1384.57197	0.00074
1382.64360	0.00089
1380.71523	0.00085
1378.78685	0.00050
1376.85848	0.00056
1374.93011	0.00048
1373.00173	0.00042
1371.07336	0.00082
1369.14499	0.00138
1367.21661	0.00222
1365.28824	0.00323
1363.35987	0.00415
1361.43149	0.00510
1359.50312	0.00639
1357.57475	0.00798
1355.64637	0.00934
1353.71800	0.01021
1351.78963	0.01083
1349.86125	0.01115
1347.93288	0.01120
1346.00451	0.01110
1344.07614	0.01063
1342.14776	0.00993
1340.21939	0.00937
1338.29102	0.00874
1336.36264	0.00782
1334.43427	0.00675
1332.50590	0.00562
1330.57752	0.00446
1328.64915	0.00364
1326.72078	0.00342
1324.79240	0.00341
1322.86403	0.00325
1320.93566	0.00311
1319.00728	0.00303
1317.07891	0.00280
1315.15054	0.00271
1313.22216	0.00303
1311.29379	0.00346
1309.36542	0.00360
1307.43704	0.00329
1305.50867	0.00293
1303.58030	0.00317
1301.65192	0.00368
1299.72355	0.00406
1297.79518	0.00418
1295.86680	0.00389
1293.93843	0.00365
1292.01006	0.00365
1290.08168	0.00378
1288.15331	0.00375
1286.22494	0.00343
1284.29657	0.00317
1282.36819	0.00328
1280.43982	0.00345
1278.51145	0.00342
1276.58307	0.00325
1274.65470	0.00319
1272.72633	0.00330
1270.79795	0.00340
1268.86958	0.00347
1266.94121	0.00346
1265.01283	0.00296
1263.08446	0.00238
1261.15609	0.00272
1259.22771	0.00312
1257.29934	0.00328
1255.37097	0.00315
1253.44259	0.00302
1251.51422	0.00293
1249.58585	0.00273
1247.65747	0.00272
1245.72910	0.00308
1243.80073	0.00354
1241.87235	0.00383
1239.94398	0.00414
1238.01561	0.00460
1236.08723	0.00484
1234.15886	0.00503
1232.23049	0.00556
1230.30212	0.00623
1228.37374	0.00682
1226.44537	0.00717
1224.51700	0.00781
1222.58862	0.00920
1220.66025	0.01100
1218.73188	0.01229
1216.80350	0.01255
1214.87513	0.01241
1212.94676	0.01218
1211.01838	0.01141
1209.09001	0.01024
1207.16164	0.00959
1205.23326	0.01008
1203.30489	0.01143
1201.37652	0.01307
1199.44814	0.01507
1197.51977	0.01791
1195.59140	0.02145
1193.66302	0.02456
1191.73465	0.02627
1189.80628	0.02666
1187.87790	0.02657
1185.94953	0.02639
1184.02116	0.02561
1182.09278	0.02376
1180.16441	0.02121
1178.23604	0.01887
1176.30766	0.01676
1174.37929	0.01405
1172.45092	0.01044
1170.52255	0.00650
1168.59417	0.00339
1166.66580	0.00170
1164.73743	0.00085
1162.80905	0.00080
1160.88068	0.00128
1158.95231	0.00146
1157.02393	0.00095
1155.09556	0.00046
1153.16719	0.00165
1151.23881	0.00356
1149.31044	0.00499
1147.38207	0.00595
1145.45369	0.00779
1143.52532	0.01088
1141.59695	0.01387
1139.66857	0.01570
1137.74020	0.01629
1135.81183	0.01588
1133.88345	0.01452
1131.95508	0.01200
1130.02671	0.00856
1128.09833	0.00534
1126.16996	0.00333
1124.24159	0.00246
1122.31321	0.00199
1120.38484	0.00139
1118.45647	0.00137
1116.52809	0.00165
1114.59972	0.00194
1112.67135	0.00250
1110.74298	0.00302
1108.81460	0.00307
1106.88623	0.00334
1104.95786	0.00401
1103.02948	0.00493
1101.10111	0.00509
1099.17274	0.00386
1097.24436	0.00213
1095.31599	0.00137
1093.38762	0.00158
1091.45924	0.00188
1089.53087	0.00181
1087.60250	0.00175
1085.67412	0.00125
1083.74575	0.00143
1081.81738	0.00152
1079.88900	0.00151
1077.96063	0.00144
1076.03226	0.00141
1074.10388	0.00146
1072.17551	0.00142
1070.24714	0.00146
1068.31876	0.00210
1066.39039	0.00245
1064.46202	0.00230
1062.53364	0.00239
1060.60527	0.00283
1058.67690	0.00325
1056.74853	0.00364
1054.82015	0.00413
1052.89178	0.00457
1050.96341	0.00575
1049.03503	0.00617
1047.10666	0.00509
1045.17829	0.00345
1043.24991	0.00199
1041.32154	0.00112
1039.39317	0.00122
1037.46479	0.00090
1035.53642	0.00046
1033.60805	0.00109
1031.67967	0.00096
1029.75130	0.00163
1027.82293	0.00199
1025.89455	0.00142
1023.96618	0.00064
1022.03781	0.00060
1020.10943	0.00100
1018.18106	0.00093
1016.25269	0.00103
1014.32431	0.00174
1012.39594	0.00245
1010.46757	0.00362
1008.53919	0.00583
1006.61082	0.00851
1004.68245	0.01185
1002.75407	0.01672
1000.82570	0.02248
998.89733	0.02780
996.96896	0.03250
995.04058	0.03688
993.11221	0.04116
991.18384	0.04600
989.25546	0.05147
987.32709	0.05624
985.39872	0.05881
983.47034	0.05867
981.54197	0.05638
979.61360	0.05287
977.68522	0.04930
975.75685	0.04733
973.82848	0.04830
971.90010	0.05242
969.97173	0.05892
968.04336	0.06662
966.11498	0.07381
964.18661	0.07806
962.25824	0.07675
960.32986	0.06841
958.40149	0.05526
956.47312	0.04333
954.54474	0.03823
952.61637	0.04103
950.68800	0.04932
948.75962	0.06027
946.83125	0.07184
944.90288	0.08258
942.97451	0.09171
941.04613	0.09940
939.11776	0.10635
937.18939	0.11270
935.26101	0.11820
933.33264	0.12267
931.40427	0.12599
929.47589	0.12824
927.54752	0.12962
925.61915	0.13006
923.69077	0.12949
921.76240	0.12879
919.83403	0.12991
917.90565	0.13318
915.97728	0.13714
914.04891	0.14056
912.12053	0.14192
910.19216	0.14006
908.26379	0.13544
906.33541	0.12868
904.40704	0.12008
902.47867	0.11107
900.55029	0.10349
898.62192	0.09804
896.69355	0.09484
894.76517	0.09405
892.83680	0.09606
890.90843	0.10103
888.98005	0.10792
887.05168	0.11543
885.12331	0.12258
883.19494	0.12810
881.26656	0.13135
879.33819	0.13329
877.40982	0.13486
875.48144	0.13590
873.55307	0.13612
871.62470	0.13594
869.69632	0.13594
867.76795	0.13580
865.83958	0.13531
863.91120	0.13483
861.98283	0.13434
860.05446	0.13342
858.12608	0.13172
856.19771	0.12929
854.26934	0.12726
852.34096	0.12646
850.41259	0.12589
848.48422	0.12458
846.55584	0.12292
844.62747	0.12108
842.69910	0.11843
840.77072	0.11465
838.84235	0.11004
836.91398	0.10503
834.98560	0.10005
833.05723	0.09559
831.12886	0.09182
829.20049	0.08853
827.27211	0.08541
825.34374	0.08213
823.41537	0.07924
821.48699	0.07744
819.55862	0.07600
817.63025	0.07439
815.70187	0.07283
813.77350	0.07124
811.84513	0.07018
809.91675	0.07024
807.98838	0.07025
806.06001	0.06865
804.13163	0.06632
802.20326	0.06503
800.27489	0.06456
798.34651	0.06459
796.41814	0.06483
794.48977	0.06403
792.56139	0.06238
790.63302	0.06053
788.70465	0.05775
786.77627	0.05432
784.84790	0.05164
782.91953	0.04953
780.99115	0.04698
779.06278	0.04482
777.13441	0.04337
775.20603	0.04116
773.27766	0.03786
771.34929	0.03452
769.42092	0.03216
767.49254	0.03081
765.56417	0.02989
763.63580	0.02899
761.70742	0.02805
759.77905	0.02749
757.85068	0.02695
755.92230	0.02528
753.99393	0.02321
752.06556	0.02235
750.13718	0.02152
748.20881	0.01977
746.28044	0.01883
744.35206	0.01902
742.42369	0.01929
740.49532	0.01944
738.56694	0.01942
736.63857	0.01897
734.71020	0.01851
732.78182	0.01824
730.85345	0.01782
728.92508	0.01677
726.99670	0.01509
725.06833	0.01412
723.13996	0.01463
721.21158	0.01592
719.28321	0.01675
717.35484	0.01664
715.42647	0.01625
713.49809	0.01595
711.56972	0.01522
709.64135	0.01388
707.71297	0.01205
705.78460	0.01032
703.85623	0.00945
701.92785	0.00982
699.99948	0.01104
698.07111	0.01241
696.14273	0.01331
694.21436	0.01412
692.28599	0.01511
690.35761	0.01514
688.42924	0.01330
686.50087	0.01157
684.57249	0.01155
682.64412	0.01355
680.71575	0.01578
678.78737	0.01668
676.85900	0.01625
674.93063	0.01636
673.00225	0.01685
671.07388	0.01613
669.14551	0.01365
667.21713	0.01090
665.28876	0.01110
663.36039	0.01251
661.43201	0.01320
659.50364	0.01253
657.57527	0.01245
655.64690	0.01441
653.71852	0.01441
651.79015	0.01217
649.86178	0.01103
647.93340	0.01163
646.00503	0.01310
644.07666	0.01417
642.14828	0.01431
640.21991	0.01311
638.29154	0.01142
636.36316	0.01147
634.43479	0.01041
632.50642	0.00860
630.57804	0.00803
628.64967	0.00706
626.72130	0.00628
624.79292	0.00584
622.86455	0.00496
620.93618	0.00598
619.00780	0.00902
617.07943	0.00958
615.15106	0.00815
613.22268	0.00707
611.29431	0.00303
609.36594	0.00547
607.43756	0.01044
605.50919	0.01288
603.58082	0.01429
601.65244	0.01698
599.72407	0.01829
