3997.51769	0.27913
3995.58931	0.27911
3993.66094	0.27911
3991.73257	0.27907
3989.80419	0.27922
3987.87582	0.27951
3985.94745	0.27970
3984.01907	0.27987
3982.09070	0.28030
3980.16233	0.28101
3978.23396	0.28170
3976.30558	0.28217
3974.37721	0.28234
3972.44884	0.28220
3970.52046	0.28190
3968.59209	0.28172
3966.66372	0.28187
3964.73534	0.28237
3962.80697	0.28321
3960.87860	0.28391
3958.95022	0.28401
3957.02185	0.28397
3955.09348	0.28446
3953.16510	0.28535
3951.23673	0.28621
3949.30836	0.28684
3947.37998	0.28705
3945.45161	0.28700
3943.52324	0.28707
3941.59486	0.28729
3939.66649	0.28761
3937.73812	0.28797
3935.80974	0.28845
3933.88137	0.28926
3931.95300	0.29006
3930.02462	0.29013
3928.09625	0.28997
3926.16788	0.29039
3924.23950	0.29095
3922.31113	0.29106
3920.38276	0.29105
3918.45439	0.29139
3916.52601	0.29182
3914.59764	0.29191
3912.66927	0.29183
3910.74089	0.29180
3908.81252	0.29218
3906.88415	0.29353
3904.95577	0.29598
3903.02740	0.29825
3901.09903	0.29852
3899.17065	0.29718
3897.24228	0.29600
3895.31391	0.29596
3893.38553	0.29700
3891.45716	0.29825
3889.52879	0.29876
3887.60041	0.29922
3885.67204	0.30022
3883.74367	0.30096
3881.81529	0.30131
3879.88692	0.30131
3877.95855	0.30077
3876.03017	0.30075
3874.10180	0.30175
3872.17343	0.30355
3870.24505	0.30522
3868.31668	0.30509
3866.38831	0.30461
3864.45994	0.30518
3862.53156	0.30506
3860.60319	0.30429
3858.67482	0.30466
3856.74644	0.30602
3854.81807	0.30800
3852.88970	0.30885
3850.96132	0.30673
3849.03295	0.30515
3847.10458	0.30507
3845.17620	0.30569
3843.24783	0.30672
3841.31946	0.30798
3839.39108	0.30869
3837.46271	0.30846
3835.53434	0.30815
3833.60596	0.30812
3831.67759	0.30790
3829.74922	0.30746
3827.82084	0.30738
3825.89247	0.30769
3823.96410	0.30840
3822.03572	0.30980
3820.10735	0.31047
3818.17898	0.31009
3816.25060	0.30999
3814.32223	0.30914
3812.39386	0.30765
3810.46548	0.30706
3808.53711	0.30797
3806.60874	0.30953
3804.68037	0.31066
3802.75199	0.31189
3800.82362	0.31215
3798.89525	0.31101
3796.96687	0.31038
3795.03850	0.30960
3793.11013	0.30821
3791.18175	0.30732
3789.25338	0.30741
3787.32501	0.30794
3785.39663	0.30817
3783.46826	0.30808
3781.53989	0.30830
3779.61151	0.30872
3777.68314	0.30838
3775.75477	0.30771
3773.82639	0.30788
3771.89802	0.30901
3769.96965	0.31014
3768.04127	0.31010
3766.11290	0.30930
3764.18453	0.30854
3762.25615	0.30852
3760.32778	0.30946
3758.39941	0.30997
3756.47103	0.30938
3754.54266	0.30928
3752.61429	0.31072
3750.68591	0.31235
3748.75754	0.31192
3746.82917	0.31119
3744.90080	0.31125
3742.97242	0.31077
3741.04405	0.30950
3739.11568	0.30913
3737.18730	0.31055
3735.25893	0.31208
3733.33056	0.31068
3731.40218	0.30763
3729.47381	0.30570
3727.54544	0.30528
3725.61706	0.30535
3723.68869	0.30472
3721.76032	0.30335
3719.83194	0.30189
3717.90357	0.30079
3715.97520	0.30018
3714.04682	0.30042
3712.11845	0.30143
3710.19008	0.30051
3708.26170	0.29690
3706.33333	0.29354
3704.40496	0.29175
3702.47658	0.29095
3700.54821	0.28936
3698.61984	0.28692
3696.69146	0.28476
3694.76309	0.28345
3692.83472	0.28281
3690.90635	0.28147
3688.97797	0.27744
3687.04960	0.27186
3685.12123	0.26742
3683.19285	0.26370
3681.26448	0.25987
3679.33611	0.25616
3677.40773	0.25266
3675.47936	0.24757
3673.55099	0.24112
3671.62261	0.23573
3669.69424	0.22905
3667.76587	0.22090
3665.83749	0.21366
3663.90912	0.20656
3661.98075	0.19959
3660.05237	0.19349
3658.12400	0.18775
3656.19563	0.18082
3654.26725	0.17387
3652.33888	0.16868
3650.41051	0.16342
3648.48213	0.15546
3646.55376	0.14654
3644.62539	0.13921
3642.69701	0.13278
3640.76864	0.12633
3638.84027	0.11988
3636.91189	0.11411
3634.98352	0.10900
3633.05515	0.10428
3631.12678	0.10023
3629.19840	0.09525
3627.27003	0.08892
3625.34166	0.08448
3623.41328	0.08112
3621.48491	0.07757
3619.55654	0.07362
3617.62816	0.06929
3615.69979	0.06537
3613.77142	0.06200
3611.84304	0.05855
3609.91467	0.05512
3607.98630	0.05203
3606.05792	0.04917
3604.12955	0.04648
3602.20118	0.04385
3600.27280	0.04163
3598.34443	0.03979
3596.41606	0.03758
3594.48768	0.03505
3592.55931	0.03291
3590.63094	0.03129
3588.70256	0.02968
3586.77419	0.02789
3584.84582	0.02592
3582.91744	0.02388
3580.98907	0.02199
3579.06070	0.02035
3577.13233	0.01915
3575.20395	0.01827
3573.27558	0.01725
3571.34721	0.01602
3569.41883	0.01494
3567.49046	0.01416
3565.56209	0.01323
3563.63371	0.01198
3561.70534	0.01077
3559.77697	0.00994
3557.84859	0.00956
3555.92022	0.00912
3553.99185	0.00823
3552.06347	0.00713
3550.13510	0.00637
3548.20673	0.00595
3546.27835	0.00559
3544.34998	0.00509
3542.42161	0.00438
3540.49323	0.00388
3538.56486	0.00384
3536.63649	0.00419
3534.70811	0.00418
3532.77974	0.00358
3530.85137	0.00303
3528.92299	0.00265
3526.99462	0.00225
3525.06625	0.00186
3523.13787	0.00166
3521.20950	0.00163
3519.28113	0.00142
3517.35276	0.00137
3515.42438	0.00170
3513.49601	0.00145
3511.56764	0.00072
3509.63926	0.00053
3507.71089	0.00043
3505.78252	0.00020
3503.85414	0.00022
3501.92577	0.00056
3499.99740	0.00084
3498.06902	0.00081
3496.14065	0.00055
3494.21228	0.00054
3492.28390	0.00061
3490.35553	0.00061
3488.42716	0.00068
3486.49878	0.00038
3484.57041	0.00067
3482.64204	0.00137
3480.71366	0.00119
3478.78529	0.00088
3476.85692	0.00084
3474.92854	0.00096
3473.00017	0.00079
3471.07180	0.00052
3469.14342	0.00070
3467.21505	0.00135
3465.28668	0.00152
3463.35831	0.00144
3461.42993	0.00153
3459.50156	0.00138
3457.57319	0.00089
3455.64481	0.00091
3453.71644	0.00115
3451.78807	0.00110
3449.85969	0.00061
3447.93132	0.00083
3446.00295	0.00100
3444.07457	0.00083
3442.14620	0.00053
3440.21783	0.00064
3438.28945	0.00072
3436.36108	0.00076
3434.43271	0.00083
3432.50433	0.00056
3430.57596	0.00047
3428.64759	0.00094
3426.71921	0.00103
3424.79084	0.00076
3422.86247	0.00051
3420.93409	0.00045
3419.00572	0.00062
3417.07735	0.00037
3415.14897	0.00035
3413.22060	0.00073
3411.29223	0.00099
3409.36385	0.00125
3407.43548	0.00090
3405.50711	0.00040
3403.57874	0.00091
3401.65036	0.00138
3399.72199	0.00132
3397.79362	0.00093
3395.86524	0.00080
3393.93687	0.00092
3392.00850	0.00059
3390.08012	0.00040
3388.15175	0.00077
3386.22338	0.00074
3384.29500	0.00084
3382.36663	0.00110
3380.43826	0.00128
3378.50988	0.00082
3376.58151	0.00063
3374.65314	0.00048
3372.72476	0.00062
3370.79639	0.00101
3368.86802	0.00113
3366.93964	0.00105
3365.01127	0.00062
3363.08290	0.00044
3361.15452	0.00062
3359.22615	0.00099
3357.29778	0.00163
3355.36940	0.00177
3353.44103	0.00137
3351.51266	0.00051
3349.58428	0.00061
3347.65591	0.00129
3345.72754	0.00170
3343.79917	0.00182
3341.87079	0.00139
3339.94242	0.00080
3338.01405	0.00079
3336.08567	0.00071
3334.15730	0.00056
3332.22893	0.00055
3330.30055	0.00093
3328.37218	0.00082
3326.44381	0.00074
3324.51543	0.00085
3322.58706	0.00068
3320.65869	0.00078
3318.73031	0.00094
3316.80194	0.00083
3314.87357	0.00085
3312.94519	0.00102
3311.01682	0.00090
3309.08845	0.00053
3307.16007	0.00049
3305.23170	0.00061
3303.30333	0.00082
3301.37495	0.00057
3299.44658	0.00041
3297.51821	0.00030
3295.58983	0.00046
3293.66146	0.00076
3291.73309	0.00080
3289.80472	0.00076
3287.87634	0.00047
3285.94797	0.00063
3284.01960	0.00072
3282.09122	0.00053
3280.16285	0.00099
3278.23448	0.00132
3276.30610	0.00106
3274.37773	0.00100
3272.44936	0.00119
3270.52098	0.00112
3268.59261	0.00075
3266.66424	0.00058
3264.73586	0.00077
3262.80749	0.00081
3260.87912	0.00079
3258.95074	0.00105
3257.02237	0.00107
3255.09400	0.00084
3253.16562	0.00094
3251.23725	0.00088
3249.30888	0.00051
3247.38050	0.00055
3245.45213	0.00081
3243.52376	0.00075
3241.59538	0.00076
3239.66701	0.00072
3237.73864	0.00040
3235.81026	0.00065
3233.88189	0.00082
3231.95352	0.00085
3230.02515	0.00082
3228.09677	0.00062
3226.16840	0.00043
3224.24003	0.00033
3222.31165	0.00045
3220.38328	0.00082
3218.45491	0.00087
3216.52653	0.00079
3214.59816	0.00082
3212.66979	0.00079
3210.74141	0.00073
3208.81304	0.00077
3206.88467	0.00087
3204.95629	0.00033
3203.02792	0.00088
3201.09955	0.00071
3199.17117	0.00102
3197.24280	0.00149
3195.31443	0.00093
3193.38605	0.00041
3191.45768	0.00065
3189.52931	0.00062
3187.60093	0.00073
3185.67256	0.00132
3183.74419	0.00173
3181.81581	0.00143
3179.88744	0.00063
3177.95907	0.00055
3176.03070	0.00077
3174.10232	0.00083
3172.17395	0.00068
3170.24558	0.00108
3168.31720	0.00138
3166.38883	0.00124
3164.46046	0.00079
3162.53208	0.00096
3160.60371	0.00180
3158.67534	0.00214
3156.74696	0.00173
3154.81859	0.00139
3152.89022	0.00158
3150.96184	0.00181
3149.03347	0.00166
3147.10510	0.00106
3145.17672	0.00068
3143.24835	0.00078
3141.31998	0.00109
3139.39160	0.00128
3137.46323	0.00148
3135.53486	0.00166
3133.60648	0.00164
3131.67811	0.00154
3129.74974	0.00154
3127.82136	0.00139
3125.89299	0.00123
3123.96462	0.00147
3122.03624	0.00180
3120.10787	0.00173
3118.17950	0.00136
3116.25113	0.00102
3114.32275	0.00102
3112.39438	0.00127
3110.46601	0.00136
3108.53763	0.00122
3106.60926	0.00110
3104.68089	0.00102
3102.75251	0.00102
3100.82414	0.00122
3098.89577	0.00131
3096.96739	0.00137
3095.03902	0.00142
3093.11065	0.00121
3091.18227	0.00116
3089.25390	0.00131
3087.32553	0.00147
3085.39715	0.00163
3083.46878	0.00169
3081.54041	0.00162
3079.61203	0.00160
3077.68366	0.00150
3075.75529	0.00120
3073.82691	0.00111
3071.89854	0.00104
3069.97017	0.00102
3068.04179	0.00108
3066.11342	0.00145
3064.18505	0.00196
3062.25668	0.00234
3060.32830	0.00248
3058.39993	0.00244
3056.47156	0.00236
3054.54318	0.00234
3052.61481	0.00265
3050.68644	0.00301
3048.75806	0.00303
3046.82969	0.00299
3044.90132	0.00330
3042.97294	0.00366
3041.04457	0.00368
3039.11620	0.00354
3037.18782	0.00378
3035.25945	0.00436
3033.33108	0.00445
3031.40270	0.00401
3029.47433	0.00398
3027.54596	0.00446
3025.61758	0.00487
3023.68921	0.00509
3021.76084	0.00513
3019.83246	0.00513
3017.90409	0.00530
3015.97572	0.00554
3014.04734	0.00578
3012.11897	0.00604
3010.19060	0.00636
3008.26222	0.00678
3006.33385	0.00715
3004.40548	0.00725
3002.47711	0.00712
3000.54873	0.00689
2998.62036	0.00660
2996.69199	0.00652
2994.76361	0.00666
2992.83524	0.00663
2990.90687	0.00625
2988.97849	0.00579
2987.05012	0.00533
2985.12175	0.00478
2983.19337	0.00427
2981.26500	0.00393
2979.33663	0.00369
2977.40825	0.00346
2975.47988	0.00332
2973.55151	0.00335
2971.62313	0.00341
2969.69476	0.00337
2967.76639	0.00297
2965.83801	0.00208
2963.90964	0.00142
2961.98127	0.00163
2960.05289	0.00191
2958.12452	0.00178
2956.19615	0.00186
2954.26777	0.00254
2952.33940	0.00304
2950.41103	0.00300
2948.48266	0.00300
2946.55428	0.00334
2944.62591	0.00353
2942.69754	0.00339
2940.76916	0.00340
2938.84079	0.00348
2936.91242	0.00332
2934.98404	0.00300
2933.05567	0.00299
2931.12730	0.00322
2929.19892	0.00311
2927.27055	0.00280
2925.34218	0.00297
2923.41380	0.00321
2921.48543	0.00307
2919.55706	0.00294
2917.62868	0.00336
2915.70031	0.00416
2913.77194	0.00473
2911.84356	0.00495
2909.91519	0.00526
2907.98682	0.00565
2906.05844	0.00604
2904.13007	0.00646
2902.20170	0.00680
2900.27332	0.00700
2898.34495	0.00708
2896.41658	0.00675
2894.48820	0.00625
2892.55983	0.00628
2890.63146	0.00682
2888.70309	0.00722
2886.77471	0.00725
2884.84634	0.00700
2882.91797	0.00656
2880.98959	0.00617
2879.06122	0.00612
2877.13285	0.00632
2875.20447	0.00656
2873.27610	0.00715
2871.34773	0.00795
2869.41935	0.00859
2867.49098	0.00918
2865.56261	0.00989
2863.63423	0.01053
2861.70586	0.01095
2859.77749	0.01159
2857.84911	0.01246
2855.92074	0.01300
2853.99237	0.01319
2852.06399	0.01363
2850.13562	0.01456
2848.20725	0.01566
2846.27887	0.01699
2844.35050	0.01862
2842.42213	0.02006
2840.49375	0.02124
2838.56538	0.02228
2836.63701	0.02317
2834.70863	0.02405
2832.78026	0.02489
2830.85189	0.02555
2828.92352	0.02613
2826.99514	0.02675
2825.06677	0.02733
2823.13840	0.02795
2821.21002	0.02851
2819.28165	0.02895
2817.35328	0.02957
2815.42490	0.03057
2813.49653	0.03156
2811.56816	0.03220
2809.63978	0.03278
2807.71141	0.03349
2805.78304	0.03419
2803.85466	0.03488
2801.92629	0.03579
2799.99792	0.03689
2798.06954	0.03780
2796.14117	0.03829
2794.21280	0.03878
2792.28442	0.03960
2790.35605	0.04047
2788.42768	0.04125
2786.49930	0.04210
2784.57093	0.04289
2782.64256	0.04339
2780.71418	0.04382
2778.78581	0.04436
2776.85744	0.04487
2774.92907	0.04528
2773.00069	0.04572
2771.07232	0.04638
2769.14395	0.04713
2767.21557	0.04764
2765.28720	0.04804
2763.35883	0.04876
2761.43045	0.04979
2759.50208	0.05060
2757.57371	0.05100
2755.64533	0.05148
2753.71696	0.05229
2751.78859	0.05324
2749.86021	0.05400
2747.93184	0.05437
2746.00347	0.05454
2744.07509	0.05486
2742.14672	0.05550
2740.21835	0.05615
2738.28997	0.05659
2736.36160	0.05714
2734.43323	0.05811
2732.50485	0.05907
2730.57648	0.05963
2728.64811	0.06009
2726.71973	0.06066
2724.79136	0.06128
2722.86299	0.06194
2720.93461	0.06267
2719.00624	0.06353
2717.07787	0.06454
2715.14950	0.06546
2713.22112	0.06609
2711.29275	0.06661
2709.36438	0.06742
2707.43600	0.06862
2705.50763	0.06982
2703.57926	0.07061
2701.65088	0.07120
2699.72251	0.07192
2697.79414	0.07259
2695.86576	0.07302
2693.93739	0.07331
2692.00902	0.07369
2690.08064	0.07426
2688.15227	0.07494
2686.22390	0.07580
2684.29552	0.07670
2682.36715	0.07734
2680.43878	0.07780
2678.51040	0.07842
2676.58203	0.07925
2674.65366	0.08009
2672.72528	0.08085
2670.79691	0.08149
2668.86854	0.08207
2666.94016	0.08274
2665.01179	0.08346
2663.08342	0.08397
2661.15505	0.08413
2659.22667	0.08425
2657.29830	0.08471
2655.36993	0.08534
2653.44155	0.08573
2651.51318	0.08602
2649.58481	0.08652
2647.65643	0.08703
2645.72806	0.08737
2643.79969	0.08783
2641.87131	0.08833
2639.94294	0.08863
2638.01457	0.08887
2636.08619	0.08920
2634.15782	0.08960
2632.22945	0.09006
2630.30107	0.09078
2628.37270	0.09173
2626.44433	0.09245
2624.51595	0.09290
2622.58758	0.09333
2620.65921	0.09362
2618.73083	0.09376
2616.80246	0.09402
2614.87409	0.09447
2612.94571	0.09519
2611.01734	0.09625
2609.08897	0.09734
2607.16059	0.09809
2605.23222	0.09856
2603.30385	0.09894
2601.37548	0.09927
2599.44710	0.09956
2597.51873	0.10014
2595.59036	0.10109
2593.66198	0.10195
2591.73361	0.10258
2589.80524	0.10327
2587.87686	0.10398
2585.94849	0.10440
2584.02012	0.10487
2582.09174	0.10581
2580.16337	0.10690
2578.23500	0.10774
2576.30662	0.10835
2574.37825	0.10891
2572.44988	0.10955
2570.52150	0.11038
2568.59313	0.11138
2566.66476	0.11256
2564.73638	0.11383
2562.80801	0.11506
2560.87964	0.11620
2558.95126	0.11728
2557.02289	0.11837
2555.09452	0.11946
2553.16614	0.12050
2551.23777	0.12145
2549.30940	0.12235
2547.38103	0.12321
2545.45265	0.12395
2543.52428	0.12459
2541.59591	0.12541
2539.66753	0.12637
2537.73916	0.12725
2535.81079	0.12805
2533.88241	0.12869
2531.95404	0.12914
2530.02567	0.12961
2528.09729	0.13020
2526.16892	0.13074
2524.24055	0.13125
2522.31217	0.13192
2520.38380	0.13277
2518.45543	0.13351
2516.52705	0.13399
2514.59868	0.13451
2512.67031	0.13524
2510.74193	0.13605
2508.81356	0.13691
2506.88519	0.13795
2504.95681	0.13903
2503.02844	0.13988
2501.10007	0.14048
2499.17169	0.14113
2497.24332	0.14195
2495.31495	0.14291
2493.38657	0.14390
2491.45820	0.14482
2489.52983	0.14577
2487.60146	0.14675
2485.67308	0.14765
2483.74471	0.14845
2481.81634	0.14920
2479.88796	0.15003
2477.95959	0.15107
2476.03122	0.15228
2474.10284	0.15337
2472.17447	0.15411
2470.24610	0.15483
2468.31772	0.15590
2466.38935	0.15702
2464.46098	0.15786
2462.53260	0.15875
2460.60423	0.16001
2458.67586	0.16136
2456.74748	0.16247
2454.81911	0.16336
2452.89074	0.16424
2450.96236	0.16537
2449.03399	0.16655
2447.10562	0.16748
2445.17724	0.16823
2443.24887	0.16898
2441.32050	0.16986
2439.39212	0.17084
2437.46375	0.17161
2435.53538	0.17216
2433.60700	0.17291
2431.67863	0.17402
2429.75026	0.17518
2427.82189	0.17621
2425.89351	0.17728
2423.96514	0.17824
2422.03677	0.17877
2420.10839	0.17913
2418.18002	0.17979
2416.25165	0.18065
2414.32327	0.18145
2412.39490	0.18220
2410.46653	0.18317
2408.53815	0.18439
2406.60978	0.18552
2404.68141	0.18642
2402.75303	0.18735
2400.82466	0.18843
2398.89629	0.18950
2396.96791	0.19054
2395.03954	0.19177
2393.11117	0.19312
2391.18279	0.19419
2389.25442	0.19498
2387.32605	0.19580
2385.39767	0.19662
2383.46930	0.19760
2381.54093	0.19895
2379.61255	0.20041
2377.68418	0.20168
2375.75581	0.20297
2373.82744	0.20452
2371.89906	0.20630
2369.97069	0.20807
2368.04232	0.20951
2366.11394	0.21127
2364.18557	0.21415
2362.25720	0.21672
2360.32882	0.21749
2358.40045	0.21712
2356.47208	0.21641
2354.54370	0.21508
2352.61533	0.21363
2350.68696	0.21323
2348.75858	0.21367
2346.83021	0.21454
2344.90184	0.21607
2342.97346	0.21804
2341.04509	0.21913
2339.11672	0.21960
2337.18834	0.22077
2335.25997	0.22153
2333.33160	0.22079
2331.40322	0.22002
2329.47485	0.22015
2327.54648	0.22068
2325.61810	0.22116
2323.68973	0.22132
2321.76136	0.22127
2319.83298	0.22128
2317.90461	0.22139
2315.97624	0.22168
2314.04787	0.22213
2312.11949	0.22269
2310.19112	0.22345
2308.26275	0.22434
2306.33437	0.22508
2304.40600	0.22559
2302.47763	0.22607
2300.54925	0.22667
2298.62088	0.22729
2296.69251	0.22789
2294.76413	0.22847
2292.83576	0.22903
2290.90739	0.22952
2288.97901	0.22971
2287.05064	0.22970
2285.12227	0.22997
2283.19389	0.23057
2281.26552	0.23106
2279.33715	0.23142
2277.40877	0.23208
2275.48040	0.23286
2273.55203	0.23321
2271.62365	0.23323
2269.69528	0.23330
2267.76691	0.23340
2265.83853	0.23351
2263.91016	0.23364
2261.98179	0.23388
2260.05342	0.23431
2258.12504	0.23465
2256.19667	0.23486
2254.26830	0.23527
2252.33992	0.23588
2250.41155	0.23631
2248.48318	0.23640
2246.55480	0.23659
2244.62643	0.23703
2242.69806	0.23733
2240.76968	0.23743
2238.84131	0.23763
2236.91294	0.23786
2234.98456	0.23796
2233.05619	0.23805
2231.12782	0.23834
2229.19944	0.23868
2227.27107	0.23869
2225.34270	0.23844
2223.41432	0.23842
2221.48595	0.23878
2219.55758	0.23922
2217.62920	0.23942
2215.70083	0.23948
2213.77246	0.23962
2211.84408	0.23971
2209.91571	0.23973
2207.98734	0.23983
2206.05896	0.23984
2204.13059	0.23951
2202.20222	0.23903
2200.27385	0.23877
2198.34547	0.23879
2196.41710	0.23895
2194.48873	0.23906
2192.56035	0.23893
2190.63198	0.23864
2188.70361	0.23847
2186.77523	0.23850
2184.84686	0.23857
2182.91849	0.23857
2180.99011	0.23860
2179.06174	0.23873
2177.13337	0.23890
2175.20499	0.23897
2173.27662	0.23887
2171.34825	0.23870
2169.41987	0.23860
2167.49150	0.23866
2165.56313	0.23867
2163.63475	0.23844
2161.70638	0.23831
2159.77801	0.23863
2157.84963	0.23904
2155.92126	0.23902
2153.99289	0.23877
2152.06451	0.23870
2150.13614	0.23884
2148.20777	0.23907
2146.27940	0.23927
2144.35102	0.23932
2142.42265	0.23921
2140.49428	0.23901
2138.56590	0.23893
2136.63753	0.23908
2134.70916	0.23937
2132.78078	0.23971
2130.85241	0.23993
2128.92404	0.24004
2126.99566	0.24040
2125.06729	0.24102
2123.13892	0.24148
2121.21054	0.24179
2119.28217	0.24233
2117.35380	0.24308
2115.42542	0.24366
2113.49705	0.24397
2111.56868	0.24410
2109.64030	0.24435
2107.71193	0.24495
2105.78356	0.24572
2103.85518	0.24632
2101.92681	0.24661
2099.99844	0.24671
2098.07006	0.24678
2096.14169	0.24689
2094.21332	0.24705
2092.28494	0.24719
2090.35657	0.24726
2088.42820	0.24719
2086.49983	0.24709
2084.57145	0.24721
2082.64308	0.24748
2080.71471	0.24770
2078.78633	0.24780
2076.85796	0.24788
2074.92959	0.24805
2073.00121	0.24810
2071.07284	0.24805
2069.14447	0.24837
2067.21609	0.24916
2065.28772	0.24984
2063.35935	0.25007
2061.43097	0.25026
2059.50260	0.25061
2057.57423	0.25093
2055.64585	0.25130
2053.71748	0.25188
2051.78911	0.25255
2049.86073	0.25319
2047.93236	0.25402
2046.00399	0.25502
2044.07561	0.25595
2042.14724	0.25673
2040.21887	0.25737
2038.29049	0.25790
2036.36212	0.25841
2034.43375	0.25893
2032.50538	0.25946
2030.57700	0.26001
2028.64863	0.26050
2026.72026	0.26097
2024.79188	0.26152
2022.86351	0.26221
2020.93514	0.26287
2019.00676	0.26341
2017.07839	0.26403
2015.15002	0.26473
2013.22164	0.26531
2011.29327	0.26582
2009.36490	0.26642
2007.43652	0.26711
2005.50815	0.26786
2003.57978	0.26862
2001.65140	0.26933
1999.72303	0.26999
1997.79466	0.27051
1995.86628	0.27098
1993.93791	0.27158
1992.00954	0.27218
1990.08116	0.27250
1988.15279	0.27257
1986.22442	0.27251
1984.29604	0.27254
1982.36767	0.27269
1980.43930	0.27276
1978.51092	0.27282
1976.58255	0.27298
1974.65418	0.27314
1972.72581	0.27323
1970.79743	0.27343
1968.86906	0.27397
1966.94069	0.27450
1965.01231	0.27456
1963.08394	0.27454
1961.15557	0.27488
1959.22719	0.27546
1957.29882	0.27607
1955.37045	0.27664
1953.44207	0.27709
1951.51370	0.27754
1949.58533	0.27817
1947.65695	0.27895
1945.72858	0.27978
1943.80021	0.28068
1941.87183	0.28146
1939.94346	0.28178
1938.01509	0.28188
1936.08671	0.28209
1934.15834	0.28252
1932.22997	0.28307
1930.30159	0.28349
1928.37322	0.28375
1926.44485	0.28409
1924.51647	0.28484
1922.58810	0.28582
1920.65973	0.28649
1918.73135	0.28686
1916.80298	0.28688
1914.87461	0.28673
1912.94624	0.28702
1911.01786	0.28768
1909.08949	0.28815
1907.16112	0.28833
1905.23274	0.28833
1903.30437	0.28818
1901.37600	0.28817
1899.44762	0.28852
1897.51925	0.28896
1895.59088	0.28903
1893.66250	0.28877
1891.73413	0.28869
1889.80576	0.28880
1887.87738	0.28881
1885.94901	0.28879
1884.02064	0.28882
1882.09226	0.28878
1880.16389	0.28880
1878.23552	0.28894
1876.30714	0.28907
1874.37877	0.28907
1872.45040	0.28930
1870.52202	0.29020
1868.59365	0.29108
1866.66528	0.29082
1864.73690	0.29007
1862.80853	0.28972
1860.88016	0.28970
1858.95179	0.28965
1857.02341	0.28949
1855.09504	0.28934
1853.16667	0.28936
1851.23829	0.28959
1849.30992	0.29006
1847.38155	0.29068
1845.45317	0.29112
1843.52480	0.29088
1841.59643	0.29019
1839.66805	0.28989
1837.73968	0.29006
1835.81131	0.29022
1833.88293	0.29026
1831.95456	0.29057
1830.02619	0.29087
1828.09781	0.29046
1826.16944	0.28977
1824.24107	0.28902
1822.31269	0.28809
1820.38432	0.28733
1818.45595	0.28659
1816.52757	0.28568
1814.59920	0.28505
1812.67083	0.28482
1810.74245	0.28436
1808.81408	0.28325
1806.88571	0.28207
1804.95733	0.28135
1803.02896	0.28090
1801.10059	0.28007
1799.17222	0.27860
1797.24384	0.27714
1795.31547	0.27621
1793.38710	0.27536
1791.45872	0.27346
1789.53035	0.27085
1787.60198	0.26878
1785.67360	0.26716
1783.74523	0.26555
1781.81686	0.26400
1779.88848	0.26241
1777.96011	0.26080
1776.03174	0.25952
1774.10336	0.25835
1772.17499	0.25616
1770.24662	0.25277
1768.31824	0.24945
1766.38987	0.24661
1764.46150	0.24442
1762.53312	0.24191
1760.60475	0.23801
1758.67638	0.23365
1756.74800	0.22899
1754.81963	0.22401
1752.89126	0.21925
1750.96288	0.21372
1749.03451	0.20622
1747.10614	0.19749
1745.17777	0.18838
1743.24939	0.17922
1741.32102	0.17011
1739.39265	0.16098
1737.46427	0.15359
1735.53590	0.14731
1733.60753	0.13851
1731.67915	0.12921
1729.75078	0.12154
1727.82241	0.11391
1725.89403	0.10629
1723.96566	0.09847
1722.03729	0.09120
1720.10891	0.08507
1718.18054	0.07768
1716.25217	0.06741
1714.32379	0.05808
1712.39542	0.05055
1710.46705	0.04359
1708.53867	0.03656
1706.61030	0.02856
1704.68193	0.02033
1702.75355	0.01396
1700.82518	0.00864
1698.89681	0.00448
1696.96843	0.00301
1695.04006	0.00229
1693.11169	0.00166
1691.18331	0.00136
1689.25494	0.00104
1687.32657	0.00096
1685.39820	0.00115
1683.46982	0.00103
1681.54145	0.00095
1679.61308	0.00113
1677.68470	0.00087
1675.75633	0.00058
1673.82796	0.00070
1671.89958	0.00083
1669.97121	0.00095
1668.04284	0.00090
1666.11446	0.00049
1664.18609	0.00029
1662.25772	0.00048
1660.32934	0.00071
1658.40097	0.00076
1656.47260	0.00082
1654.54422	0.00102
1652.61585	0.00100
1650.68748	0.00077
1648.75910	0.00078
1646.83073	0.00074
1644.90236	0.00097
1642.97398	0.00072
1641.04561	0.00031
1639.11724	0.00067
1637.18886	0.00118
1635.26049	0.00120
1633.33212	0.00086
1631.40375	0.00054
1629.47537	0.00064
1627.54700	0.00070
1625.61863	0.00064
1623.69025	0.00036
1621.76188	0.00041
1619.83351	0.00082
1617.90513	0.00093
1615.97676	0.00070
1614.04839	0.00021
1612.12001	0.00026
1610.19164	0.00041
1608.26327	0.00049
1606.33489	0.00049
1604.40652	0.00059
1602.47815	0.00080
1600.54977	0.00099
1598.62140	0.00098
1596.69303	0.00075
1594.76465	0.00054
1592.83628	0.00070
1590.90791	0.00047
1588.97953	0.00017
1587.05116	0.00033
1585.12279	0.00055
1583.19441	0.00078
1581.26604	0.00077
1579.33767	0.00054
1577.40929	0.00067
1575.48092	0.00065
1573.55255	0.00043
1571.62418	0.00036
1569.69580	0.00040
1567.76743	0.00045
1565.83906	0.00054
1563.91068	0.00086
1561.98231	0.00104
1560.05394	0.00108
1558.12556	0.00152
1556.19719	0.00118
1554.26882	0.00085
1552.34044	0.00062
1550.41207	0.00030
1548.48370	0.00032
1546.55532	0.00077
1544.62695	0.00110
1542.69858	0.00119
1540.77020	0.00110
1538.84183	0.00089
1536.91346	0.00082
1534.98508	0.00101
1533.05671	0.00105
1531.12834	0.00094
1529.19996	0.00090
1527.27159	0.00071
1525.34322	0.00079
1523.41484	0.00130
1521.48647	0.00156
1519.55810	0.00109
1517.62972	0.00082
1515.70135	0.00073
1513.77298	0.00063
1511.84461	0.00051
1509.91623	0.00055
1507.98786	0.00067
1506.05949	0.00090
1504.13111	0.00080
1502.20274	0.00036
1500.27437	0.00073
1498.34599	0.00085
1496.41762	0.00125
1494.48925	0.00190
1492.56087	0.00247
1490.63250	0.00314
1488.70413	0.00379
1486.77575	0.00425
1484.84738	0.00474
1482.91901	0.00530
1480.99063	0.00572
1479.06226	0.00583
1477.13389	0.00582
1475.20551	0.00571
1473.27714	0.00507
1471.34877	0.00422
1469.42039	0.00370
1467.49202	0.00328
1465.56365	0.00280
1463.63527	0.00233
1461.70690	0.00201
1459.77853	0.00206
1457.85016	0.00229
1455.92178	0.00206
1453.99341	0.00163
1452.06504	0.00133
1450.13666	0.00107
1448.20829	0.00101
1446.27992	0.00122
1444.35154	0.00149
1442.42317	0.00163
1440.49480	0.00163
1438.56642	0.00145
1436.63805	0.00105
1434.70968	0.00074
1432.78130	0.00052
1430.85293	0.00061
1428.92456	0.00104
1426.99618	0.00150
1425.06781	0.00196
1423.13944	0.00207
1421.21106	0.00174
1419.28269	0.00165
1417.35432	0.00199
1415.42594	0.00194
1413.49757	0.00171
1411.56920	0.00156
1409.64082	0.00153
1407.71245	0.00132
1405.78408	0.00094
1403.85570	0.00091
1401.92733	0.00098
1399.99896	0.00110
1398.07059	0.00151
1396.14221	0.00196
1394.21384	0.00219
1392.28547	0.00212
1390.35709	0.00172
1388.42872	0.00105
1386.50035	0.00066
1384.57197	0.00078
1382.64360	0.00042
1380.71523	0.00072
1378.78685	0.00086
1376.85848	0.00033
1374.93011	0.00048
1373.00173	0.00073
1371.07336	0.00081
1369.14499	0.00066
1367.21661	0.00095
1365.28824	0.00190
1363.35987	0.00307
1361.43149	0.00411
1359.50312	0.00481
1357.57475	0.00506
1355.64637	0.00509
1353.71800	0.00544
1351.78963	0.00614
1349.86125	0.00668
1347.93288	0.00675
1346.00451	0.00661
1344.07614	0.00648
1342.14776	0.00633
1340.21939	0.00587
1338.29102	0.00509
1336.36264	0.00431
1334.43427	0.00379
1332.50590	0.00360
1330.57752	0.00344
1328.64915	0.00316
1326.72078	0.00299
1324.79240	0.00276
1322.86403	0.00226
1320.93566	0.00194
1319.00728	0.00184
1317.07891	0.00193
1315.15054	0.00221
1313.22216	0.00228
1311.29379	0.00203
1309.36542	0.00191
1307.43704	0.00207
1305.50867	0.00228
1303.58030	0.00209
1301.65192	0.00163
1299.72355	0.00138
1297.79518	0.00163
1295.86680	0.00222
1293.93843	0.00251
1292.01006	0.00210
1290.08168	0.00177
1288.15331	0.00169
1286.22494	0.00146
1284.29657	0.00157
1282.36819	0.00177
1280.43982	0.00185
1278.51145	0.00162
1276.58307	0.00126
1274.65470	0.00127
1272.72633	0.00129
1270.79795	0.00124
1268.86958	0.00110
1266.94121	0.00139
1265.01283	0.00166
1263.08446	0.00119
1261.15609	0.00074
1259.22771	0.00089
1257.29934	0.00114
1255.37097	0.00150
1253.44259	0.00201
1251.51422	0.00257
1249.58585	0.00285
1247.65747	0.00295
1245.72910	0.00277
1243.80073	0.00241
1241.87235	0.00223
1239.94398	0.00216
1238.01561	0.00237
1236.08723	0.00278
1234.15886	0.00318
1232.23049	0.00370
1230.30212	0.00455
1228.37374	0.00537
1226.44537	0.00586
1224.51700	0.00629
1222.58862	0.00692
1220.66025	0.00759
1218.73188	0.00763
1216.80350	0.00728
1214.87513	0.00757
1212.94676	0.00823
1211.01838	0.00830
1209.09001	0.00809
1207.16164	0.00801
1205.23326	0.00794
1203.30489	0.00827
1201.37652	0.00948
1199.44814	0.01170
1197.51977	0.01415
1195.59140	0.01610
1193.66302	0.01780
1191.73465	0.01908
1189.80628	0.01958
1187.87790	0.01972
1185.94953	0.01944
1184.02116	0.01824
1182.09278	0.01663
1180.16441	0.01532
1178.23604	0.01407
1176.30766	0.01245
1174.37929	0.01062
1172.45092	0.00868
1170.52255	0.00658
1168.59417	0.00473
1166.66580	0.00341
1164.73743	0.00224
1162.80905	0.00157
1160.88068	0.00146
1158.95231	0.00125
1157.02393	0.00123
1155.09556	0.00103
1153.16719	0.00086
1151.23881	0.00111
1149.31044	0.00232
1147.38207	0.00519
1145.45369	0.00769
1143.52532	0.00927
1141.59695	0.01049
1139.66857	0.01126
1137.74020	0.01140
1135.81183	0.01092
1133.88345	0.00980
1131.95508	0.00854
1130.02671	0.00745
1128.09833	0.00607
1126.16996	0.00422
1124.24159	0.00260
1122.31321	0.00179
1120.38484	0.00189
1118.45647	0.00231
1116.52809	0.00239
1114.59972	0.00220
1112.67135	0.00156
1110.74298	0.00196
1108.81460	0.00255
1106.88623	0.00312
1104.95786	0.00369
1103.02948	0.00380
1101.10111	0.00372
1099.17274	0.00330
1097.24436	0.00283
1095.31599	0.00248
1093.38762	0.00254
1091.45924	0.00284
1089.53087	0.00223
1087.60250	0.00107
1085.67412	0.00161
1083.74575	0.00176
1081.81738	0.00189
1079.88900	0.00185
1077.96063	0.00189
1076.03226	0.00179
1074.10388	0.00165
1072.17551	0.00142
1070.24714	0.00130
1068.31876	0.00101
1066.39039	0.00039
1064.46202	0.00188
1062.53364	0.00290
1060.60527	0.00275
1058.67690	0.00311
1056.74853	0.00329
1054.82015	0.00335
1052.89178	0.00388
1050.96341	0.00395
1049.03503	0.00355
1047.10666	0.00264
1045.17829	0.00231
1043.24991	0.00235
1041.32154	0.00286
1039.39317	0.00320
1037.46479	0.00257
1035.53642	0.00164
1033.60805	0.00104
1031.67967	0.00046
1029.75130	0.00106
1027.82293	0.00141
1025.89455	0.00144
1023.96618	0.00186
1022.03781	0.00225
1020.10943	0.00182
1018.18106	0.00137
1016.25269	0.00140
1014.32431	0.00165
1012.39594	0.00190
1010.46757	0.00277
1008.53919	0.00421
1006.61082	0.00632
1004.68245	0.00911
1002.75407	0.01212
1000.82570	0.01538
998.89733	0.01900
996.96896	0.02266
995.04058	0.02601
993.11221	0.02889
991.18384	0.03141
989.25546	0.03392
987.32709	0.03652
985.39872	0.03850
983.47034	0.03889
981.54197	0.03782
979.61360	0.03606
977.68522	0.03395
975.75685	0.03205
973.82848	0.03144
971.90010	0.03305
969.97173	0.03714
968.04336	0.04262
966.11498	0.04754
964.18661	0.05028
962.25824	0.04977
960.32986	0.04509
958.40149	0.03689
956.47312	0.02887
954.54474	0.02507
952.61637	0.02664
950.68800	0.03206
948.75962	0.03919
946.83125	0.04677
944.90288	0.05390
942.97451	0.05992
941.04613	0.06495
939.11776	0.06936
937.18939	0.07302
935.26101	0.07587
933.33264	0.07831
931.40427	0.08058
929.47589	0.08250
927.54752	0.08336
925.61915	0.08288
923.69077	0.08195
921.76240	0.08174
919.83403	0.08278
917.90565	0.08468
915.97728	0.08695
914.04891	0.08940
912.12053	0.09095
910.19216	0.08989
908.26379	0.08587
906.33541	0.08023
904.40704	0.07432
902.47867	0.06944
900.55029	0.06672
898.62192	0.06515
896.69355	0.06335
894.76517	0.06199
892.83680	0.06217
890.90843	0.06385
888.98005	0.06664
887.05168	0.06988
885.12331	0.07282
883.19494	0.07520
881.26656	0.07661
879.33819	0.07663
877.40982	0.07567
875.48144	0.07467
873.55307	0.07455
871.62470	0.07508
869.69632	0.07531
867.76795	0.07521
865.83958	0.07501
863.91120	0.07449
861.98283	0.07395
860.05446	0.07370
858.12608	0.07340
856.19771	0.07267
854.26934	0.07127
852.34096	0.06934
850.41259	0.06785
848.48422	0.06746
846.55584	0.06764
844.62747	0.06716
842.69910	0.06525
840.77072	0.06235
838.84235	0.05953
836.91398	0.05702
834.98560	0.05482
833.05723	0.05379
831.12886	0.05363
829.20049	0.05235
827.27211	0.04947
825.34374	0.04662
823.41537	0.04502
821.48699	0.04440
819.55862	0.04402
817.63025	0.04337
815.70187	0.04255
813.77350	0.04199
811.84513	0.04180
809.91675	0.04194
807.98838	0.04195
806.06001	0.04112
804.13163	0.04000
802.20326	0.03920
800.27489	0.03828
798.34651	0.03749
796.41814	0.03704
794.48977	0.03609
792.56139	0.03452
790.63302	0.03316
788.70465	0.03203
786.77627	0.03058
784.84790	0.02899
782.91953	0.02749
780.99115	0.02607
779.06278	0.02518
777.13441	0.02481
775.20603	0.02353
773.27766	0.02106
771.34929	0.01902
769.42092	0.01858
767.49254	0.01943
765.56417	0.01987
763.63580	0.01904
761.70742	0.01772
759.77905	0.01652
757.85068	0.01540
755.92230	0.01425
753.99393	0.01305
752.06556	0.01221
750.13718	0.01188
748.20881	0.01220
746.28044	0.01301
744.35206	0.01349
742.42369	0.01305
740.49532	0.01225
738.56694	0.01230
736.63857	0.01292
734.71020	0.01275
732.78182	0.01169
730.85345	0.01052
728.92508	0.01013
726.99670	0.01001
725.06833	0.00990
723.13996	0.01030
721.21158	0.01120
719.28321	0.01187
717.35484	0.01105
715.42647	0.00927
713.49809	0.00795
711.56972	0.00710
709.64135	0.00626
707.71297	0.00609
705.78460	0.00691
703.85623	0.00714
701.92785	0.00617
699.99948	0.00550
698.07111	0.00675
696.14273	0.00874
694.21436	0.00997
692.28599	0.01099
690.35761	0.01104
688.42924	0.00909
686.50087	0.00634
684.57249	0.00434
682.64412	0.00442
680.71575	0.00597
678.78737	0.00914
676.85900	0.01152
674.93063	0.01052
673.00225	0.00888
671.07388	0.00845
669.14551	0.00900
667.21713	0.01086
665.28876	0.01109
663.36039	0.00910
661.43201	0.00622
659.50364	0.00429
657.57527	0.00380
655.64690	0.00451
653.71852	0.00534
651.79015	0.00811
649.86178	0.01065
647.93340	0.01009
646.00503	0.00810
644.07666	0.00659
642.14828	0.00523
640.21991	0.00533
638.29154	0.00587
636.36316	0.00623
634.43479	0.00566
632.50642	0.00504
630.57804	0.00625
628.64967	0.00551
626.72130	0.00502
624.79292	0.00623
622.86455	0.00799
620.93618	0.00896
619.00780	0.00745
617.07943	0.00791
615.15106	0.00580
613.22268	0.00773
611.29431	0.01090
609.36594	0.01299
607.43756	0.01366
605.50919	0.01047
603.58082	0.01231
601.65244	0.01970
599.72407	0.02449
