3997.51769	0.87494
3995.58931	0.87433
3993.66094	0.87408
3991.73257	0.87440
3989.80419	0.87530
3987.87582	0.87584
3985.94745	0.87545
3984.01907	0.87434
3982.09070	0.87341
3980.16233	0.87340
3978.23396	0.87379
3976.30558	0.87361
3974.37721	0.87285
3972.44884	0.87228
3970.52046	0.87216
3968.59209	0.87197
3966.66372	0.87165
3964.73534	0.87188
3962.80697	0.87275
3960.87860	0.87323
3958.95022	0.87319
3957.02185	0.87307
3955.09348	0.87248
3953.16510	0.87215
3951.23673	0.87328
3949.30836	0.87449
3947.37998	0.87382
3945.45161	0.87270
3943.52324	0.87280
3941.59486	0.87268
3939.66649	0.87150
3937.73812	0.87054
3935.80974	0.87080
3933.88137	0.87263
3931.95300	0.87435
3930.02462	0.87353
3928.09625	0.87194
3926.16788	0.87232
3924.23950	0.87327
3922.31113	0.87273
3920.38276	0.87236
3918.45439	0.87293
3916.52601	0.87204
3914.59764	0.86926
3912.66927	0.86712
3910.74089	0.86663
3908.81252	0.86775
3906.88415	0.87089
3904.95577	0.87536
3903.02740	0.87830
3901.09903	0.87800
3899.17065	0.87514
3897.24228	0.87155
3895.31391	0.87009
3893.38553	0.87154
3891.45716	0.87272
3889.52879	0.87155
3887.60041	0.87182
3885.67204	0.87391
3883.74367	0.87442
3881.81529	0.87426
3879.88692	0.87294
3877.95855	0.86981
3876.03017	0.86921
3874.10180	0.87190
3872.17343	0.87548
3870.24505	0.87768
3868.31668	0.87627
3866.38831	0.87470
3864.45994	0.87468
3862.53156	0.87215
3860.60319	0.86845
3858.67482	0.86826
3856.74644	0.87212
3854.81807	0.87907
3852.88970	0.88231
3850.96132	0.87473
3849.03295	0.86652
3847.10458	0.86310
3845.17620	0.86506
3843.24783	0.87003
3841.31946	0.87472
3839.39108	0.87777
3837.46271	0.87718
3835.53434	0.87304
3833.60596	0.86866
3831.67759	0.86512
3829.74922	0.86316
3827.82084	0.86312
3825.89247	0.86361
3823.96410	0.86501
3822.03572	0.86879
3820.10735	0.87074
3818.17898	0.86947
3816.25060	0.86802
3814.32223	0.86389
3812.39386	0.85896
3810.46548	0.85738
3808.53711	0.85968
3806.60874	0.86265
3804.68037	0.86436
3802.75199	0.86727
3800.82362	0.86811
3798.89525	0.86470
3796.96687	0.86105
3795.03850	0.85679
3793.11013	0.85322
3791.18175	0.85235
3789.25338	0.85312
3787.32501	0.85417
3785.39663	0.85454
3783.46826	0.85401
3781.53989	0.85439
3779.61151	0.85497
3777.68314	0.85272
3775.75477	0.84985
3773.82639	0.84973
3771.89802	0.85232
3769.96965	0.85515
3768.04127	0.85551
3766.11290	0.85431
3764.18453	0.85293
3762.25615	0.85293
3760.32778	0.85518
3758.39941	0.85630
3756.47103	0.85508
3754.54266	0.85612
3752.61429	0.86174
3750.68591	0.86718
3748.75754	0.86624
3746.82917	0.86537
3744.90080	0.86565
3742.97242	0.86103
3741.04405	0.85593
3739.11568	0.85582
3737.18730	0.86067
3735.25893	0.86522
3733.33056	0.86227
3731.40218	0.85541
3729.47381	0.85105
3727.54544	0.85033
3725.61706	0.85163
3723.68869	0.85258
3721.76032	0.85194
3719.83194	0.84966
3717.90357	0.84717
3715.97520	0.84681
3714.04682	0.85029
3712.11845	0.85604
3710.19008	0.85588
3708.26170	0.84886
3706.33333	0.84303
3704.40496	0.84164
3702.47658	0.84312
3700.54821	0.84289
3698.61984	0.84024
3696.69146	0.83795
3694.76309	0.83774
3692.83472	0.84114
3690.90635	0.84665
3688.97797	0.84712
3687.04960	0.84076
3685.12123	0.83537
3683.19285	0.83315
3681.26448	0.83309
3679.33611	0.83490
3677.40773	0.83887
3675.47936	0.84151
3673.55099	0.83822
3671.62261	0.83506
3669.69424	0.83134
3667.76587	0.82319
3665.83749	0.81602
3663.90912	0.81206
3661.98075	0.80969
3660.05237	0.80834
3658.12400	0.80850
3656.19563	0.80841
3654.26725	0.80700
3652.33888	0.80842
3650.41051	0.81371
3648.48213	0.81275
3646.55376	0.80124
3644.62539	0.79117
3642.69701	0.78556
3640.76864	0.78186
3638.84027	0.77843
3636.91189	0.77541
3634.98352	0.77319
3633.05515	0.77252
3631.12678	0.77407
3629.19840	0.77435
3627.27003	0.76749
3625.34166	0.75958
3623.41328	0.75554
3621.48491	0.75475
3619.55654	0.75418
3617.62816	0.75036
3615.69979	0.74567
3613.77142	0.74215
3611.84304	0.73848
3609.91467	0.73468
3607.98630	0.73039
3606.05792	0.72460
3604.12955	0.71911
3602.20118	0.71520
3600.27280	0.71189
3598.34443	0.70855
3596.41606	0.70575
3594.48768	0.70258
3592.55931	0.69852
3590.63094	0.69606
3588.70256	0.69539
3586.77419	0.69147
3584.84582	0.68326
3582.91744	0.67608
3580.98907	0.67128
3579.06070	0.66740
3577.13233	0.66365
3575.20395	0.65995
3573.27558	0.65624
3571.34721	0.65342
3569.41883	0.65295
3567.49046	0.65280
3565.56209	0.64799
3563.63371	0.64044
3561.70534	0.63384
3559.77697	0.62820
3557.84859	0.62313
3555.92022	0.61908
3553.99185	0.61623
3552.06347	0.61341
3550.13510	0.60993
3548.20673	0.60666
3546.27835	0.60352
3544.34998	0.59905
3542.42161	0.59352
3540.49323	0.58882
3538.56486	0.58582
3536.63649	0.58340
3534.70811	0.58002
3532.77974	0.57579
3530.85137	0.57159
3528.92299	0.56824
3526.99462	0.56564
3525.06625	0.56294
3523.13787	0.55954
3521.20950	0.55523
3519.28113	0.55057
3517.35276	0.54615
3515.42438	0.54232
3513.49601	0.53944
3511.56764	0.53710
3509.63926	0.53427
3507.71089	0.53083
3505.78252	0.52760
3503.85414	0.52441
3501.92577	0.52065
3499.99740	0.51673
3498.06902	0.51334
3496.14065	0.51036
3494.21228	0.50741
3492.28390	0.50455
3490.35553	0.50162
3488.42716	0.49849
3486.49878	0.49561
3484.57041	0.49327
3482.64204	0.49131
3480.71366	0.48942
3478.78529	0.48749
3476.85692	0.48519
3474.92854	0.48240
3473.00017	0.47986
3471.07180	0.47784
3469.14342	0.47572
3467.21505	0.47311
3465.28668	0.47063
3463.35831	0.46849
3461.42993	0.46622
3459.50156	0.46399
3457.57319	0.46205
3455.64481	0.46011
3453.71644	0.45806
3451.78807	0.45588
3449.85969	0.45369
3447.93132	0.45154
3446.00295	0.44918
3444.07457	0.44720
3442.14620	0.44598
3440.21783	0.44458
3438.28945	0.44278
3436.36108	0.44142
3434.43271	0.44062
3432.50433	0.43948
3430.57596	0.43763
3428.64759	0.43574
3426.71921	0.43407
3424.79084	0.43262
3422.86247	0.43171
3420.93409	0.43097
3419.00572	0.42952
3417.07735	0.42769
3415.14897	0.42631
3413.22060	0.42511
3411.29223	0.42353
3409.36385	0.42197
3407.43548	0.42079
3405.50711	0.41937
3403.57874	0.41739
3401.65036	0.41566
3399.72199	0.41492
3397.79362	0.41467
3395.86524	0.41397
3393.93687	0.41272
3392.00850	0.41104
3390.08012	0.40896
3388.15175	0.40682
3386.22338	0.40487
3384.29500	0.40306
3382.36663	0.40149
3380.43826	0.40018
3378.50988	0.39866
3376.58151	0.39666
3374.65314	0.39478
3372.72476	0.39357
3370.79639	0.39283
3368.86802	0.39159
3366.93964	0.38908
3365.01127	0.38595
3363.08290	0.38338
3361.15452	0.38125
3359.22615	0.37878
3357.29778	0.37590
3355.36940	0.37310
3353.44103	0.37074
3351.51266	0.36851
3349.58428	0.36569
3347.65591	0.36238
3345.72754	0.35948
3343.79917	0.35698
3341.87079	0.35420
3339.94242	0.35117
3338.01405	0.34817
3336.08567	0.34496
3334.15730	0.34145
3332.22893	0.33782
3330.30055	0.33411
3328.37218	0.33054
3326.44381	0.32715
3324.51543	0.32342
3322.58706	0.31918
3320.65869	0.31493
3318.73031	0.31115
3316.80194	0.30764
3314.87357	0.30414
3312.94519	0.30067
3311.01682	0.29713
3309.08845	0.29365
3307.16007	0.29037
3305.23170	0.28730
3303.30333	0.28439
3301.37495	0.28149
3299.44658	0.27892
3297.51821	0.27723
3295.58983	0.27606
3293.66146	0.27463
3291.73309	0.27330
3289.80472	0.27283
3287.87634	0.27275
3285.94797	0.27262
3284.01960	0.27321
3282.09122	0.27496
3280.16285	0.27747
3278.23448	0.28020
3276.30610	0.28282
3274.37773	0.28562
3272.44936	0.28898
3270.52098	0.29276
3268.59261	0.29683
3266.66424	0.30119
3264.73586	0.30601
3262.80749	0.31154
3260.87912	0.31744
3258.95074	0.32300
3257.02237	0.32818
3255.09400	0.33378
3253.16562	0.34011
3251.23725	0.34622
3249.30888	0.35164
3247.38050	0.35692
3245.45213	0.36243
3243.52376	0.36789
3241.59538	0.37293
3239.66701	0.37798
3237.73864	0.38308
3235.81026	0.38747
3233.88189	0.39120
3231.95352	0.39490
3230.02515	0.39851
3228.09677	0.40171
3226.16840	0.40463
3224.24003	0.40772
3222.31165	0.41140
3220.38328	0.41552
3218.45491	0.41919
3216.52653	0.42213
3214.59816	0.42477
3212.66979	0.42751
3210.74141	0.43087
3208.81304	0.43477
3206.88467	0.43806
3204.95629	0.44075
3203.02792	0.44400
3201.09955	0.44774
3199.17117	0.45142
3197.24280	0.45519
3195.31443	0.45905
3193.38605	0.46251
3191.45768	0.46573
3189.52931	0.46944
3187.60093	0.47354
3185.67256	0.47753
3183.74419	0.48148
3181.81581	0.48555
3179.88744	0.48961
3177.95907	0.49321
3176.03070	0.49650
3174.10232	0.50033
3172.17395	0.50475
3170.24558	0.50896
3168.31720	0.51296
3166.38883	0.51707
3164.46046	0.52093
3162.53208	0.52438
3160.60371	0.52783
3158.67534	0.53147
3156.74696	0.53508
3154.81859	0.53844
3152.89022	0.54153
3150.96184	0.54434
3149.03347	0.54705
3147.10510	0.54978
3145.17672	0.55223
3143.24835	0.55431
3141.31998	0.55665
3139.39160	0.55941
3137.46323	0.56193
3135.53486	0.56410
3133.60648	0.56615
3131.67811	0.56781
3129.74974	0.56888
3127.82136	0.56968
3125.89299	0.57060
3123.96462	0.57184
3122.03624	0.57328
3120.10787	0.57416
3118.17950	0.57414
3116.25113	0.57399
3114.32275	0.57423
3112.39438	0.57460
3110.46601	0.57467
3108.53763	0.57437
3106.60926	0.57423
3104.68089	0.57416
3102.75251	0.57368
3100.82414	0.57302
3098.89577	0.57234
3096.96739	0.57167
3095.03902	0.57117
3093.11065	0.57048
3091.18227	0.56949
3089.25390	0.56882
3087.32553	0.56846
3085.39715	0.56806
3083.46878	0.56769
3081.54041	0.56736
3079.61203	0.56730
3077.68366	0.56777
3075.75529	0.56848
3073.82691	0.56917
3071.89854	0.57008
3069.97017	0.57149
3068.04179	0.57346
3066.11342	0.57546
3064.18505	0.57694
3062.25668	0.57854
3060.32830	0.58113
3058.39993	0.58448
3056.47156	0.58800
3054.54318	0.59141
3052.61481	0.59481
3050.68644	0.59840
3048.75806	0.60203
3046.82969	0.60562
3044.90132	0.60917
3042.97294	0.61255
3041.04457	0.61586
3039.11620	0.61948
3037.18782	0.62322
3035.25945	0.62679
3033.33108	0.63034
3031.40270	0.63373
3029.47433	0.63665
3027.54596	0.63932
3025.61758	0.64243
3023.68921	0.64621
3021.76084	0.65007
3019.83246	0.65363
3017.90409	0.65707
3015.97572	0.66036
3014.04734	0.66314
3012.11897	0.66562
3010.19060	0.66764
3008.26222	0.66877
3006.33385	0.66961
3004.40548	0.67061
3002.47711	0.67131
3000.54873	0.67157
2998.62036	0.67128
2996.69199	0.67020
2994.76361	0.66870
2992.83524	0.66696
2990.90687	0.66460
2988.97849	0.66153
2987.05012	0.65795
2985.12175	0.65388
2983.19337	0.64967
2981.26500	0.64558
2979.33663	0.64109
2977.40825	0.63613
2975.47988	0.63140
2973.55151	0.62671
2971.62313	0.62190
2969.69476	0.61779
2967.76639	0.61403
2965.83801	0.61004
2963.90964	0.60733
2961.98127	0.60731
2960.05289	0.60912
2958.12452	0.61195
2956.19615	0.61615
2954.26777	0.62148
2952.33940	0.62713
2950.41103	0.63200
2948.48266	0.63506
2946.55428	0.63620
2944.62591	0.63591
2942.69754	0.63458
2940.76916	0.63223
2938.84079	0.62899
2936.91242	0.62566
2934.98404	0.62278
2933.05567	0.62020
2931.12730	0.61797
2929.19892	0.61633
2927.27055	0.61514
2925.34218	0.61353
2923.41380	0.61091
2921.48543	0.60753
2919.55706	0.60416
2917.62868	0.60310
2915.70031	0.60809
2913.77194	0.62020
2911.84356	0.63513
2909.91519	0.64827
2907.98682	0.65886
2906.05844	0.66708
2904.13007	0.67300
2902.20170	0.67797
2900.27332	0.68266
2898.34495	0.68604
2896.41658	0.68792
2894.48820	0.68963
2892.55983	0.69187
2890.63146	0.69394
2888.70309	0.69524
2886.77471	0.69620
2884.84634	0.69706
2882.91797	0.69733
2880.98959	0.69666
2879.06122	0.69537
2877.13285	0.69450
2875.20447	0.69519
2873.27610	0.69795
2871.34773	0.70281
2869.41935	0.70910
2867.49098	0.71552
2865.56261	0.72108
2863.63423	0.72556
2861.70586	0.72885
2859.77749	0.73058
2857.84911	0.73038
2855.92074	0.72787
2853.99237	0.72266
2852.06399	0.71438
2850.13562	0.70617
2848.20725	0.70578
2846.27887	0.71655
2844.35050	0.73221
2842.42213	0.74510
2840.49375	0.75342
2838.56538	0.75909
2836.63701	0.76352
2834.70863	0.76684
2832.78026	0.76954
2830.85189	0.77230
2828.92352	0.77506
2826.99514	0.77731
2825.06677	0.77914
2823.13840	0.78102
2821.21002	0.78288
2819.28165	0.78429
2817.35328	0.78531
2815.42490	0.78653
2813.49653	0.78828
2811.56816	0.79021
2809.63978	0.79199
2807.71141	0.79374
2805.78304	0.79548
2803.85466	0.79709
2801.92629	0.79848
2799.99792	0.79977
2798.06954	0.80129
2796.14117	0.80305
2794.21280	0.80473
2792.28442	0.80628
2790.35605	0.80802
2788.42768	0.81003
2786.49930	0.81194
2784.57093	0.81354
2782.64256	0.81493
2780.71418	0.81613
2778.78581	0.81730
2776.85744	0.81865
2774.92907	0.82012
2773.00069	0.82150
2771.07232	0.82260
2769.14395	0.82343
2767.21557	0.82437
2765.28720	0.82546
2763.35883	0.82694
2761.43045	0.82924
2759.50208	0.83144
2757.57371	0.83264
2755.64533	0.83346
2753.71696	0.83442
2751.78859	0.83535
2749.86021	0.83601
2747.93184	0.83656
2746.00347	0.83752
2744.07509	0.83897
2742.14672	0.84025
2740.21835	0.84111
2738.28997	0.84216
2736.36160	0.84342
2734.43323	0.84436
2732.50485	0.84501
2730.57648	0.84559
2728.64811	0.84638
2726.71973	0.84757
2724.79136	0.84882
2722.86299	0.84980
2720.93461	0.85073
2719.00624	0.85189
2717.07787	0.85306
2715.14950	0.85380
2713.22112	0.85422
2711.29275	0.85471
2709.36438	0.85555
2707.43600	0.85665
2705.50763	0.85751
2703.57926	0.85794
2701.65088	0.85856
2699.72251	0.85988
2697.79414	0.86134
2695.86576	0.86189
2693.93739	0.86147
2692.00902	0.86113
2690.08064	0.86151
2688.15227	0.86249
2686.22390	0.86357
2684.29552	0.86440
2682.36715	0.86498
2680.43878	0.86521
2678.51040	0.86522
2676.58203	0.86547
2674.65366	0.86606
2672.72528	0.86655
2670.79691	0.86664
2668.86854	0.86663
2666.94016	0.86700
2665.01179	0.86786
2663.08342	0.86857
2661.15505	0.86874
2659.22667	0.86880
2657.29830	0.86898
2655.36993	0.86902
2653.44155	0.86898
2651.51318	0.86931
2649.58481	0.86997
2647.65643	0.87048
2645.72806	0.87072
2643.79969	0.87069
2641.87131	0.87058
2639.94294	0.87083
2638.01457	0.87141
2636.08619	0.87199
2634.15782	0.87226
2632.22945	0.87223
2630.30107	0.87236
2628.37270	0.87277
2626.44433	0.87318
2624.51595	0.87339
2622.58758	0.87347
2620.65921	0.87355
2618.73083	0.87358
2616.80246	0.87366
2614.87409	0.87374
2612.94571	0.87361
2611.01734	0.87369
2609.08897	0.87432
2607.16059	0.87504
2605.23222	0.87545
2603.30385	0.87561
2601.37548	0.87573
2599.44710	0.87584
2597.51873	0.87591
2595.59036	0.87605
2593.66198	0.87633
2591.73361	0.87673
2589.80524	0.87685
2587.87686	0.87658
2585.94849	0.87667
2584.02012	0.87740
2582.09174	0.87787
2580.16337	0.87761
2578.23500	0.87739
2576.30662	0.87746
2574.37825	0.87738
2572.44988	0.87737
2570.52150	0.87790
2568.59313	0.87869
2566.66476	0.87915
2564.73638	0.87915
2562.80801	0.87915
2560.87964	0.87930
2558.95126	0.87958
2557.02289	0.88006
2555.09452	0.88050
2553.16614	0.88072
2551.23777	0.88064
2549.30940	0.88016
2547.38103	0.87967
2545.45265	0.87958
2543.52428	0.87975
2541.59591	0.88007
2539.66753	0.88039
2537.73916	0.88030
2535.81079	0.87958
2533.88241	0.87875
2531.95404	0.87853
2530.02567	0.87898
2528.09729	0.87962
2526.16892	0.87979
2524.24055	0.87936
2522.31217	0.87891
2520.38380	0.87888
2518.45543	0.87901
2516.52705	0.87905
2514.59868	0.87903
2512.67031	0.87880
2510.74193	0.87855
2508.81356	0.87856
2506.88519	0.87847
2504.95681	0.87816
2503.02844	0.87811
2501.10007	0.87846
2499.17169	0.87883
2497.24332	0.87888
2495.31495	0.87869
2493.38657	0.87846
2491.45820	0.87830
2489.52983	0.87807
2487.60146	0.87757
2485.67308	0.87710
2483.74471	0.87682
2481.81634	0.87661
2479.88796	0.87659
2477.95959	0.87678
2476.03122	0.87697
2474.10284	0.87690
2472.17447	0.87647
2470.24610	0.87607
2468.31772	0.87612
2466.38935	0.87642
2464.46098	0.87655
2462.53260	0.87654
2460.60423	0.87645
2458.67586	0.87626
2456.74748	0.87619
2454.81911	0.87606
2452.89074	0.87550
2450.96236	0.87502
2449.03399	0.87492
2447.10562	0.87491
2445.17724	0.87501
2443.24887	0.87513
2441.32050	0.87465
2439.39212	0.87374
2437.46375	0.87324
2435.53538	0.87308
2433.60700	0.87277
2431.67863	0.87256
2429.75026	0.87269
2427.82189	0.87280
2425.89351	0.87267
2423.96514	0.87239
2422.03677	0.87210
2420.10839	0.87186
2418.18002	0.87169
2416.25165	0.87154
2414.32327	0.87132
2412.39490	0.87118
2410.46653	0.87120
2408.53815	0.87091
2406.60978	0.87020
2404.68141	0.86950
2402.75303	0.86909
2400.82466	0.86911
2398.89629	0.86945
2396.96791	0.86967
2395.03954	0.86960
2393.11117	0.86938
2391.18279	0.86891
2389.25442	0.86825
2387.32605	0.86794
2385.39767	0.86833
2383.46930	0.86917
2381.54093	0.87016
2379.61255	0.87125
2377.68418	0.87284
2375.75581	0.87534
2373.82744	0.87791
2371.89906	0.87971
2369.97069	0.88218
2368.04232	0.88649
2366.11394	0.89110
2364.18557	0.89457
2362.25720	0.89631
2360.32882	0.89602
2358.40045	0.89422
2356.47208	0.89053
2354.54370	0.88500
2352.61533	0.87984
2350.68696	0.87637
2348.75858	0.87476
2346.83021	0.87544
2344.90184	0.87827
2342.97346	0.88073
2341.04509	0.88093
2339.11672	0.87979
2337.18834	0.87817
2335.25997	0.87631
2333.33160	0.87412
2331.40322	0.87220
2329.47485	0.87171
2327.54648	0.87173
2325.61810	0.87097
2323.68973	0.86991
2321.76136	0.86871
2319.83298	0.86709
2317.90461	0.86544
2315.97624	0.86405
2314.04787	0.86296
2312.11949	0.86236
2310.19112	0.86187
2308.26275	0.86072
2306.33437	0.85888
2304.40600	0.85731
2302.47763	0.85678
2300.54925	0.85705
2298.62088	0.85724
2296.69251	0.85673
2294.76413	0.85562
2292.83576	0.85462
2290.90739	0.85411
2288.97901	0.85371
2287.05064	0.85335
2285.12227	0.85316
2283.19389	0.85294
2281.26552	0.85259
2279.33715	0.85229
2277.40877	0.85201
2275.48040	0.85152
2273.55203	0.85094
2271.62365	0.85071
2269.69528	0.85066
2267.76691	0.85014
2265.83853	0.84936
2263.91016	0.84895
2261.98179	0.84875
2260.05342	0.84847
2258.12504	0.84840
2256.19667	0.84859
2254.26830	0.84858
2252.33992	0.84805
2250.41155	0.84727
2248.48318	0.84689
2246.55480	0.84689
2244.62643	0.84662
2242.69806	0.84614
2240.76968	0.84577
2238.84131	0.84534
2236.91294	0.84489
2234.98456	0.84463
2233.05619	0.84449
2231.12782	0.84442
2229.19944	0.84426
2227.27107	0.84393
2225.34270	0.84360
2223.41432	0.84323
2221.48595	0.84296
2219.55758	0.84304
2217.62920	0.84312
2215.70083	0.84278
2213.77246	0.84243
2211.84408	0.84242
2209.91571	0.84230
2207.98734	0.84197
2206.05896	0.84175
2204.13059	0.84165
2202.20222	0.84148
2200.27385	0.84105
2198.34547	0.84051
2196.41710	0.84022
2194.48873	0.84027
2192.56035	0.84045
2190.63198	0.84039
2188.70361	0.84002
2186.77523	0.83969
2184.84686	0.83949
2182.91849	0.83927
2180.99011	0.83897
2179.06174	0.83879
2177.13337	0.83894
2175.20499	0.83897
2173.27662	0.83855
2171.34825	0.83816
2169.41987	0.83807
2167.49150	0.83799
2165.56313	0.83785
2163.63475	0.83790
2161.70638	0.83805
2159.77801	0.83800
2157.84963	0.83771
2155.92126	0.83745
2153.99289	0.83739
2152.06451	0.83749
2150.13614	0.83751
2148.20777	0.83726
2146.27940	0.83691
2144.35102	0.83681
2142.42265	0.83694
2140.49428	0.83703
2138.56590	0.83695
2136.63753	0.83680
2134.70916	0.83667
2132.78078	0.83676
2130.85241	0.83696
2128.92404	0.83693
2126.99566	0.83678
2125.06729	0.83669
2123.13892	0.83674
2121.21054	0.83700
2119.28217	0.83728
2117.35380	0.83737
2115.42542	0.83715
2113.49705	0.83673
2111.56868	0.83664
2109.64030	0.83692
2107.71193	0.83726
2105.78356	0.83762
2103.85518	0.83786
2101.92681	0.83795
2099.99844	0.83800
2098.07006	0.83797
2096.14169	0.83798
2094.21332	0.83817
2092.28494	0.83842
2090.35657	0.83866
2088.42820	0.83888
2086.49983	0.83923
2084.57145	0.83982
2082.64308	0.84026
2080.71471	0.84012
2078.78633	0.83967
2076.85796	0.83961
2074.92959	0.84005
2073.00121	0.84050
2071.07284	0.84081
2069.14447	0.84119
2067.21609	0.84179
2065.28772	0.84242
2063.35935	0.84262
2061.43097	0.84241
2059.50260	0.84223
2057.57423	0.84223
2055.64585	0.84216
2053.71748	0.84213
2051.78911	0.84242
2049.86073	0.84299
2047.93236	0.84369
2046.00399	0.84430
2044.07561	0.84469
2042.14724	0.84504
2040.21887	0.84538
2038.29049	0.84566
2036.36212	0.84593
2034.43375	0.84626
2032.50538	0.84664
2030.57700	0.84700
2028.64863	0.84736
2026.72026	0.84767
2024.79188	0.84789
2022.86351	0.84835
2020.93514	0.84923
2019.00676	0.85018
2017.07839	0.85076
2015.15002	0.85083
2013.22164	0.85082
2011.29327	0.85110
2009.36490	0.85149
2007.43652	0.85167
2005.50815	0.85178
2003.57978	0.85219
2001.65140	0.85295
1999.72303	0.85365
1997.79466	0.85393
1995.86628	0.85427
1993.93791	0.85526
1992.00954	0.85618
1990.08116	0.85637
1988.15279	0.85637
1986.22442	0.85653
1984.29604	0.85681
1982.36767	0.85710
1980.43930	0.85712
1978.51092	0.85715
1976.58255	0.85763
1974.65418	0.85822
1972.72581	0.85855
1970.79743	0.85910
1968.86906	0.86044
1966.94069	0.86170
1965.01231	0.86199
1963.08394	0.86210
1961.15557	0.86258
1959.22719	0.86309
1957.29882	0.86358
1955.37045	0.86411
1953.44207	0.86449
1951.51370	0.86478
1949.58533	0.86545
1947.65695	0.86661
1945.72858	0.86797
1943.80021	0.86945
1941.87183	0.87030
1939.94346	0.86994
1938.01509	0.86961
1936.08671	0.87005
1934.15834	0.87076
1932.22997	0.87130
1930.30159	0.87160
1928.37322	0.87204
1926.44485	0.87305
1924.51647	0.87477
1922.58810	0.87635
1920.65973	0.87718
1918.73135	0.87792
1916.80298	0.87792
1914.87461	0.87714
1912.94624	0.87730
1911.01786	0.87864
1909.08949	0.87988
1907.16112	0.88027
1905.23274	0.88032
1903.30437	0.88046
1901.37600	0.88058
1899.44762	0.88086
1897.51925	0.88166
1895.59088	0.88270
1893.66250	0.88348
1891.73413	0.88480
1889.80576	0.88649
1887.87738	0.88667
1885.94901	0.88590
1884.02064	0.88583
1882.09226	0.88646
1880.16389	0.88724
1878.23552	0.88784
1876.30714	0.88844
1874.37877	0.88955
1872.45040	0.89191
1870.52202	0.89597
1868.59365	0.89914
1866.66528	0.89812
1864.73690	0.89562
1862.80853	0.89469
1860.88016	0.89510
1858.95179	0.89585
1857.02341	0.89638
1855.09504	0.89664
1853.16667	0.89710
1851.23829	0.89838
1849.30992	0.90063
1847.38155	0.90360
1845.45317	0.90655
1843.52480	0.90710
1841.59643	0.90501
1839.66805	0.90366
1837.73968	0.90398
1835.81131	0.90474
1833.88293	0.90632
1831.95456	0.90997
1830.02619	0.91352
1828.09781	0.91350
1826.16944	0.91222
1824.24107	0.91136
1822.31269	0.91018
1820.38432	0.90963
1818.45595	0.90983
1816.52757	0.91008
1814.59920	0.91096
1812.67083	0.91318
1810.74245	0.91534
1808.81408	0.91544
1806.88571	0.91468
1804.95733	0.91516
1803.02896	0.91731
1801.10059	0.91964
1799.17222	0.92033
1797.24384	0.92020
1795.31547	0.92146
1793.38710	0.92443
1791.45872	0.92498
1789.53035	0.92157
1787.60198	0.91932
1785.67360	0.91980
1783.74523	0.92098
1781.81686	0.92209
1779.88848	0.92273
1777.96011	0.92269
1776.03174	0.92435
1774.10336	0.92893
1772.17499	0.93268
1770.24662	0.93086
1768.31824	0.92654
1766.38987	0.92334
1764.46150	0.92266
1762.53312	0.92428
1760.60475	0.92501
1758.67638	0.92422
1756.74800	0.92294
1754.81963	0.92168
1752.89126	0.92324
1750.96288	0.92728
1749.03451	0.92823
1747.10614	0.92453
1745.17777	0.92053
1743.24939	0.91798
1741.32102	0.91578
1739.39265	0.91267
1737.46427	0.91030
1735.53590	0.91119
1733.60753	0.91009
1731.67915	0.90191
1729.75078	0.89228
1727.82241	0.88316
1725.89403	0.87565
1723.96566	0.86901
1722.03729	0.86345
1720.10891	0.86120
1718.18054	0.85988
1716.25217	0.84927
1714.32379	0.83022
1712.39542	0.81191
1710.46705	0.79543
1708.53867	0.78020
1706.61030	0.76167
1704.68193	0.73754
1702.75355	0.71355
1700.82518	0.68325
1698.89681	0.64333
1696.96843	0.60396
1695.04006	0.55908
1693.11169	0.52039
1691.18331	0.49064
1689.25494	0.46060
1687.32657	0.43380
1685.39820	0.40629
1683.46982	0.36797
1681.54145	0.33678
1679.61308	0.31558
1677.68470	0.29675
1675.75633	0.27650
1673.82796	0.25611
1671.89958	0.24017
1669.97121	0.22416
1668.04284	0.20615
1666.11446	0.19230
1664.18609	0.18012
1662.25772	0.16601
1660.32934	0.15267
1658.40097	0.14225
1656.47260	0.13437
1654.54422	0.12748
1652.61585	0.12070
1650.68748	0.11845
1648.75910	0.12035
1646.83073	0.12591
1644.90236	0.13225
1642.97398	0.13747
1641.04561	0.14343
1639.11724	0.15037
1637.18886	0.15801
1635.26049	0.16613
1633.33212	0.17175
1631.40375	0.17646
1629.47537	0.18425
1627.54700	0.19638
1625.61863	0.21203
1623.69025	0.23308
1621.76188	0.25779
1619.83351	0.28010
1617.90513	0.30589
1615.97676	0.33922
1614.04839	0.36647
1612.12001	0.38797
1610.19164	0.41018
1608.26327	0.43185
1606.33489	0.44994
1604.40652	0.46481
1602.47815	0.47763
1600.54977	0.48805
1598.62140	0.49673
1596.69303	0.50453
1594.76465	0.51097
1592.83628	0.51570
1590.90791	0.51911
1588.97953	0.52084
1587.05116	0.52026
1585.12279	0.51750
1583.19441	0.51284
1581.26604	0.50709
1579.33767	0.50166
1577.40929	0.49472
1575.48092	0.48075
1573.55255	0.46570
1571.62418	0.45415
1569.69580	0.43928
1567.76743	0.42024
1565.83906	0.40234
1563.91068	0.38618
1561.98231	0.37404
1560.05394	0.36133
1558.12556	0.33544
1556.19719	0.31420
1554.26882	0.30149
1552.34044	0.29166
1550.41207	0.28467
1548.48370	0.28048
1546.55532	0.27987
1544.62695	0.28306
1542.69858	0.28921
1540.77020	0.29762
1538.84183	0.30518
1536.91346	0.30957
1534.98508	0.31595
1533.05671	0.32656
1531.12834	0.33726
1529.19996	0.34744
1527.27159	0.36016
1525.34322	0.37357
1523.41484	0.38589
1521.48647	0.39829
1519.55810	0.40738
1517.62972	0.41545
1515.70135	0.42680
1513.77298	0.44077
1511.84461	0.45783
1509.91623	0.47807
1507.98786	0.50435
1506.05949	0.53444
1504.13111	0.55053
1502.20274	0.56210
1500.27437	0.57791
1498.34599	0.59814
1496.41762	0.61805
1494.48925	0.63258
1492.56087	0.64558
1490.63250	0.66221
1488.70413	0.67741
1486.77575	0.68374
1484.84738	0.68620
1482.91901	0.68850
1480.99063	0.68973
1479.06226	0.68876
1477.13389	0.68575
1475.20551	0.68004
1473.27714	0.66870
1471.34877	0.65222
1469.42039	0.63945
1467.49202	0.63206
1465.56365	0.62416
1463.63527	0.61260
1461.70690	0.60387
1459.77853	0.60027
1457.85016	0.59442
1455.92178	0.58087
1453.99341	0.57156
1452.06504	0.56888
1450.13666	0.57006
1448.20829	0.57366
1446.27992	0.57808
1444.35154	0.58343
1442.42317	0.59143
1440.49480	0.60194
1438.56642	0.61486
1436.63805	0.63026
1434.70968	0.64217
1432.78130	0.64948
1430.85293	0.65583
1428.92456	0.66003
1426.99618	0.66129
1425.06781	0.66123
1423.13944	0.65974
1421.21106	0.65716
1419.28269	0.65314
1417.35432	0.64600
1415.42594	0.63870
1413.49757	0.63391
1411.56920	0.63179
1409.64082	0.63156
1407.71245	0.63278
1405.78408	0.63525
1403.85570	0.63761
1401.92733	0.63957
1399.99896	0.64232
1398.07059	0.64530
1396.14221	0.64709
1394.21384	0.64623
1392.28547	0.64310
1390.35709	0.64099
1388.42872	0.64099
1386.50035	0.64148
1384.57197	0.64208
1382.64360	0.64411
1380.71523	0.64823
1378.78685	0.65441
1376.85848	0.66239
1374.93011	0.67096
1373.00173	0.67742
1371.07336	0.68218
1369.14499	0.68879
1367.21661	0.69753
1365.28824	0.70705
1363.35987	0.71681
1361.43149	0.72397
1359.50312	0.72743
1357.57475	0.72977
1355.64637	0.73166
1353.71800	0.73214
1351.78963	0.73145
1349.86125	0.73006
1347.93288	0.72770
1346.00451	0.72479
1344.07614	0.72231
1342.14776	0.72102
1340.21939	0.72014
1338.29102	0.71802
1336.36264	0.71544
1334.43427	0.71388
1332.50590	0.71302
1330.57752	0.71244
1328.64915	0.71240
1326.72078	0.71308
1324.79240	0.71437
1322.86403	0.71562
1320.93566	0.71598
1319.00728	0.71523
1317.07891	0.71370
1315.15054	0.71174
1313.22216	0.70913
1311.29379	0.70598
1309.36542	0.70343
1307.43704	0.70212
1305.50867	0.70140
1303.58030	0.70030
1301.65192	0.69886
1299.72355	0.69806
1297.79518	0.69822
1295.86680	0.69807
1293.93843	0.69641
1292.01006	0.69386
1290.08168	0.69127
1288.15331	0.68835
1286.22494	0.68513
1284.29657	0.68264
1282.36819	0.68150
1280.43982	0.68112
1278.51145	0.68080
1276.58307	0.68016
1274.65470	0.67875
1272.72633	0.67643
1270.79795	0.67389
1268.86958	0.67217
1266.94121	0.67145
1265.01283	0.67093
1263.08446	0.67037
1261.15609	0.67015
1259.22771	0.66994
1257.29934	0.66897
1255.37097	0.66721
1253.44259	0.66507
1251.51422	0.66244
1249.58585	0.65952
1247.65747	0.65726
1245.72910	0.65611
1243.80073	0.65553
1241.87235	0.65520
1239.94398	0.65528
1238.01561	0.65632
1236.08723	0.65933
1234.15886	0.66460
1232.23049	0.67147
1230.30212	0.67965
1228.37374	0.68917
1226.44537	0.69929
1224.51700	0.70906
1222.58862	0.71870
1220.66025	0.72900
1218.73188	0.73970
1216.80350	0.74921
1214.87513	0.75585
1212.94676	0.75923
1211.01838	0.76069
1209.09001	0.76238
1207.16164	0.76420
1205.23326	0.76518
1203.30489	0.76677
1201.37652	0.76956
1199.44814	0.77266
1197.51977	0.77671
1195.59140	0.78189
1193.66302	0.78721
1191.73465	0.79255
1189.80628	0.79760
1187.87790	0.80142
1185.94953	0.80424
1184.02116	0.80634
1182.09278	0.80667
1180.16441	0.80502
1178.23604	0.80274
1176.30766	0.80021
1174.37929	0.79673
1172.45092	0.79290
1170.52255	0.78960
1168.59417	0.78641
1166.66580	0.78267
1164.73743	0.77826
1162.80905	0.77440
1160.88068	0.77267
1158.95231	0.77311
1157.02393	0.77526
1155.09556	0.77960
1153.16719	0.78602
1151.23881	0.79290
1149.31044	0.79948
1147.38207	0.80574
1145.45369	0.81049
1143.52532	0.81319
1141.59695	0.81467
1139.66857	0.81483
1137.74020	0.81328
1135.81183	0.81079
1133.88345	0.80753
1131.95508	0.80264
1130.02671	0.79661
1128.09833	0.79132
1126.16996	0.78775
1124.24159	0.78509
1122.31321	0.78233
1120.38484	0.78036
1118.45647	0.77953
1116.52809	0.77853
1114.59972	0.77812
1112.67135	0.77978
1110.74298	0.78178
1108.81460	0.78260
1106.88623	0.78358
1104.95786	0.78512
1103.02948	0.78599
1101.10111	0.78609
1099.17274	0.78548
1097.24436	0.78425
1095.31599	0.78341
1093.38762	0.78224
1091.45924	0.77916
1089.53087	0.77439
1087.60250	0.76875
1085.67412	0.76276
1083.74575	0.75673
1081.81738	0.75090
1079.88900	0.74550
1077.96063	0.74110
1076.03226	0.73851
1074.10388	0.73822
1072.17551	0.74108
1070.24714	0.74696
1068.31876	0.75362
1066.39039	0.75946
1064.46202	0.76428
1062.53364	0.76745
1060.60527	0.76881
1058.67690	0.76990
1056.74853	0.77202
1054.82015	0.77464
1052.89178	0.77635
1050.96341	0.77703
1049.03503	0.77739
1047.10666	0.77690
1045.17829	0.77491
1043.24991	0.77189
1041.32154	0.76805
1039.39317	0.76332
1037.46479	0.75808
1035.53642	0.75273
1033.60805	0.74776
1031.67967	0.74387
1029.75130	0.74219
1027.82293	0.74356
1025.89455	0.74749
1023.96618	0.75309
1022.03781	0.75906
1020.10943	0.76419
1018.18106	0.76889
1016.25269	0.77371
1014.32431	0.77850
1012.39594	0.78333
1010.46757	0.78829
1008.53919	0.79354
1006.61082	0.79889
1004.68245	0.80321
1002.75407	0.80618
1000.82570	0.80903
998.89733	0.81222
996.96896	0.81506
995.04058	0.81710
993.11221	0.81864
991.18384	0.82030
989.25546	0.82169
987.32709	0.82248
985.39872	0.82328
983.47034	0.82417
981.54197	0.82472
979.61360	0.82494
977.68522	0.82543
975.75685	0.82636
973.82848	0.82720
971.90010	0.82786
969.97173	0.82898
968.04336	0.83077
966.11498	0.83226
964.18661	0.83260
962.25824	0.83199
960.32986	0.83059
958.40149	0.82846
956.47312	0.82617
954.54474	0.82442
952.61637	0.82403
950.68800	0.82560
948.75962	0.82759
946.83125	0.82800
944.90288	0.82731
942.97451	0.82690
941.04613	0.82716
939.11776	0.82737
937.18939	0.82699
935.26101	0.82664
933.33264	0.82684
931.40427	0.82709
929.47589	0.82701
927.54752	0.82700
925.61915	0.82730
923.69077	0.82829
921.76240	0.82953
919.83403	0.82950
917.90565	0.82820
915.97728	0.82660
914.04891	0.82510
912.12053	0.82443
910.19216	0.82439
908.26379	0.82401
906.33541	0.82400
904.40704	0.82408
902.47867	0.82225
900.55029	0.81987
898.62192	0.81919
896.69355	0.81939
894.76517	0.81940
892.83680	0.81899
890.90843	0.81870
888.98005	0.81861
887.05168	0.81811
885.12331	0.81845
883.19494	0.82012
881.26656	0.82074
879.33819	0.81870
877.40982	0.81557
875.48144	0.81360
873.55307	0.81282
871.62470	0.81254
869.69632	0.81297
867.76795	0.81368
865.83958	0.81404
863.91120	0.81424
861.98283	0.81409
860.05446	0.81332
858.12608	0.81252
856.19771	0.81132
854.26934	0.80871
852.34096	0.80603
850.41259	0.80506
848.48422	0.80443
846.55584	0.80245
844.62747	0.80040
842.69910	0.79957
840.77072	0.79857
838.84235	0.79573
836.91398	0.79251
834.98560	0.79137
833.05723	0.79117
831.12886	0.78974
829.20049	0.78804
827.27211	0.78707
825.34374	0.78622
823.41537	0.78480
821.48699	0.78307
819.55862	0.78268
817.63025	0.78314
815.70187	0.78203
813.77350	0.77972
811.84513	0.77696
809.91675	0.77430
807.98838	0.77351
806.06001	0.77378
804.13163	0.77213
802.20326	0.76818
800.27489	0.76472
798.34651	0.76369
796.41814	0.76384
794.48977	0.76323
792.56139	0.76167
790.63302	0.75953
788.70465	0.75660
786.77627	0.75308
784.84790	0.74972
782.91953	0.74729
780.99115	0.74597
779.06278	0.74489
777.13441	0.74334
775.20603	0.74153
773.27766	0.73992
771.34929	0.73807
769.42092	0.73548
767.49254	0.73342
765.56417	0.73272
763.63580	0.73205
761.70742	0.73030
759.77905	0.72771
757.85068	0.72547
755.92230	0.72395
753.99393	0.72232
752.06556	0.72018
750.13718	0.71791
748.20881	0.71594
746.28044	0.71451
744.35206	0.71359
742.42369	0.71286
740.49532	0.71228
738.56694	0.71115
736.63857	0.70824
734.71020	0.70442
732.78182	0.70154
730.85345	0.69954
728.92508	0.69733
726.99670	0.69479
725.06833	0.69224
723.13996	0.68936
721.21158	0.68609
719.28321	0.68344
717.35484	0.68191
715.42647	0.68007
713.49809	0.67716
711.56972	0.67439
709.64135	0.67163
707.71297	0.66834
705.78460	0.66549
703.85623	0.66306
701.92785	0.66067
699.99948	0.65945
698.07111	0.65953
696.14273	0.65933
694.21436	0.65844
692.28599	0.65812
690.35761	0.65838
688.42924	0.65786
686.50087	0.65652
684.57249	0.65481
682.64412	0.65297
680.71575	0.65224
678.78737	0.65239
676.85900	0.65151
674.93063	0.65028
673.00225	0.65042
671.07388	0.65158
669.14551	0.65151
667.21713	0.64676
665.28876	0.64195
663.36039	0.64078
661.43201	0.64195
659.50364	0.64325
657.57527	0.64402
655.64690	0.64472
653.71852	0.64434
651.79015	0.64313
649.86178	0.64434
647.93340	0.64833
646.00503	0.65090
644.07666	0.64980
642.14828	0.64679
640.21991	0.64338
638.29154	0.63925
636.36316	0.63676
634.43479	0.63933
632.50642	0.64324
630.57804	0.64405
628.64967	0.64474
626.72130	0.64655
624.79292	0.64767
622.86455	0.64857
620.93618	0.64727
619.00780	0.64246
617.07943	0.63831
615.15106	0.63698
613.22268	0.63498
611.29431	0.63247
609.36594	0.63620
607.43756	0.64588
605.50919	0.65191
603.58082	0.65145
601.65244	0.64840
599.72407	0.64487
