3997.51769	0.47467
3995.58931	0.47466
3993.66094	0.47490
3991.73257	0.47528
3989.80419	0.47540
3987.87582	0.47519
3985.94745	0.47501
3984.01907	0.47504
3982.09070	0.47491
3980.16233	0.47462
3978.23396	0.47486
3976.30558	0.47552
3974.37721	0.47590
3972.44884	0.47643
3970.52046	0.47731
3968.59209	0.47776
3966.66372	0.47791
3964.73534	0.47864
3962.80697	0.48000
3960.87860	0.48113
3958.95022	0.48144
3957.02185	0.48137
3955.09348	0.48161
3953.16510	0.48260
3951.23673	0.48415
3949.30836	0.48526
3947.37998	0.48520
3945.45161	0.48499
3943.52324	0.48536
3941.59486	0.48544
3939.66649	0.48539
3937.73812	0.48588
3935.80974	0.48687
3933.88137	0.48867
3931.95300	0.49045
3930.02462	0.49033
3928.09625	0.48946
3926.16788	0.49011
3924.23950	0.49151
3922.31113	0.49210
3920.38276	0.49313
3918.45439	0.49507
3916.52601	0.49542
3914.59764	0.49334
3912.66927	0.49119
3910.74089	0.49091
3908.81252	0.49282
3906.88415	0.49587
3904.95577	0.49893
3903.02740	0.50144
3901.09903	0.50271
3899.17065	0.50174
3897.24228	0.49987
3895.31391	0.50000
3893.38553	0.50240
3891.45716	0.50382
3889.52879	0.50261
3887.60041	0.50250
3885.67204	0.50459
3883.74367	0.50642
3881.81529	0.50737
3879.88692	0.50690
3877.95855	0.50575
3876.03017	0.50694
3874.10180	0.50966
3872.17343	0.51191
3870.24505	0.51339
3868.31668	0.51307
3866.38831	0.51304
3864.45994	0.51451
3862.53156	0.51404
3860.60319	0.51204
3858.67482	0.51216
3856.74644	0.51501
3854.81807	0.51960
3852.88970	0.52143
3850.96132	0.51757
3849.03295	0.51386
3847.10458	0.51258
3845.17620	0.51397
3843.24783	0.51688
3841.31946	0.51992
3839.39108	0.52249
3837.46271	0.52280
3835.53434	0.52033
3833.60596	0.51768
3831.67759	0.51602
3829.74922	0.51546
3827.82084	0.51591
3825.89247	0.51656
3823.96410	0.51810
3822.03572	0.52167
3820.10735	0.52360
3818.17898	0.52256
3816.25060	0.52139
3814.32223	0.51889
3812.39386	0.51596
3810.46548	0.51515
3808.53711	0.51673
3806.60874	0.51855
3804.68037	0.51995
3802.75199	0.52281
3800.82362	0.52403
3798.89525	0.52132
3796.96687	0.51840
3795.03850	0.51567
3793.11013	0.51347
3791.18175	0.51258
3789.25338	0.51253
3787.32501	0.51328
3785.39663	0.51446
3783.46826	0.51519
3781.53989	0.51611
3779.61151	0.51676
3777.68314	0.51511
3775.75477	0.51295
3773.82639	0.51301
3771.89802	0.51514
3769.96965	0.51698
3768.04127	0.51648
3766.11290	0.51489
3764.18453	0.51375
3762.25615	0.51424
3760.32778	0.51633
3758.39941	0.51700
3756.47103	0.51542
3754.54266	0.51537
3752.61429	0.51915
3750.68591	0.52314
3748.75754	0.52202
3746.82917	0.52047
3744.90080	0.51988
3742.97242	0.51672
3741.04405	0.51316
3739.11568	0.51248
3737.18730	0.51486
3735.25893	0.51727
3733.33056	0.51511
3731.40218	0.51022
3729.47381	0.50670
3727.54544	0.50504
3725.61706	0.50416
3723.68869	0.50272
3721.76032	0.50051
3719.83194	0.49790
3717.90357	0.49531
3715.97520	0.49397
3714.04682	0.49466
3712.11845	0.49596
3710.19008	0.49345
3708.26170	0.48739
3706.33333	0.48204
3704.40496	0.47885
3702.47658	0.47664
3700.54821	0.47264
3698.61984	0.46746
3696.69146	0.46279
3694.76309	0.45891
3692.83472	0.45640
3690.90635	0.45421
3688.97797	0.44770
3687.04960	0.43628
3685.12123	0.42556
3683.19285	0.41628
3681.26448	0.40757
3679.33611	0.40003
3677.40773	0.39367
3675.47936	0.38380
3673.55099	0.37023
3671.62261	0.35904
3669.69424	0.34510
3667.76587	0.32789
3665.83749	0.31352
3663.90912	0.30074
3661.98075	0.28830
3660.05237	0.27696
3658.12400	0.26631
3656.19563	0.25363
3654.26725	0.24119
3652.33888	0.23240
3650.41051	0.22336
3648.48213	0.20899
3646.55376	0.19325
3644.62539	0.18093
3642.69701	0.17074
3640.76864	0.16118
3638.84027	0.15191
3636.91189	0.14293
3634.98352	0.13458
3633.05515	0.12758
3631.12678	0.12175
3629.19840	0.11377
3627.27003	0.10334
3625.34166	0.09565
3623.41328	0.09028
3621.48491	0.08583
3619.55654	0.08121
3617.62816	0.07590
3615.69979	0.07070
3613.77142	0.06578
3611.84304	0.06112
3609.91467	0.05675
3607.98630	0.05281
3606.05792	0.04966
3604.12955	0.04699
3602.20118	0.04414
3600.27280	0.04118
3598.34443	0.03814
3596.41606	0.03494
3594.48768	0.03192
3592.55931	0.02936
3590.63094	0.02723
3588.70256	0.02516
3586.77419	0.02332
3584.84582	0.02185
3582.91744	0.02033
3580.98907	0.01868
3579.06070	0.01726
3577.13233	0.01619
3575.20395	0.01506
3573.27558	0.01361
3571.34721	0.01180
3569.41883	0.00993
3567.49046	0.00861
3565.56209	0.00802
3563.63371	0.00789
3561.70534	0.00793
3559.77697	0.00772
3557.84859	0.00705
3555.92022	0.00608
3553.99185	0.00505
3552.06347	0.00442
3550.13510	0.00435
3548.20673	0.00425
3546.27835	0.00395
3544.34998	0.00370
3542.42161	0.00328
3540.49323	0.00270
3538.56486	0.00225
3536.63649	0.00220
3534.70811	0.00239
3532.77974	0.00253
3530.85137	0.00217
3528.92299	0.00177
3526.99462	0.00181
3525.06625	0.00174
3523.13787	0.00141
3521.20950	0.00117
3519.28113	0.00094
3517.35276	0.00104
3515.42438	0.00123
3513.49601	0.00097
3511.56764	0.00097
3509.63926	0.00068
3507.71089	0.00081
3505.78252	0.00074
3503.85414	0.00094
3501.92577	0.00084
3499.99740	0.00112
3498.06902	0.00155
3496.14065	0.00157
3494.21228	0.00115
3492.28390	0.00059
3490.35553	0.00078
3488.42716	0.00100
3486.49878	0.00112
3484.57041	0.00115
3482.64204	0.00093
3480.71366	0.00131
3478.78529	0.00128
3476.85692	0.00073
3474.92854	0.00111
3473.00017	0.00111
3471.07180	0.00081
3469.14342	0.00044
3467.21505	0.00023
3465.28668	0.00038
3463.35831	0.00083
3461.42993	0.00152
3459.50156	0.00190
3457.57319	0.00168
3455.64481	0.00118
3453.71644	0.00081
3451.78807	0.00053
3449.85969	0.00076
3447.93132	0.00102
3446.00295	0.00045
3444.07457	0.00069
3442.14620	0.00120
3440.21783	0.00188
3438.28945	0.00203
3436.36108	0.00201
3434.43271	0.00193
3432.50433	0.00147
3430.57596	0.00080
3428.64759	0.00031
3426.71921	0.00094
3424.79084	0.00114
3422.86247	0.00075
3420.93409	0.00093
3419.00572	0.00115
3417.07735	0.00079
3415.14897	0.00089
3413.22060	0.00140
3411.29223	0.00173
3409.36385	0.00162
3407.43548	0.00133
3405.50711	0.00103
3403.57874	0.00075
3401.65036	0.00117
3399.72199	0.00113
3397.79362	0.00085
3395.86524	0.00095
3393.93687	0.00143
3392.00850	0.00179
3390.08012	0.00156
3388.15175	0.00134
3386.22338	0.00158
3384.29500	0.00147
3382.36663	0.00116
3380.43826	0.00095
3378.50988	0.00113
3376.58151	0.00165
3374.65314	0.00138
3372.72476	0.00069
3370.79639	0.00076
3368.86802	0.00067
3366.93964	0.00066
3365.01127	0.00106
3363.08290	0.00102
3361.15452	0.00060
3359.22615	0.00016
3357.29778	0.00085
3355.36940	0.00139
3353.44103	0.00143
3351.51266	0.00114
3349.58428	0.00095
3347.65591	0.00085
3345.72754	0.00084
3343.79917	0.00081
3341.87079	0.00078
3339.94242	0.00089
3338.01405	0.00101
3336.08567	0.00117
3334.15730	0.00106
3332.22893	0.00064
3330.30055	0.00045
3328.37218	0.00084
3326.44381	0.00119
3324.51543	0.00147
3322.58706	0.00164
3320.65869	0.00142
3318.73031	0.00063
3316.80194	0.00069
3314.87357	0.00084
3312.94519	0.00065
3311.01682	0.00099
3309.08845	0.00121
3307.16007	0.00154
3305.23170	0.00145
3303.30333	0.00108
3301.37495	0.00086
3299.44658	0.00066
3297.51821	0.00061
3295.58983	0.00096
3293.66146	0.00102
3291.73309	0.00087
3289.80472	0.00076
3287.87634	0.00085
3285.94797	0.00101
3284.01960	0.00126
3282.09122	0.00101
3280.16285	0.00036
3278.23448	0.00056
3276.30610	0.00091
3274.37773	0.00128
3272.44936	0.00096
3270.52098	0.00103
3268.59261	0.00093
3266.66424	0.00059
3264.73586	0.00044
3262.80749	0.00052
3260.87912	0.00050
3258.95074	0.00052
3257.02237	0.00056
3255.09400	0.00033
3253.16562	0.00018
3251.23725	0.00032
3249.30888	0.00054
3247.38050	0.00047
3245.45213	0.00054
3243.52376	0.00045
3241.59538	0.00041
3239.66701	0.00066
3237.73864	0.00071
3235.81026	0.00099
3233.88189	0.00085
3231.95352	0.00108
3230.02515	0.00125
3228.09677	0.00083
3226.16840	0.00082
3224.24003	0.00068
3222.31165	0.00064
3220.38328	0.00089
3218.45491	0.00074
3216.52653	0.00079
3214.59816	0.00100
3212.66979	0.00062
3210.74141	0.00072
3208.81304	0.00071
3206.88467	0.00114
3204.95629	0.00111
3203.02792	0.00070
3201.09955	0.00055
3199.17117	0.00064
3197.24280	0.00082
3195.31443	0.00079
3193.38605	0.00088
3191.45768	0.00091
3189.52931	0.00099
3187.60093	0.00138
3185.67256	0.00199
3183.74419	0.00210
3181.81581	0.00172
3179.88744	0.00120
3177.95907	0.00088
3176.03070	0.00089
3174.10232	0.00086
3172.17395	0.00071
3170.24558	0.00077
3168.31720	0.00091
3166.38883	0.00080
3164.46046	0.00077
3162.53208	0.00096
3160.60371	0.00133
3158.67534	0.00105
3156.74696	0.00075
3154.81859	0.00078
3152.89022	0.00090
3150.96184	0.00128
3149.03347	0.00149
3147.10510	0.00156
3145.17672	0.00173
3143.24835	0.00178
3141.31998	0.00157
3139.39160	0.00124
3137.46323	0.00060
3135.53486	0.00088
3133.60648	0.00160
3131.67811	0.00200
3129.74974	0.00185
3127.82136	0.00153
3125.89299	0.00148
3123.96462	0.00157
3122.03624	0.00158
3120.10787	0.00138
3118.17950	0.00099
3116.25113	0.00066
3114.32275	0.00053
3112.39438	0.00060
3110.46601	0.00097
3108.53763	0.00142
3106.60926	0.00163
3104.68089	0.00177
3102.75251	0.00185
3100.82414	0.00186
3098.89577	0.00196
3096.96739	0.00210
3095.03902	0.00212
3093.11065	0.00188
3091.18227	0.00163
3089.25390	0.00152
3087.32553	0.00163
3085.39715	0.00168
3083.46878	0.00173
3081.54041	0.00181
3079.61203	0.00175
3077.68366	0.00172
3075.75529	0.00177
3073.82691	0.00178
3071.89854	0.00185
3069.97017	0.00204
3068.04179	0.00231
3066.11342	0.00267
3064.18505	0.00300
3062.25668	0.00327
3060.32830	0.00363
3058.39993	0.00416
3056.47156	0.00472
3054.54318	0.00507
3052.61481	0.00531
3050.68644	0.00557
3048.75806	0.00544
3046.82969	0.00500
3044.90132	0.00509
3042.97294	0.00590
3041.04457	0.00679
3039.11620	0.00734
3037.18782	0.00770
3035.25945	0.00809
3033.33108	0.00868
3031.40270	0.00929
3029.47433	0.00964
3027.54596	0.01003
3025.61758	0.01067
3023.68921	0.01117
3021.76084	0.01128
3019.83246	0.01120
3017.90409	0.01131
3015.97572	0.01181
3014.04734	0.01269
3012.11897	0.01372
3010.19060	0.01451
3008.26222	0.01472
3006.33385	0.01461
3004.40548	0.01443
3002.47711	0.01406
3000.54873	0.01368
2998.62036	0.01355
2996.69199	0.01354
2994.76361	0.01331
2992.83524	0.01284
2990.90687	0.01218
2988.97849	0.01134
2987.05012	0.01058
2985.12175	0.00986
2983.19337	0.00899
2981.26500	0.00805
2979.33663	0.00716
2977.40825	0.00666
2975.47988	0.00616
2973.55151	0.00504
2971.62313	0.00425
2969.69476	0.00444
2967.76639	0.00458
2965.83801	0.00384
2963.90964	0.00263
2961.98127	0.00248
2960.05289	0.00348
2958.12452	0.00438
2956.19615	0.00511
2954.26777	0.00589
2952.33940	0.00657
2950.41103	0.00710
2948.48266	0.00738
2946.55428	0.00707
2944.62591	0.00643
2942.69754	0.00571
2940.76916	0.00528
2938.84079	0.00522
2936.91242	0.00526
2934.98404	0.00520
2933.05567	0.00526
2931.12730	0.00540
2929.19892	0.00538
2927.27055	0.00545
2925.34218	0.00570
2923.41380	0.00594
2921.48543	0.00611
2919.55706	0.00648
2917.62868	0.00743
2915.70031	0.00883
2913.77194	0.00996
2911.84356	0.01029
2909.91519	0.01033
2907.98682	0.01061
2906.05844	0.01098
2904.13007	0.01151
2902.20170	0.01218
2900.27332	0.01254
2898.34495	0.01242
2896.41658	0.01191
2894.48820	0.01129
2892.55983	0.01088
2890.63146	0.01043
2888.70309	0.00979
2886.77471	0.00973
2884.84634	0.01040
2882.91797	0.01086
2880.98959	0.01051
2879.06122	0.00988
2877.13285	0.00957
2875.20447	0.00962
2873.27610	0.01028
2871.34773	0.01188
2869.41935	0.01412
2867.49098	0.01626
2865.56261	0.01794
2863.63423	0.01939
2861.70586	0.02089
2859.77749	0.02222
2857.84911	0.02316
2855.92074	0.02387
2853.99237	0.02457
2852.06399	0.02517
2850.13562	0.02565
2848.20725	0.02692
2846.27887	0.02981
2844.35050	0.03363
2842.42213	0.03708
2840.49375	0.03961
2838.56538	0.04142
2836.63701	0.04294
2834.70863	0.04461
2832.78026	0.04665
2830.85189	0.04867
2828.92352	0.05010
2826.99514	0.05104
2825.06677	0.05232
2823.13840	0.05422
2821.21002	0.05590
2819.28165	0.05715
2817.35328	0.05856
2815.42490	0.06019
2813.49653	0.06193
2811.56816	0.06384
2809.63978	0.06578
2807.71141	0.06760
2805.78304	0.06934
2803.85466	0.07110
2801.92629	0.07294
2799.99792	0.07484
2798.06954	0.07670
2796.14117	0.07860
2794.21280	0.08064
2792.28442	0.08265
2790.35605	0.08447
2788.42768	0.08618
2786.49930	0.08774
2784.57093	0.08913
2782.64256	0.09043
2780.71418	0.09171
2778.78581	0.09306
2776.85744	0.09441
2774.92907	0.09566
2773.00069	0.09679
2771.07232	0.09790
2769.14395	0.09926
2767.21557	0.10063
2765.28720	0.10170
2763.35883	0.10288
2761.43045	0.10431
2759.50208	0.10558
2757.57371	0.10679
2755.64533	0.10826
2753.71696	0.10987
2751.78859	0.11134
2749.86021	0.11252
2747.93184	0.11351
2746.00347	0.11450
2744.07509	0.11551
2742.14672	0.11656
2740.21835	0.11761
2738.28997	0.11857
2736.36160	0.11947
2734.43323	0.12059
2732.50485	0.12204
2730.57648	0.12350
2728.64811	0.12485
2726.71973	0.12602
2724.79136	0.12686
2722.86299	0.12763
2720.93461	0.12873
2719.00624	0.13040
2717.07787	0.13241
2715.14950	0.13424
2713.22112	0.13576
2711.29275	0.13729
2709.36438	0.13912
2707.43600	0.14115
2705.50763	0.14306
2703.57926	0.14487
2701.65088	0.14666
2699.72251	0.14824
2697.79414	0.14954
2695.86576	0.15077
2693.93739	0.15208
2692.00902	0.15339
2690.08064	0.15460
2688.15227	0.15586
2686.22390	0.15733
2684.29552	0.15880
2682.36715	0.16003
2680.43878	0.16108
2678.51040	0.16225
2676.58203	0.16356
2674.65366	0.16489
2672.72528	0.16626
2670.79691	0.16744
2668.86854	0.16838
2666.94016	0.16930
2665.01179	0.17028
2663.08342	0.17133
2661.15505	0.17240
2659.22667	0.17331
2657.29830	0.17396
2655.36993	0.17428
2653.44155	0.17452
2651.51318	0.17507
2649.58481	0.17584
2647.65643	0.17646
2645.72806	0.17684
2643.79969	0.17721
2641.87131	0.17779
2639.94294	0.17866
2638.01457	0.17967
2636.08619	0.18059
2634.15782	0.18128
2632.22945	0.18177
2630.30107	0.18235
2628.37270	0.18335
2626.44433	0.18465
2624.51595	0.18572
2622.58758	0.18643
2620.65921	0.18728
2618.73083	0.18845
2616.80246	0.18958
2614.87409	0.19063
2612.94571	0.19169
2611.01734	0.19281
2609.08897	0.19411
2607.16059	0.19544
2605.23222	0.19660
2603.30385	0.19772
2601.37548	0.19884
2599.44710	0.19982
2597.51873	0.20092
2595.59036	0.20224
2593.66198	0.20340
2591.73361	0.20442
2589.80524	0.20550
2587.87686	0.20650
2585.94849	0.20754
2584.02012	0.20872
2582.09174	0.20991
2580.16337	0.21129
2578.23500	0.21274
2576.30662	0.21393
2574.37825	0.21516
2572.44988	0.21668
2570.52150	0.21818
2568.59313	0.21981
2566.66476	0.22186
2564.73638	0.22403
2562.80801	0.22606
2560.87964	0.22806
2558.95126	0.23005
2557.02289	0.23199
2555.09452	0.23377
2553.16614	0.23540
2551.23777	0.23702
2549.30940	0.23860
2547.38103	0.24006
2545.45265	0.24148
2543.52428	0.24301
2541.59591	0.24447
2539.66753	0.24556
2537.73916	0.24632
2535.81079	0.24701
2533.88241	0.24782
2531.95404	0.24882
2530.02567	0.24982
2528.09729	0.25066
2526.16892	0.25145
2524.24055	0.25223
2522.31217	0.25301
2520.38380	0.25383
2518.45543	0.25469
2516.52705	0.25565
2514.59868	0.25690
2512.67031	0.25825
2510.74193	0.25934
2508.81356	0.26040
2506.88519	0.26170
2504.95681	0.26311
2503.02844	0.26445
2501.10007	0.26579
2499.17169	0.26716
2497.24332	0.26841
2495.31495	0.26967
2493.38657	0.27134
2491.45820	0.27336
2489.52983	0.27515
2487.60146	0.27645
2485.67308	0.27753
2483.74471	0.27861
2481.81634	0.27981
2479.88796	0.28141
2477.95959	0.28323
2476.03122	0.28488
2474.10284	0.28625
2472.17447	0.28757
2470.24610	0.28909
2468.31772	0.29080
2466.38935	0.29255
2464.46098	0.29420
2462.53260	0.29573
2460.60423	0.29722
2458.67586	0.29887
2456.74748	0.30068
2454.81911	0.30228
2452.89074	0.30361
2450.96236	0.30515
2449.03399	0.30682
2447.10562	0.30815
2445.17724	0.30921
2443.24887	0.31045
2441.32050	0.31198
2439.39212	0.31341
2437.46375	0.31445
2435.53538	0.31532
2433.60700	0.31646
2431.67863	0.31772
2429.75026	0.31865
2427.82189	0.31953
2425.89351	0.32070
2423.96514	0.32188
2422.03677	0.32282
2420.10839	0.32354
2418.18002	0.32425
2416.25165	0.32510
2414.32327	0.32609
2412.39490	0.32721
2410.46653	0.32840
2408.53815	0.32959
2406.60978	0.33084
2404.68141	0.33211
2402.75303	0.33314
2400.82466	0.33413
2398.89629	0.33554
2396.96791	0.33707
2395.03954	0.33827
2393.11117	0.33956
2391.18279	0.34121
2389.25442	0.34275
2387.32605	0.34393
2385.39767	0.34499
2383.46930	0.34597
2381.54093	0.34686
2379.61255	0.34771
2377.68418	0.34866
2375.75581	0.35001
2373.82744	0.35205
2371.89906	0.35444
2369.97069	0.35624
2368.04232	0.35746
2366.11394	0.35921
2364.18557	0.36168
2362.25720	0.36449
2360.32882	0.36729
2358.40045	0.36828
2356.47208	0.36706
2354.54370	0.36549
2352.61533	0.36475
2350.68696	0.36465
2348.75858	0.36484
2346.83021	0.36559
2344.90184	0.36696
2342.97346	0.36783
2341.04509	0.36800
2339.11672	0.36849
2337.18834	0.36933
2335.25997	0.37003
2333.33160	0.37049
2331.40322	0.37045
2329.47485	0.36953
2327.54648	0.36837
2325.61810	0.36794
2323.68973	0.36821
2321.76136	0.36822
2319.83298	0.36761
2317.90461	0.36715
2315.97624	0.36713
2314.04787	0.36739
2312.11949	0.36825
2310.19112	0.36964
2308.26275	0.37067
2306.33437	0.37102
2304.40600	0.37130
2302.47763	0.37196
2300.54925	0.37285
2298.62088	0.37362
2296.69251	0.37402
2294.76413	0.37420
2292.83576	0.37464
2290.90739	0.37528
2288.97901	0.37558
2287.05064	0.37558
2285.12227	0.37571
2283.19389	0.37598
2281.26552	0.37605
2279.33715	0.37595
2277.40877	0.37598
2275.48040	0.37611
2273.55203	0.37610
2271.62365	0.37599
2269.69528	0.37610
2267.76691	0.37640
2265.83853	0.37645
2263.91016	0.37624
2261.98179	0.37607
2260.05342	0.37597
2258.12504	0.37599
2256.19667	0.37625
2254.26830	0.37660
2252.33992	0.37690
2250.41155	0.37716
2248.48318	0.37740
2246.55480	0.37764
2244.62643	0.37776
2242.69806	0.37770
2240.76968	0.37760
2238.84131	0.37763
2236.91294	0.37766
2234.98456	0.37757
2233.05619	0.37752
2231.12782	0.37754
2229.19944	0.37738
2227.27107	0.37703
2225.34270	0.37675
2223.41432	0.37642
2221.48595	0.37595
2219.55758	0.37567
2217.62920	0.37552
2215.70083	0.37513
2213.77246	0.37453
2211.84408	0.37398
2209.91571	0.37355
2207.98734	0.37319
2206.05896	0.37284
2204.13059	0.37235
2202.20222	0.37175
2200.27385	0.37124
2198.34547	0.37099
2196.41710	0.37085
2194.48873	0.37051
2192.56035	0.37000
2190.63198	0.36965
2188.70361	0.36945
2186.77523	0.36926
2184.84686	0.36909
2182.91849	0.36889
2180.99011	0.36862
2179.06174	0.36846
2177.13337	0.36823
2175.20499	0.36768
2173.27662	0.36727
2171.34825	0.36735
2169.41987	0.36748
2167.49150	0.36721
2165.56313	0.36677
2163.63475	0.36655
2161.70638	0.36642
2159.77801	0.36618
2157.84963	0.36587
2155.92126	0.36558
2153.99289	0.36536
2152.06451	0.36523
2150.13614	0.36510
2148.20777	0.36494
2146.27940	0.36478
2144.35102	0.36461
2142.42265	0.36443
2140.49428	0.36441
2138.56590	0.36458
2136.63753	0.36474
2134.70916	0.36473
2132.78078	0.36486
2130.85241	0.36521
2128.92404	0.36532
2126.99566	0.36526
2125.06729	0.36537
2123.13892	0.36570
2121.21054	0.36630
2119.28217	0.36714
2117.35380	0.36819
2115.42542	0.36925
2113.49705	0.37007
2111.56868	0.37079
2109.64030	0.37159
2107.71193	0.37244
2105.78356	0.37319
2103.85518	0.37366
2101.92681	0.37405
2099.99844	0.37463
2098.07006	0.37539
2096.14169	0.37616
2094.21332	0.37676
2092.28494	0.37721
2090.35657	0.37758
2088.42820	0.37775
2086.49983	0.37789
2084.57145	0.37841
2082.64308	0.37915
2080.71471	0.37951
2078.78633	0.37941
2076.85796	0.37941
2074.92959	0.37962
2073.00121	0.37971
2071.07284	0.37968
2069.14447	0.37985
2067.21609	0.38045
2065.28772	0.38139
2063.35935	0.38231
2061.43097	0.38301
2059.50260	0.38344
2057.57423	0.38379
2055.64585	0.38444
2053.71748	0.38550
2051.78911	0.38681
2049.86073	0.38818
2047.93236	0.38936
2046.00399	0.39041
2044.07561	0.39150
2042.14724	0.39260
2040.21887	0.39364
2038.29049	0.39476
2036.36212	0.39605
2034.43375	0.39731
2032.50538	0.39833
2030.57700	0.39927
2028.64863	0.40029
2026.72026	0.40124
2024.79188	0.40208
2022.86351	0.40310
2020.93514	0.40441
2019.00676	0.40575
2017.07839	0.40678
2015.15002	0.40745
2013.22164	0.40808
2011.29327	0.40888
2009.36490	0.40982
2007.43652	0.41092
2005.50815	0.41226
2003.57978	0.41374
2001.65140	0.41517
1999.72303	0.41648
1997.79466	0.41760
1995.86628	0.41858
1993.93791	0.41984
1992.00954	0.42122
1990.08116	0.42196
1988.15279	0.42210
1986.22442	0.42231
1984.29604	0.42289
1982.36767	0.42374
1980.43930	0.42451
1978.51092	0.42494
1976.58255	0.42524
1974.65418	0.42570
1972.72581	0.42633
1970.79743	0.42730
1968.86906	0.42852
1966.94069	0.42941
1965.01231	0.42981
1963.08394	0.43022
1961.15557	0.43097
1959.22719	0.43192
1957.29882	0.43292
1955.37045	0.43397
1953.44207	0.43496
1951.51370	0.43579
1949.58533	0.43664
1947.65695	0.43772
1945.72858	0.43928
1943.80021	0.44126
1941.87183	0.44272
1939.94346	0.44326
1938.01509	0.44370
1936.08671	0.44430
1934.15834	0.44502
1932.22997	0.44587
1930.30159	0.44676
1928.37322	0.44771
1926.44485	0.44886
1924.51647	0.45036
1922.58810	0.45177
1920.65973	0.45255
1918.73135	0.45307
1916.80298	0.45342
1914.87461	0.45368
1912.94624	0.45436
1911.01786	0.45533
1909.08949	0.45596
1907.16112	0.45603
1905.23274	0.45581
1903.30437	0.45553
1901.37600	0.45536
1899.44762	0.45557
1897.51925	0.45615
1895.59088	0.45667
1893.66250	0.45694
1891.73413	0.45747
1889.80576	0.45812
1887.87738	0.45783
1885.94901	0.45705
1884.02064	0.45697
1882.09226	0.45751
1880.16389	0.45790
1878.23552	0.45782
1876.30714	0.45783
1874.37877	0.45838
1872.45040	0.45948
1870.52202	0.46124
1868.59365	0.46249
1866.66528	0.46153
1864.73690	0.45977
1862.80853	0.45885
1860.88016	0.45855
1858.95179	0.45837
1857.02341	0.45823
1855.09504	0.45808
1853.16667	0.45784
1851.23829	0.45774
1849.30992	0.45794
1847.38155	0.45854
1845.45317	0.45955
1843.52480	0.45973
1841.59643	0.45836
1839.66805	0.45714
1837.73968	0.45697
1835.81131	0.45726
1833.88293	0.45775
1831.95456	0.45903
1830.02619	0.46010
1828.09781	0.45930
1826.16944	0.45783
1824.24107	0.45629
1822.31269	0.45445
1820.38432	0.45306
1818.45595	0.45210
1816.52757	0.45090
1814.59920	0.44980
1812.67083	0.44928
1810.74245	0.44832
1808.81408	0.44605
1806.88571	0.44354
1804.95733	0.44180
1803.02896	0.44068
1801.10059	0.43910
1799.17222	0.43614
1797.24384	0.43283
1795.31547	0.43056
1793.38710	0.42876
1791.45872	0.42494
1789.53035	0.41945
1787.60198	0.41501
1785.67360	0.41143
1783.74523	0.40775
1781.81686	0.40419
1779.88848	0.40041
1777.96011	0.39648
1776.03174	0.39374
1774.10336	0.39223
1772.17499	0.38963
1770.24662	0.38447
1768.31824	0.37837
1766.38987	0.37259
1764.46150	0.36821
1762.53312	0.36406
1760.60475	0.35798
1758.67638	0.35110
1756.74800	0.34397
1754.81963	0.33691
1752.89126	0.33051
1750.96288	0.32286
1749.03451	0.31217
1747.10614	0.30028
1745.17777	0.28855
1743.24939	0.27681
1741.32102	0.26430
1739.39265	0.25066
1737.46427	0.23920
1735.53590	0.22975
1733.60753	0.21692
1731.67915	0.20261
1729.75078	0.18977
1727.82241	0.17695
1725.89403	0.16476
1723.96566	0.15259
1722.03729	0.14097
1720.10891	0.13079
1718.18054	0.11857
1716.25217	0.10259
1714.32379	0.08868
1712.39542	0.07694
1710.46705	0.06540
1708.53867	0.05394
1706.61030	0.04179
1704.68193	0.02970
1702.75355	0.02064
1700.82518	0.01352
1698.89681	0.00709
1696.96843	0.00347
1695.04006	0.00183
1693.11169	0.00115
1691.18331	0.00097
1689.25494	0.00080
1687.32657	0.00106
1685.39820	0.00146
1683.46982	0.00104
1681.54145	0.00106
1679.61308	0.00099
1677.68470	0.00072
1675.75633	0.00040
1673.82796	0.00059
1671.89958	0.00058
1669.97121	0.00052
1668.04284	0.00064
1666.11446	0.00075
1664.18609	0.00057
1662.25772	0.00053
1660.32934	0.00066
1658.40097	0.00048
1656.47260	0.00059
1654.54422	0.00078
1652.61585	0.00085
1650.68748	0.00050
1648.75910	0.00054
1646.83073	0.00108
1644.90236	0.00131
1642.97398	0.00103
1641.04561	0.00085
1639.11724	0.00088
1637.18886	0.00096
1635.26049	0.00091
1633.33212	0.00079
1631.40375	0.00067
1629.47537	0.00065
1627.54700	0.00046
1625.61863	0.00023
1623.69025	0.00047
1621.76188	0.00057
1619.83351	0.00081
1617.90513	0.00133
1615.97676	0.00143
1614.04839	0.00091
1612.12001	0.00032
1610.19164	0.00048
1608.26327	0.00056
1606.33489	0.00043
1604.40652	0.00042
1602.47815	0.00039
1600.54977	0.00054
1598.62140	0.00067
1596.69303	0.00056
1594.76465	0.00030
1592.83628	0.00039
1590.90791	0.00029
1588.97953	0.00026
1587.05116	0.00049
1585.12279	0.00039
1583.19441	0.00029
1581.26604	0.00037
1579.33767	0.00040
1577.40929	0.00034
1575.48092	0.00050
1573.55255	0.00070
1571.62418	0.00072
1569.69580	0.00088
1567.76743	0.00087
1565.83906	0.00067
1563.91068	0.00091
1561.98231	0.00112
1560.05394	0.00146
1558.12556	0.00178
1556.19719	0.00083
1554.26882	0.00035
1552.34044	0.00038
1550.41207	0.00033
1548.48370	0.00057
1546.55532	0.00069
1544.62695	0.00093
1542.69858	0.00121
1540.77020	0.00140
1538.84183	0.00123
1536.91346	0.00096
1534.98508	0.00065
1533.05671	0.00055
1531.12834	0.00041
1529.19996	0.00019
1527.27159	0.00038
1525.34322	0.00048
1523.41484	0.00052
1521.48647	0.00078
1519.55810	0.00087
1517.62972	0.00083
1515.70135	0.00105
1513.77298	0.00090
1511.84461	0.00068
1509.91623	0.00098
1507.98786	0.00139
1506.05949	0.00129
1504.13111	0.00057
1502.20274	0.00053
1500.27437	0.00102
1498.34599	0.00123
1496.41762	0.00157
1494.48925	0.00229
1492.56087	0.00303
1490.63250	0.00346
1488.70413	0.00357
1486.77575	0.00408
1484.84738	0.00506
1482.91901	0.00598
1480.99063	0.00641
1479.06226	0.00623
1477.13389	0.00568
1475.20551	0.00512
1473.27714	0.00472
1471.34877	0.00407
1469.42039	0.00339
1467.49202	0.00317
1465.56365	0.00304
1463.63527	0.00246
1461.70690	0.00187
1459.77853	0.00152
1457.85016	0.00143
1455.92178	0.00148
1453.99341	0.00153
1452.06504	0.00121
1450.13666	0.00083
1448.20829	0.00053
1446.27992	0.00040
1444.35154	0.00043
1442.42317	0.00027
1440.49480	0.00035
1438.56642	0.00055
1436.63805	0.00071
1434.70968	0.00096
1432.78130	0.00107
1430.85293	0.00109
1428.92456	0.00120
1426.99618	0.00123
1425.06781	0.00103
1423.13944	0.00098
1421.21106	0.00081
1419.28269	0.00049
1417.35432	0.00062
1415.42594	0.00097
1413.49757	0.00156
1411.56920	0.00172
1409.64082	0.00134
1407.71245	0.00113
1405.78408	0.00128
1403.85570	0.00140
1401.92733	0.00140
1399.99896	0.00151
1398.07059	0.00152
1396.14221	0.00132
1394.21384	0.00123
1392.28547	0.00150
1390.35709	0.00159
1388.42872	0.00112
1386.50035	0.00078
1384.57197	0.00095
1382.64360	0.00106
1380.71523	0.00102
1378.78685	0.00088
1376.85848	0.00058
1374.93011	0.00065
1373.00173	0.00105
1371.07336	0.00126
1369.14499	0.00143
1367.21661	0.00176
1365.28824	0.00229
1363.35987	0.00299
1361.43149	0.00436
1359.50312	0.00581
1357.57475	0.00678
1355.64637	0.00735
1353.71800	0.00782
1351.78963	0.00835
1349.86125	0.00891
1347.93288	0.00921
1346.00451	0.00912
1344.07614	0.00892
1342.14776	0.00852
1340.21939	0.00766
1338.29102	0.00669
1336.36264	0.00607
1334.43427	0.00565
1332.50590	0.00491
1330.57752	0.00394
1328.64915	0.00310
1326.72078	0.00246
1324.79240	0.00219
1322.86403	0.00219
1320.93566	0.00225
1319.00728	0.00227
1317.07891	0.00222
1315.15054	0.00218
1313.22216	0.00190
1311.29379	0.00168
1309.36542	0.00188
1307.43704	0.00232
1305.50867	0.00253
1303.58030	0.00243
1301.65192	0.00259
1299.72355	0.00296
1297.79518	0.00309
1295.86680	0.00311
1293.93843	0.00308
1292.01006	0.00281
1290.08168	0.00265
1288.15331	0.00275
1286.22494	0.00257
1284.29657	0.00196
1282.36819	0.00150
1280.43982	0.00169
1278.51145	0.00210
1276.58307	0.00226
1274.65470	0.00209
1272.72633	0.00170
1270.79795	0.00133
1268.86958	0.00126
1266.94121	0.00125
1265.01283	0.00116
1263.08446	0.00121
1261.15609	0.00125
1259.22771	0.00115
1257.29934	0.00150
1255.37097	0.00179
1253.44259	0.00193
1251.51422	0.00239
1249.58585	0.00292
1247.65747	0.00282
1245.72910	0.00254
1243.80073	0.00263
1241.87235	0.00293
1239.94398	0.00301
1238.01561	0.00290
1236.08723	0.00304
1234.15886	0.00354
1232.23049	0.00417
1230.30212	0.00475
1228.37374	0.00571
1226.44537	0.00700
1224.51700	0.00800
1222.58862	0.00835
1220.66025	0.00826
1218.73188	0.00816
1216.80350	0.00840
1214.87513	0.00871
1212.94676	0.00838
1211.01838	0.00717
1209.09001	0.00598
1207.16164	0.00591
1205.23326	0.00651
1203.30489	0.00730
1201.37652	0.00921
1199.44814	0.01248
1197.51977	0.01590
1195.59140	0.01834
1193.66302	0.01949
1191.73465	0.02026
1189.80628	0.02168
1187.87790	0.02313
1185.94953	0.02328
1184.02116	0.02213
1182.09278	0.02051
1180.16441	0.01833
1178.23604	0.01531
1176.30766	0.01224
1174.37929	0.01008
1172.45092	0.00819
1170.52255	0.00586
1168.59417	0.00375
1166.66580	0.00224
1164.73743	0.00141
1162.80905	0.00144
1160.88068	0.00139
1158.95231	0.00164
1157.02393	0.00145
1155.09556	0.00128
1153.16719	0.00165
1151.23881	0.00149
1149.31044	0.00121
1147.38207	0.00241
1145.45369	0.00410
1143.52532	0.00605
1141.59695	0.00792
1139.66857	0.00884
1137.74020	0.00855
1135.81183	0.00798
1133.88345	0.00778
1131.95508	0.00723
1130.02671	0.00582
1128.09833	0.00413
1126.16996	0.00271
1124.24159	0.00218
1122.31321	0.00160
1120.38484	0.00068
1118.45647	0.00099
1116.52809	0.00159
1114.59972	0.00154
1112.67135	0.00116
1110.74298	0.00121
1108.81460	0.00155
1106.88623	0.00180
1104.95786	0.00223
1103.02948	0.00276
1101.10111	0.00296
1099.17274	0.00312
1097.24436	0.00308
1095.31599	0.00271
1093.38762	0.00197
1091.45924	0.00063
1089.53087	0.00105
1087.60250	0.00131
1085.67412	0.00103
1083.74575	0.00213
1081.81738	0.00292
1079.88900	0.00193
1077.96063	0.00149
1076.03226	0.00163
1074.10388	0.00100
1072.17551	0.00081
1070.24714	0.00163
1068.31876	0.00102
1066.39039	0.00050
1064.46202	0.00073
1062.53364	0.00156
1060.60527	0.00196
1058.67690	0.00169
1056.74853	0.00138
1054.82015	0.00183
1052.89178	0.00278
1050.96341	0.00297
1049.03503	0.00227
1047.10666	0.00188
1045.17829	0.00208
1043.24991	0.00212
1041.32154	0.00153
1039.39317	0.00102
1037.46479	0.00125
1035.53642	0.00070
1033.60805	0.00118
1031.67967	0.00191
1029.75130	0.00183
1027.82293	0.00174
1025.89455	0.00122
1023.96618	0.00119
1022.03781	0.00112
1020.10943	0.00055
1018.18106	0.00097
1016.25269	0.00127
1014.32431	0.00104
1012.39594	0.00094
1010.46757	0.00107
1008.53919	0.00232
1006.61082	0.00479
1004.68245	0.00827
1002.75407	0.01167
1000.82570	0.01491
998.89733	0.01899
996.96896	0.02381
995.04058	0.02833
993.11221	0.03237
991.18384	0.03670
989.25546	0.04149
987.32709	0.04577
985.39872	0.04826
983.47034	0.04850
981.54197	0.04660
979.61360	0.04261
977.68522	0.03808
975.75685	0.03566
973.82848	0.03656
971.90010	0.04069
969.97173	0.04743
968.04336	0.05544
966.11498	0.06282
964.18661	0.06692
962.25824	0.06527
960.32986	0.05699
958.40149	0.04380
956.47312	0.03159
954.54474	0.02651
952.61637	0.02956
950.68800	0.03805
948.75962	0.04883
946.83125	0.05978
944.90288	0.07038
942.97451	0.08067
941.04613	0.09006
939.11776	0.09807
937.18939	0.10505
935.26101	0.11082
933.33264	0.11487
931.40427	0.11798
929.47589	0.12111
927.54752	0.12364
925.61915	0.12461
923.69077	0.12404
921.76240	0.12301
919.83403	0.12374
917.90565	0.12719
915.97728	0.13181
914.04891	0.13557
912.12053	0.13677
910.19216	0.13464
908.26379	0.12929
906.33541	0.12083
904.40704	0.11035
902.47867	0.09968
900.55029	0.09065
898.62192	0.08485
896.69355	0.08279
894.76517	0.08421
892.83680	0.08838
890.90843	0.09453
888.98005	0.10229
887.05168	0.11001
885.12331	0.11568
883.19494	0.12002
881.26656	0.12408
879.33819	0.12697
877.40982	0.12830
875.48144	0.12884
873.55307	0.12884
871.62470	0.12847
869.69632	0.12853
867.76795	0.12881
865.83958	0.12842
863.91120	0.12773
861.98283	0.12722
860.05446	0.12616
858.12608	0.12410
856.19771	0.12138
854.26934	0.11859
852.34096	0.11652
850.41259	0.11522
848.48422	0.11414
846.55584	0.11313
844.62747	0.11144
842.69910	0.10824
840.77072	0.10400
838.84235	0.09968
836.91398	0.09578
834.98560	0.09213
833.05723	0.08831
831.12886	0.08432
829.20049	0.08025
827.27211	0.07620
825.34374	0.07289
823.41537	0.07088
821.48699	0.06940
819.55862	0.06705
817.63025	0.06406
815.70187	0.06203
813.77350	0.06146
811.84513	0.06168
809.91675	0.06200
807.98838	0.06162
806.06001	0.06047
804.13163	0.05931
802.20326	0.05802
800.27489	0.05608
798.34651	0.05368
796.41814	0.05179
794.48977	0.05121
792.56139	0.05091
790.63302	0.04876
788.70465	0.04489
786.77627	0.04188
784.84790	0.04038
782.91953	0.03863
780.99115	0.03609
779.06278	0.03346
777.13441	0.03131
775.20603	0.02965
773.27766	0.02799
771.34929	0.02607
769.42092	0.02441
767.49254	0.02336
765.56417	0.02213
763.63580	0.02076
761.70742	0.01996
759.77905	0.01891
757.85068	0.01699
755.92230	0.01535
753.99393	0.01427
752.06556	0.01360
750.13718	0.01395
748.20881	0.01441
746.28044	0.01376
744.35206	0.01290
742.42369	0.01289
740.49532	0.01310
738.56694	0.01242
736.63857	0.01170
734.71020	0.01214
732.78182	0.01266
730.85345	0.01201
728.92508	0.01103
726.99670	0.01029
725.06833	0.00929
723.13996	0.00829
721.21158	0.00791
719.28321	0.00801
717.35484	0.00815
715.42647	0.00810
713.49809	0.00805
711.56972	0.00828
709.64135	0.00847
707.71297	0.00862
705.78460	0.00902
703.85623	0.00935
701.92785	0.00909
699.99948	0.00824
698.07111	0.00775
696.14273	0.00815
694.21436	0.00833
692.28599	0.00787
690.35761	0.00801
688.42924	0.00888
686.50087	0.00878
684.57249	0.00793
682.64412	0.00736
680.71575	0.00756
678.78737	0.00831
676.85900	0.00811
674.93063	0.00735
673.00225	0.00627
671.07388	0.00574
669.14551	0.00785
667.21713	0.01108
665.28876	0.01185
663.36039	0.01111
661.43201	0.00994
659.50364	0.00697
657.57527	0.00675
655.64690	0.00908
653.71852	0.01068
651.79015	0.00928
649.86178	0.00752
647.93340	0.00780
646.00503	0.00812
644.07666	0.00827
642.14828	0.00778
640.21991	0.00668
638.29154	0.00580
636.36316	0.00797
634.43479	0.01019
632.50642	0.01097
630.57804	0.00984
628.64967	0.00604
626.72130	0.00350
624.79292	0.00579
622.86455	0.00628
620.93618	0.00467
619.00780	0.00281
617.07943	0.00420
615.15106	0.00409
613.22268	0.00555
611.29431	0.00591
609.36594	0.00653
607.43756	0.00739
605.50919	0.00756
603.58082	0.00725
601.65244	0.00948
599.72407	0.01532
