3997.51769	0.73004
3995.58931	0.72995
3993.66094	0.73015
3991.73257	0.73053
3989.80419	0.73105
3987.87582	0.73138
3985.94745	0.73091
3984.01907	0.72993
3982.09070	0.72972
3980.16233	0.73038
3978.23396	0.73085
3976.30558	0.73108
3974.37721	0.73165
3972.44884	0.73220
3970.52046	0.73217
3968.59209	0.73192
3966.66372	0.73206
3964.73534	0.73268
3962.80697	0.73359
3960.87860	0.73431
3958.95022	0.73467
3957.02185	0.73492
3955.09348	0.73506
3953.16510	0.73520
3951.23673	0.73610
3949.30836	0.73754
3947.37998	0.73781
3945.45161	0.73740
3943.52324	0.73767
3941.59486	0.73744
3939.66649	0.73626
3937.73812	0.73564
3935.80974	0.73640
3933.88137	0.73827
3931.95300	0.73986
3930.02462	0.73978
3928.09625	0.73920
3926.16788	0.73998
3924.23950	0.74099
3922.31113	0.74048
3920.38276	0.74033
3918.45439	0.74168
3916.52601	0.74178
3914.59764	0.73972
3912.66927	0.73783
3910.74089	0.73720
3908.81252	0.73831
3906.88415	0.74202
3904.95577	0.74750
3903.02740	0.75145
3901.09903	0.75177
3899.17065	0.74891
3897.24228	0.74532
3895.31391	0.74410
3893.38553	0.74534
3891.45716	0.74601
3889.52879	0.74507
3887.60041	0.74587
3885.67204	0.74808
3883.74367	0.74855
3881.81529	0.74843
3879.88692	0.74726
3877.95855	0.74470
3876.03017	0.74475
3874.10180	0.74759
3872.17343	0.75042
3870.24505	0.75173
3868.31668	0.75058
3866.38831	0.74966
3864.45994	0.75043
3862.53156	0.74963
3860.60319	0.74740
3858.67482	0.74744
3856.74644	0.75071
3854.81807	0.75647
3852.88970	0.75932
3850.96132	0.75417
3849.03295	0.74862
3847.10458	0.74631
3845.17620	0.74767
3843.24783	0.75150
3841.31946	0.75569
3839.39108	0.75863
3837.46271	0.75785
3835.53434	0.75396
3833.60596	0.75058
3831.67759	0.74855
3829.74922	0.74805
3827.82084	0.74864
3825.89247	0.74893
3823.96410	0.75031
3822.03572	0.75455
3820.10735	0.75691
3818.17898	0.75595
3816.25060	0.75480
3814.32223	0.75102
3812.39386	0.74674
3810.46548	0.74564
3808.53711	0.74751
3806.60874	0.74956
3804.68037	0.75102
3802.75199	0.75408
3800.82362	0.75518
3798.89525	0.75226
3796.96687	0.74959
3795.03850	0.74653
3793.11013	0.74336
3791.18175	0.74234
3789.25338	0.74294
3787.32501	0.74364
3785.39663	0.74378
3783.46826	0.74386
3781.53989	0.74525
3779.61151	0.74667
3777.68314	0.74531
3775.75477	0.74315
3773.82639	0.74321
3771.89802	0.74594
3769.96965	0.74903
3768.04127	0.74940
3766.11290	0.74790
3764.18453	0.74618
3762.25615	0.74595
3760.32778	0.74811
3758.39941	0.74972
3756.47103	0.74922
3754.54266	0.75040
3752.61429	0.75570
3750.68591	0.76103
3748.75754	0.76037
3746.82917	0.75935
3744.90080	0.75945
3742.97242	0.75562
3741.04405	0.75145
3739.11568	0.75162
3737.18730	0.75608
3735.25893	0.76040
3733.33056	0.75797
3731.40218	0.75154
3729.47381	0.74738
3727.54544	0.74650
3725.61706	0.74700
3723.68869	0.74706
3721.76032	0.74608
3719.83194	0.74400
3717.90357	0.74187
3715.97520	0.74169
3714.04682	0.74514
3712.11845	0.75069
3710.19008	0.75054
3708.26170	0.74399
3706.33333	0.73861
3704.40496	0.73698
3702.47658	0.73769
3700.54821	0.73720
3698.61984	0.73486
3696.69146	0.73313
3694.76309	0.73355
3692.83472	0.73675
3690.90635	0.74159
3688.97797	0.74250
3687.04960	0.73683
3685.12123	0.73130
3683.19285	0.72888
3681.26448	0.72918
3679.33611	0.73136
3677.40773	0.73469
3675.47936	0.73632
3673.55099	0.73361
3671.62261	0.73164
3669.69424	0.72931
3667.76587	0.72274
3665.83749	0.71612
3663.90912	0.71161
3661.98075	0.70881
3660.05237	0.70791
3658.12400	0.70868
3656.19563	0.70861
3654.26725	0.70700
3652.33888	0.70815
3650.41051	0.71266
3648.48213	0.71124
3646.55376	0.70063
3644.62539	0.69183
3642.69701	0.68753
3640.76864	0.68494
3638.84027	0.68193
3636.91189	0.67885
3634.98352	0.67669
3633.05515	0.67603
3631.12678	0.67731
3629.19840	0.67761
3627.27003	0.67128
3625.34166	0.66375
3623.41328	0.66004
3621.48491	0.65970
3619.55654	0.65978
3617.62816	0.65715
3615.69979	0.65395
3613.77142	0.65132
3611.84304	0.64767
3609.91467	0.64419
3607.98630	0.64119
3606.05792	0.63637
3604.12955	0.63109
3602.20118	0.62770
3600.27280	0.62530
3598.34443	0.62227
3596.41606	0.61937
3594.48768	0.61676
3592.55931	0.61368
3590.63094	0.61150
3588.70256	0.61065
3586.77419	0.60774
3584.84582	0.60181
3582.91744	0.59658
3580.98907	0.59289
3579.06070	0.58979
3577.13233	0.58675
3575.20395	0.58343
3573.27558	0.58013
3571.34721	0.57809
3569.41883	0.57805
3567.49046	0.57780
3565.56209	0.57365
3563.63371	0.56745
3561.70534	0.56203
3559.77697	0.55747
3557.84859	0.55377
3555.92022	0.55120
3553.99185	0.54925
3552.06347	0.54662
3550.13510	0.54335
3548.20673	0.54070
3546.27835	0.53851
3544.34998	0.53516
3542.42161	0.53053
3540.49323	0.52629
3538.56486	0.52355
3536.63649	0.52151
3534.70811	0.51906
3532.77974	0.51651
3530.85137	0.51378
3528.92299	0.51069
3526.99462	0.50792
3525.06625	0.50557
3523.13787	0.50271
3521.20950	0.49913
3519.28113	0.49584
3517.35276	0.49322
3515.42438	0.49081
3513.49601	0.48835
3511.56764	0.48606
3509.63926	0.48378
3507.71089	0.48084
3505.78252	0.47805
3503.85414	0.47612
3501.92577	0.47388
3499.99740	0.47077
3498.06902	0.46786
3496.14065	0.46560
3494.21228	0.46329
3492.28390	0.46069
3490.35553	0.45809
3488.42716	0.45583
3486.49878	0.45414
3484.57041	0.45277
3482.64204	0.45112
3480.71366	0.44888
3478.78529	0.44668
3476.85692	0.44510
3474.92854	0.44397
3473.00017	0.44276
3471.07180	0.44094
3469.14342	0.43863
3467.21505	0.43634
3465.28668	0.43438
3463.35831	0.43297
3461.42993	0.43207
3459.50156	0.43076
3457.57319	0.42864
3455.64481	0.42665
3453.71644	0.42536
3451.78807	0.42424
3449.85969	0.42272
3447.93132	0.42099
3446.00295	0.41943
3444.07457	0.41819
3442.14620	0.41675
3440.21783	0.41479
3438.28945	0.41316
3436.36108	0.41216
3434.43271	0.41114
3432.50433	0.40979
3430.57596	0.40822
3428.64759	0.40651
3426.71921	0.40488
3424.79084	0.40377
3422.86247	0.40333
3420.93409	0.40309
3419.00572	0.40220
3417.07735	0.40032
3415.14897	0.39825
3413.22060	0.39689
3411.29223	0.39590
3409.36385	0.39449
3407.43548	0.39307
3405.50711	0.39205
3403.57874	0.39080
3401.65036	0.38926
3399.72199	0.38813
3397.79362	0.38736
3395.86524	0.38641
3393.93687	0.38536
3392.00850	0.38418
3390.08012	0.38257
3388.15175	0.38088
3386.22338	0.37979
3384.29500	0.37891
3382.36663	0.37763
3380.43826	0.37625
3378.50988	0.37500
3376.58151	0.37359
3374.65314	0.37178
3372.72476	0.36967
3370.79639	0.36797
3368.86802	0.36702
3366.93964	0.36585
3365.01127	0.36374
3363.08290	0.36147
3361.15452	0.35954
3359.22615	0.35732
3357.29778	0.35474
3355.36940	0.35230
3353.44103	0.35012
3351.51266	0.34814
3349.58428	0.34600
3347.65591	0.34342
3345.72754	0.34096
3343.79917	0.33879
3341.87079	0.33673
3339.94242	0.33464
3338.01405	0.33180
3336.08567	0.32844
3334.15730	0.32576
3332.22893	0.32341
3330.30055	0.32034
3328.37218	0.31669
3326.44381	0.31318
3324.51543	0.31004
3322.58706	0.30720
3320.65869	0.30430
3318.73031	0.30115
3316.80194	0.29806
3314.87357	0.29514
3312.94519	0.29216
3311.01682	0.28909
3309.08845	0.28606
3307.16007	0.28315
3305.23170	0.28039
3303.30333	0.27800
3301.37495	0.27617
3299.44658	0.27461
3297.51821	0.27321
3295.58983	0.27197
3293.66146	0.27088
3291.73309	0.27011
3289.80472	0.26963
3287.87634	0.26926
3285.94797	0.26920
3284.01960	0.26939
3282.09122	0.26954
3280.16285	0.27032
3278.23448	0.27235
3276.30610	0.27504
3274.37773	0.27770
3272.44936	0.28020
3270.52098	0.28265
3268.59261	0.28556
3266.66424	0.28924
3264.73586	0.29344
3262.80749	0.29793
3260.87912	0.30248
3258.95074	0.30688
3257.02237	0.31149
3255.09400	0.31656
3253.16562	0.32145
3251.23725	0.32563
3249.30888	0.32948
3247.38050	0.33369
3245.45213	0.33830
3243.52376	0.34274
3241.59538	0.34667
3239.66701	0.35028
3237.73864	0.35377
3235.81026	0.35715
3233.88189	0.36035
3231.95352	0.36318
3230.02515	0.36563
3228.09677	0.36777
3226.16840	0.36974
3224.24003	0.37185
3222.31165	0.37418
3220.38328	0.37652
3218.45491	0.37871
3216.52653	0.38079
3214.59816	0.38291
3212.66979	0.38518
3210.74141	0.38783
3208.81304	0.39096
3206.88467	0.39391
3204.95629	0.39589
3203.02792	0.39736
3201.09955	0.39942
3199.17117	0.40198
3197.24280	0.40435
3195.31443	0.40658
3193.38605	0.40915
3191.45768	0.41194
3189.52931	0.41482
3187.60093	0.41780
3185.67256	0.42058
3183.74419	0.42321
3181.81581	0.42585
3179.88744	0.42830
3177.95907	0.43076
3176.03070	0.43356
3174.10232	0.43648
3172.17395	0.43912
3170.24558	0.44119
3168.31720	0.44289
3166.38883	0.44508
3164.46046	0.44788
3162.53208	0.45047
3160.60371	0.45283
3158.67534	0.45532
3156.74696	0.45760
3154.81859	0.45922
3152.89022	0.46037
3150.96184	0.46161
3149.03347	0.46315
3147.10510	0.46476
3145.17672	0.46634
3143.24835	0.46788
3141.31998	0.46940
3139.39160	0.47080
3137.46323	0.47184
3135.53486	0.47267
3133.60648	0.47371
3131.67811	0.47488
3129.74974	0.47570
3127.82136	0.47596
3125.89299	0.47617
3123.96462	0.47670
3122.03624	0.47747
3120.10787	0.47816
3118.17950	0.47821
3116.25113	0.47761
3114.32275	0.47716
3112.39438	0.47718
3110.46601	0.47707
3108.53763	0.47649
3106.60926	0.47582
3104.68089	0.47519
3102.75251	0.47448
3100.82414	0.47394
3098.89577	0.47344
3096.96739	0.47234
3095.03902	0.47099
3093.11065	0.47006
3091.18227	0.46939
3089.25390	0.46883
3087.32553	0.46837
3085.39715	0.46772
3083.46878	0.46674
3081.54041	0.46591
3079.61203	0.46592
3077.68366	0.46651
3075.75529	0.46700
3073.82691	0.46715
3071.89854	0.46707
3069.97017	0.46737
3068.04179	0.46822
3066.11342	0.46891
3064.18505	0.46944
3062.25668	0.47033
3060.32830	0.47163
3058.39993	0.47337
3056.47156	0.47534
3054.54318	0.47709
3052.61481	0.47863
3050.68644	0.48013
3048.75806	0.48188
3046.82969	0.48401
3044.90132	0.48598
3042.97294	0.48760
3041.04457	0.48934
3039.11620	0.49140
3037.18782	0.49342
3035.25945	0.49530
3033.33108	0.49742
3031.40270	0.49963
3029.47433	0.50120
3027.54596	0.50198
3025.61758	0.50281
3023.68921	0.50443
3021.76084	0.50658
3019.83246	0.50873
3017.90409	0.51068
3015.97572	0.51240
3014.04734	0.51396
3012.11897	0.51523
3010.19060	0.51582
3008.26222	0.51564
3006.33385	0.51534
3004.40548	0.51562
3002.47711	0.51639
3000.54873	0.51700
2998.62036	0.51670
2996.69199	0.51539
2994.76361	0.51411
2992.83524	0.51306
2990.90687	0.51166
2988.97849	0.51004
2987.05012	0.50801
2985.12175	0.50539
2983.19337	0.50284
2981.26500	0.50065
2979.33663	0.49851
2977.40825	0.49604
2975.47988	0.49290
2973.55151	0.48900
2971.62313	0.48493
2969.69476	0.48164
2967.76639	0.47949
2965.83801	0.47788
2963.90964	0.47634
2961.98127	0.47538
2960.05289	0.47542
2958.12452	0.47640
2956.19615	0.47819
2954.26777	0.48037
2952.33940	0.48279
2950.41103	0.48534
2948.48266	0.48721
2946.55428	0.48740
2944.62591	0.48596
2942.69754	0.48412
2940.76916	0.48229
2938.84079	0.47996
2936.91242	0.47707
2934.98404	0.47399
2933.05567	0.47126
2931.12730	0.46886
2929.19892	0.46595
2927.27055	0.46231
2925.34218	0.45823
2923.41380	0.45370
2921.48543	0.44928
2919.55706	0.44588
2917.62868	0.44505
2915.70031	0.44969
2913.77194	0.45994
2911.84356	0.47110
2909.91519	0.47960
2907.98682	0.48617
2906.05844	0.49199
2904.13007	0.49664
2902.20170	0.49974
2900.27332	0.50166
2898.34495	0.50294
2896.41658	0.50389
2894.48820	0.50489
2892.55983	0.50672
2890.63146	0.50925
2888.70309	0.51094
2886.77471	0.51109
2884.84634	0.51041
2882.91797	0.50989
2880.98959	0.51005
2879.06122	0.51028
2877.13285	0.51043
2875.20447	0.51096
2873.27610	0.51158
2871.34773	0.51263
2869.41935	0.51518
2867.49098	0.51847
2865.56261	0.52058
2863.63423	0.52127
2861.70586	0.52111
2859.77749	0.51990
2857.84911	0.51759
2855.92074	0.51400
2853.99237	0.50819
2852.06399	0.50023
2850.13562	0.49385
2848.20725	0.49487
2846.27887	0.50467
2844.35050	0.51768
2842.42213	0.52771
2840.49375	0.53359
2838.56538	0.53716
2836.63701	0.53952
2834.70863	0.54121
2832.78026	0.54275
2830.85189	0.54415
2828.92352	0.54519
2826.99514	0.54586
2825.06677	0.54653
2823.13840	0.54757
2821.21002	0.54858
2819.28165	0.54898
2817.35328	0.54907
2815.42490	0.54970
2813.49653	0.55084
2811.56816	0.55162
2809.63978	0.55199
2807.71141	0.55254
2805.78304	0.55282
2803.85466	0.55264
2801.92629	0.55309
2799.99792	0.55449
2798.06954	0.55598
2796.14117	0.55682
2794.21280	0.55698
2792.28442	0.55723
2790.35605	0.55805
2788.42768	0.55898
2786.49930	0.55955
2784.57093	0.55993
2782.64256	0.56034
2780.71418	0.56071
2778.78581	0.56119
2776.85744	0.56186
2774.92907	0.56260
2773.00069	0.56338
2771.07232	0.56409
2769.14395	0.56463
2767.21557	0.56519
2765.28720	0.56571
2763.35883	0.56607
2761.43045	0.56645
2759.50208	0.56703
2757.57371	0.56795
2755.64533	0.56910
2753.71696	0.56985
2751.78859	0.57002
2749.86021	0.57003
2747.93184	0.57010
2746.00347	0.57026
2744.07509	0.57063
2742.14672	0.57127
2740.21835	0.57212
2738.28997	0.57290
2736.36160	0.57327
2734.43323	0.57336
2732.50485	0.57362
2730.57648	0.57426
2728.64811	0.57528
2726.71973	0.57632
2724.79136	0.57692
2722.86299	0.57724
2720.93461	0.57780
2719.00624	0.57866
2717.07787	0.57938
2715.14950	0.57973
2713.22112	0.57977
2711.29275	0.57973
2709.36438	0.57994
2707.43600	0.58039
2705.50763	0.58087
2703.57926	0.58147
2701.65088	0.58217
2699.72251	0.58269
2697.79414	0.58310
2695.86576	0.58340
2693.93739	0.58353
2692.00902	0.58381
2690.08064	0.58417
2688.15227	0.58451
2686.22390	0.58502
2684.29552	0.58542
2682.36715	0.58544
2680.43878	0.58535
2678.51040	0.58555
2676.58203	0.58630
2674.65366	0.58722
2672.72528	0.58780
2670.79691	0.58814
2668.86854	0.58838
2666.94016	0.58846
2665.01179	0.58877
2663.08342	0.58945
2661.15505	0.58982
2659.22667	0.58980
2657.29830	0.58996
2655.36993	0.59016
2653.44155	0.59013
2651.51318	0.59030
2649.58481	0.59083
2647.65643	0.59148
2645.72806	0.59211
2643.79969	0.59243
2641.87131	0.59242
2639.94294	0.59258
2638.01457	0.59310
2636.08619	0.59382
2634.15782	0.59444
2632.22945	0.59477
2630.30107	0.59496
2628.37270	0.59527
2626.44433	0.59572
2624.51595	0.59610
2622.58758	0.59638
2620.65921	0.59659
2618.73083	0.59667
2616.80246	0.59696
2614.87409	0.59747
2612.94571	0.59765
2611.01734	0.59765
2609.08897	0.59808
2607.16059	0.59870
2605.23222	0.59912
2603.30385	0.59963
2601.37548	0.60031
2599.44710	0.60090
2597.51873	0.60139
2595.59036	0.60180
2593.66198	0.60216
2591.73361	0.60265
2589.80524	0.60338
2587.87686	0.60413
2585.94849	0.60461
2584.02012	0.60484
2582.09174	0.60518
2580.16337	0.60566
2578.23500	0.60596
2576.30662	0.60607
2574.37825	0.60644
2572.44988	0.60732
2570.52150	0.60819
2568.59313	0.60856
2566.66476	0.60885
2564.73638	0.60952
2562.80801	0.61013
2560.87964	0.61044
2558.95126	0.61093
2557.02289	0.61163
2555.09452	0.61196
2553.16614	0.61204
2551.23777	0.61239
2549.30940	0.61301
2547.38103	0.61362
2545.45265	0.61411
2543.52428	0.61472
2541.59591	0.61565
2539.66753	0.61657
2537.73916	0.61697
2535.81079	0.61683
2533.88241	0.61681
2531.95404	0.61738
2530.02567	0.61826
2528.09729	0.61901
2526.16892	0.61939
2524.24055	0.61955
2522.31217	0.61983
2520.38380	0.62037
2518.45543	0.62082
2516.52705	0.62109
2514.59868	0.62133
2512.67031	0.62165
2510.74193	0.62224
2508.81356	0.62298
2506.88519	0.62339
2504.95681	0.62365
2503.02844	0.62435
2501.10007	0.62532
2499.17169	0.62591
2497.24332	0.62612
2495.31495	0.62636
2493.38657	0.62677
2491.45820	0.62726
2489.52983	0.62778
2487.60146	0.62831
2485.67308	0.62886
2483.74471	0.62936
2481.81634	0.62967
2479.88796	0.63007
2477.95959	0.63082
2476.03122	0.63166
2474.10284	0.63230
2472.17447	0.63282
2470.24610	0.63331
2468.31772	0.63369
2466.38935	0.63405
2464.46098	0.63455
2462.53260	0.63513
2460.60423	0.63573
2458.67586	0.63640
2456.74748	0.63696
2454.81911	0.63728
2452.89074	0.63768
2450.96236	0.63841
2449.03399	0.63905
2447.10562	0.63942
2445.17724	0.63992
2443.24887	0.64067
2441.32050	0.64126
2439.39212	0.64139
2437.46375	0.64147
2435.53538	0.64188
2433.60700	0.64251
2431.67863	0.64314
2429.75026	0.64382
2427.82189	0.64466
2425.89351	0.64546
2423.96514	0.64591
2422.03677	0.64626
2420.10839	0.64680
2418.18002	0.64740
2416.25165	0.64809
2414.32327	0.64901
2412.39490	0.65003
2410.46653	0.65079
2408.53815	0.65091
2406.60978	0.65073
2404.68141	0.65086
2402.75303	0.65144
2400.82466	0.65219
2398.89629	0.65285
2396.96791	0.65345
2395.03954	0.65415
2393.11117	0.65487
2391.18279	0.65550
2389.25442	0.65613
2387.32605	0.65687
2385.39767	0.65781
2383.46930	0.65896
2381.54093	0.66041
2379.61255	0.66212
2377.68418	0.66394
2375.75581	0.66614
2373.82744	0.66887
2371.89906	0.67189
2369.97069	0.67552
2368.04232	0.67950
2366.11394	0.68275
2364.18557	0.68501
2362.25720	0.68669
2360.32882	0.68778
2358.40045	0.68739
2356.47208	0.68580
2354.54370	0.68402
2352.61533	0.68165
2350.68696	0.67902
2348.75858	0.67768
2346.83021	0.67860
2344.90184	0.68148
2342.97346	0.68394
2341.04509	0.68460
2339.11672	0.68445
2337.18834	0.68422
2335.25997	0.68403
2333.33160	0.68388
2331.40322	0.68388
2329.47485	0.68434
2327.54648	0.68489
2325.61810	0.68498
2323.68973	0.68494
2321.76136	0.68468
2319.83298	0.68360
2317.90461	0.68235
2315.97624	0.68172
2314.04787	0.68157
2312.11949	0.68157
2310.19112	0.68162
2308.26275	0.68152
2306.33437	0.68132
2304.40600	0.68143
2302.47763	0.68191
2300.54925	0.68238
2298.62088	0.68282
2296.69251	0.68321
2294.76413	0.68321
2292.83576	0.68307
2290.90739	0.68328
2288.97901	0.68365
2287.05064	0.68386
2285.12227	0.68410
2283.19389	0.68457
2281.26552	0.68497
2279.33715	0.68530
2277.40877	0.68600
2275.48040	0.68690
2273.55203	0.68748
2271.62365	0.68787
2269.69528	0.68828
2267.76691	0.68850
2265.83853	0.68872
2263.91016	0.68944
2261.98179	0.69036
2260.05342	0.69086
2258.12504	0.69115
2256.19667	0.69155
2254.26830	0.69203
2252.33992	0.69243
2250.41155	0.69258
2248.48318	0.69270
2246.55480	0.69318
2244.62643	0.69388
2242.69806	0.69441
2240.76968	0.69475
2238.84131	0.69522
2236.91294	0.69585
2234.98456	0.69632
2233.05619	0.69666
2231.12782	0.69722
2229.19944	0.69794
2227.27107	0.69855
2225.34270	0.69893
2223.41432	0.69914
2221.48595	0.69937
2219.55758	0.69969
2217.62920	0.70011
2215.70083	0.70071
2213.77246	0.70135
2211.84408	0.70167
2209.91571	0.70171
2207.98734	0.70186
2206.05896	0.70222
2204.13059	0.70271
2202.20222	0.70333
2200.27385	0.70392
2198.34547	0.70443
2196.41710	0.70506
2194.48873	0.70564
2192.56035	0.70597
2190.63198	0.70626
2188.70361	0.70671
2186.77523	0.70715
2184.84686	0.70755
2182.91849	0.70791
2180.99011	0.70804
2179.06174	0.70827
2177.13337	0.70899
2175.20499	0.70976
2173.27662	0.71013
2171.34825	0.71034
2169.41987	0.71063
2167.49150	0.71095
2165.56313	0.71139
2163.63475	0.71209
2161.70638	0.71269
2159.77801	0.71288
2157.84963	0.71295
2155.92126	0.71328
2153.99289	0.71382
2152.06451	0.71435
2150.13614	0.71471
2148.20777	0.71489
2146.27940	0.71500
2144.35102	0.71520
2142.42265	0.71550
2140.49428	0.71597
2138.56590	0.71659
2136.63753	0.71705
2134.70916	0.71736
2132.78078	0.71778
2130.85241	0.71820
2128.92404	0.71848
2126.99566	0.71890
2125.06729	0.71952
2123.13892	0.72015
2121.21054	0.72095
2119.28217	0.72176
2117.35380	0.72223
2115.42542	0.72234
2113.49705	0.72234
2111.56868	0.72258
2109.64030	0.72320
2107.71193	0.72398
2105.78356	0.72452
2103.85518	0.72466
2101.92681	0.72471
2099.99844	0.72490
2098.07006	0.72515
2096.14169	0.72550
2094.21332	0.72607
2092.28494	0.72670
2090.35657	0.72719
2088.42820	0.72753
2086.49983	0.72789
2084.57145	0.72852
2082.64308	0.72927
2080.71471	0.72976
2078.78633	0.72986
2076.85796	0.72992
2074.92959	0.73037
2073.00121	0.73113
2071.07284	0.73186
2069.14447	0.73247
2067.21609	0.73305
2065.28772	0.73362
2063.35935	0.73407
2061.43097	0.73446
2059.50260	0.73476
2057.57423	0.73489
2055.64585	0.73507
2053.71748	0.73549
2051.78911	0.73602
2049.86073	0.73643
2047.93236	0.73675
2046.00399	0.73717
2044.07561	0.73766
2042.14724	0.73819
2040.21887	0.73871
2038.29049	0.73907
2036.36212	0.73939
2034.43375	0.73994
2032.50538	0.74065
2030.57700	0.74131
2028.64863	0.74182
2026.72026	0.74207
2024.79188	0.74226
2022.86351	0.74279
2020.93514	0.74366
2019.00676	0.74440
2017.07839	0.74466
2015.15002	0.74481
2013.22164	0.74520
2011.29327	0.74551
2009.36490	0.74565
2007.43652	0.74578
2005.50815	0.74588
2003.57978	0.74594
2001.65140	0.74619
1999.72303	0.74674
1997.79466	0.74725
1995.86628	0.74773
1993.93791	0.74874
1992.00954	0.74981
1990.08116	0.75005
1988.15279	0.74982
1986.22442	0.74972
1984.29604	0.74989
1982.36767	0.75017
1980.43930	0.75020
1978.51092	0.75016
1976.58255	0.75044
1974.65418	0.75103
1972.72581	0.75158
1970.79743	0.75215
1968.86906	0.75304
1966.94069	0.75367
1965.01231	0.75344
1963.08394	0.75316
1961.15557	0.75342
1959.22719	0.75389
1957.29882	0.75435
1955.37045	0.75458
1953.44207	0.75448
1951.51370	0.75446
1949.58533	0.75492
1947.65695	0.75579
1945.72858	0.75711
1943.80021	0.75868
1941.87183	0.75930
1939.94346	0.75853
1938.01509	0.75778
1936.08671	0.75765
1934.15834	0.75775
1932.22997	0.75799
1930.30159	0.75833
1928.37322	0.75861
1926.44485	0.75914
1924.51647	0.76034
1922.58810	0.76136
1920.65973	0.76179
1918.73135	0.76225
1916.80298	0.76183
1914.87461	0.76053
1912.94624	0.76040
1911.01786	0.76188
1909.08949	0.76321
1907.16112	0.76301
1905.23274	0.76204
1903.30437	0.76147
1901.37600	0.76134
1899.44762	0.76137
1897.51925	0.76174
1895.59088	0.76240
1893.66250	0.76292
1891.73413	0.76367
1889.80576	0.76443
1887.87738	0.76387
1885.94901	0.76261
1884.02064	0.76203
1882.09226	0.76218
1880.16389	0.76245
1878.23552	0.76243
1876.30714	0.76253
1874.37877	0.76314
1872.45040	0.76464
1870.52202	0.76750
1868.59365	0.76968
1866.66528	0.76848
1864.73690	0.76624
1862.80853	0.76530
1860.88016	0.76513
1858.95179	0.76498
1857.02341	0.76486
1855.09504	0.76484
1853.16667	0.76492
1851.23829	0.76525
1849.30992	0.76632
1847.38155	0.76842
1845.45317	0.77078
1843.52480	0.77084
1841.59643	0.76825
1839.66805	0.76634
1837.73968	0.76613
1835.81131	0.76646
1833.88293	0.76731
1831.95456	0.76982
1830.02619	0.77253
1828.09781	0.77242
1826.16944	0.77094
1824.24107	0.76938
1822.31269	0.76746
1820.38432	0.76625
1818.45595	0.76592
1816.52757	0.76594
1814.59920	0.76658
1812.67083	0.76812
1810.74245	0.76921
1808.81408	0.76847
1806.88571	0.76724
1804.95733	0.76723
1803.02896	0.76867
1801.10059	0.77016
1799.17222	0.77014
1797.24384	0.76950
1795.31547	0.77012
1793.38710	0.77204
1791.45872	0.77180
1789.53035	0.76850
1787.60198	0.76621
1785.67360	0.76591
1783.74523	0.76626
1781.81686	0.76660
1779.88848	0.76627
1777.96011	0.76538
1776.03174	0.76639
1774.10336	0.77006
1772.17499	0.77269
1770.24662	0.77056
1768.31824	0.76662
1766.38987	0.76367
1764.46150	0.76273
1762.53312	0.76332
1760.60475	0.76277
1758.67638	0.76133
1756.74800	0.76012
1754.81963	0.75903
1752.89126	0.76016
1750.96288	0.76358
1749.03451	0.76468
1747.10614	0.76171
1745.17777	0.75825
1743.24939	0.75605
1741.32102	0.75425
1739.39265	0.75170
1737.46427	0.74971
1735.53590	0.75024
1733.60753	0.74935
1731.67915	0.74346
1729.75078	0.73656
1727.82241	0.73009
1725.89403	0.72501
1723.96566	0.72036
1722.03729	0.71627
1720.10891	0.71514
1718.18054	0.71550
1716.25217	0.70849
1714.32379	0.69457
1712.39542	0.68170
1710.46705	0.67019
1708.53867	0.65925
1706.61030	0.64608
1704.68193	0.62929
1702.75355	0.61287
1700.82518	0.59204
1698.89681	0.56344
1696.96843	0.53422
1695.04006	0.50078
1693.11169	0.47174
1691.18331	0.44897
1689.25494	0.42548
1687.32657	0.40452
1685.39820	0.38336
1683.46982	0.35250
1681.54145	0.32603
1679.61308	0.30826
1677.68470	0.29304
1675.75633	0.27653
1673.82796	0.25935
1671.89958	0.24543
1669.97121	0.23095
1668.04284	0.21460
1666.11446	0.20196
1664.18609	0.19048
1662.25772	0.17672
1660.32934	0.16370
1658.40097	0.15390
1656.47260	0.14669
1654.54422	0.14016
1652.61585	0.13289
1650.68748	0.13022
1648.75910	0.13222
1646.83073	0.13790
1644.90236	0.14453
1642.97398	0.15010
1641.04561	0.15592
1639.11724	0.16223
1637.18886	0.16920
1635.26049	0.17646
1633.33212	0.18129
1631.40375	0.18577
1629.47537	0.19327
1627.54700	0.20440
1625.61863	0.21847
1623.69025	0.23729
1621.76188	0.25890
1619.83351	0.27797
1617.90513	0.29941
1615.97676	0.32562
1614.04839	0.34561
1612.12001	0.36090
1610.19164	0.37681
1608.26327	0.39209
1606.33489	0.40466
1604.40652	0.41507
1602.47815	0.42379
1600.54977	0.43059
1598.62140	0.43619
1596.69303	0.44125
1594.76465	0.44554
1592.83628	0.44846
1590.90791	0.45024
1588.97953	0.45117
1587.05116	0.45066
1585.12279	0.44842
1583.19441	0.44497
1581.26604	0.44111
1579.33767	0.43754
1577.40929	0.43269
1575.48092	0.42246
1573.55255	0.41144
1571.62418	0.40308
1569.69580	0.39221
1567.76743	0.37810
1565.83906	0.36466
1563.91068	0.35224
1561.98231	0.34268
1560.05394	0.33277
1558.12556	0.31233
1556.19719	0.29492
1554.26882	0.28408
1552.34044	0.27569
1550.41207	0.27002
1548.48370	0.26688
1546.55532	0.26667
1544.62695	0.26962
1542.69858	0.27534
1540.77020	0.28333
1538.84183	0.28949
1536.91346	0.29225
1534.98508	0.29725
1533.05671	0.30601
1531.12834	0.31429
1529.19996	0.32205
1527.27159	0.33224
1525.34322	0.34297
1523.41484	0.35242
1521.48647	0.36172
1519.55810	0.36848
1517.62972	0.37435
1515.70135	0.38219
1513.77298	0.39177
1511.84461	0.40431
1509.91623	0.42020
1507.98786	0.44078
1506.05949	0.46196
1504.13111	0.47153
1502.20274	0.47881
1500.27437	0.48977
1498.34599	0.50342
1496.41762	0.51580
1494.48925	0.52466
1492.56087	0.53336
1490.63250	0.54449
1488.70413	0.55354
1486.77575	0.55614
1484.84738	0.55654
1482.91901	0.55726
1480.99063	0.55765
1479.06226	0.55675
1477.13389	0.55437
1475.20551	0.55015
1473.27714	0.54240
1471.34877	0.53121
1469.42039	0.52239
1467.49202	0.51735
1465.56365	0.51208
1463.63527	0.50422
1461.70690	0.49874
1459.77853	0.49793
1457.85016	0.49599
1455.92178	0.48674
1453.99341	0.47946
1452.06504	0.47737
1450.13666	0.47835
1448.20829	0.48101
1446.27992	0.48385
1444.35154	0.48701
1442.42317	0.49197
1440.49480	0.49881
1438.56642	0.50731
1436.63805	0.51690
1434.70968	0.52357
1432.78130	0.52759
1430.85293	0.53129
1428.92456	0.53327
1426.99618	0.53323
1425.06781	0.53262
1423.13944	0.53122
1421.21106	0.52942
1419.28269	0.52693
1417.35432	0.52184
1415.42594	0.51611
1413.49757	0.51210
1411.56920	0.50978
1409.64082	0.50856
1407.71245	0.50866
1405.78408	0.50976
1403.85570	0.51035
1401.92733	0.51088
1399.99896	0.51265
1398.07059	0.51447
1396.14221	0.51489
1394.21384	0.51373
1392.28547	0.51143
1390.35709	0.50981
1388.42872	0.51001
1386.50035	0.51079
1384.57197	0.51104
1382.64360	0.51219
1380.71523	0.51503
1378.78685	0.51891
1376.85848	0.52373
1374.93011	0.52894
1373.00173	0.53260
1371.07336	0.53516
1369.14499	0.53891
1367.21661	0.54389
1365.28824	0.54921
1363.35987	0.55458
1361.43149	0.55830
1359.50312	0.55970
1357.57475	0.56034
1355.64637	0.56083
1353.71800	0.56064
1351.78963	0.55971
1349.86125	0.55837
1347.93288	0.55682
1346.00451	0.55528
1344.07614	0.55407
1342.14776	0.55368
1340.21939	0.55351
1338.29102	0.55201
1336.36264	0.54980
1334.43427	0.54865
1332.50590	0.54863
1330.57752	0.54880
1328.64915	0.54874
1326.72078	0.54888
1324.79240	0.54947
1322.86403	0.54980
1320.93566	0.54928
1319.00728	0.54834
1317.07891	0.54738
1315.15054	0.54636
1313.22216	0.54518
1311.29379	0.54362
1309.36542	0.54204
1307.43704	0.54112
1305.50867	0.54036
1303.58030	0.53916
1301.65192	0.53839
1299.72355	0.53876
1297.79518	0.53945
1295.86680	0.53927
1293.93843	0.53807
1292.01006	0.53659
1290.08168	0.53507
1288.15331	0.53322
1286.22494	0.53150
1284.29657	0.53054
1282.36819	0.53029
1280.43982	0.53029
1278.51145	0.53011
1276.58307	0.52957
1274.65470	0.52883
1272.72633	0.52809
1270.79795	0.52749
1268.86958	0.52739
1266.94121	0.52761
1265.01283	0.52724
1263.08446	0.52621
1261.15609	0.52522
1259.22771	0.52429
1257.29934	0.52312
1255.37097	0.52187
1253.44259	0.52065
1251.51422	0.51917
1249.58585	0.51739
1247.65747	0.51558
1245.72910	0.51410
1243.80073	0.51322
1241.87235	0.51287
1239.94398	0.51301
1238.01561	0.51419
1236.08723	0.51674
1234.15886	0.52021
1232.23049	0.52410
1230.30212	0.52858
1228.37374	0.53389
1226.44537	0.53991
1224.51700	0.54651
1222.58862	0.55333
1220.66025	0.55962
1218.73188	0.56547
1216.80350	0.57155
1214.87513	0.57679
1212.94676	0.57988
1211.01838	0.58198
1209.09001	0.58378
1207.16164	0.58360
1205.23326	0.58152
1203.30489	0.58060
1201.37652	0.58216
1199.44814	0.58457
1197.51977	0.58705
1195.59140	0.59012
1193.66302	0.59325
1191.73465	0.59560
1189.80628	0.59707
1187.87790	0.59818
1185.94953	0.59983
1184.02116	0.60147
1182.09278	0.60170
1180.16441	0.60092
1178.23604	0.59997
1176.30766	0.59817
1174.37929	0.59540
1172.45092	0.59324
1170.52255	0.59191
1168.59417	0.59006
1166.66580	0.58780
1164.73743	0.58625
1162.80905	0.58543
1160.88068	0.58506
1158.95231	0.58558
1157.02393	0.58736
1155.09556	0.58993
1153.16719	0.59289
1151.23881	0.59625
1149.31044	0.59954
1147.38207	0.60209
1145.45369	0.60392
1143.52532	0.60533
1141.59695	0.60646
1139.66857	0.60694
1137.74020	0.60615
1135.81183	0.60438
1133.88345	0.60172
1131.95508	0.59821
1130.02671	0.59523
1128.09833	0.59347
1126.16996	0.59201
1124.24159	0.59023
1122.31321	0.58867
1120.38484	0.58819
1118.45647	0.58772
1116.52809	0.58583
1114.59972	0.58419
1112.67135	0.58458
1110.74298	0.58612
1108.81460	0.58720
1106.88623	0.58703
1104.95786	0.58637
1103.02948	0.58644
1101.10111	0.58681
1099.17274	0.58628
1097.24436	0.58509
1095.31599	0.58444
1093.38762	0.58392
1091.45924	0.58227
1089.53087	0.57970
1087.60250	0.57663
1085.67412	0.57250
1083.74575	0.56761
1081.81738	0.56366
1079.88900	0.56152
1077.96063	0.55998
1076.03226	0.55840
1074.10388	0.55804
1072.17551	0.55944
1070.24714	0.56202
1068.31876	0.56561
1066.39039	0.56934
1064.46202	0.57186
1062.53364	0.57287
1060.60527	0.57309
1058.67690	0.57378
1056.74853	0.57546
1054.82015	0.57727
1052.89178	0.57789
1050.96341	0.57745
1049.03503	0.57723
1047.10666	0.57684
1045.17829	0.57537
1043.24991	0.57392
1041.32154	0.57294
1039.39317	0.57073
1037.46479	0.56681
1035.53642	0.56314
1033.60805	0.56071
1031.67967	0.55839
1029.75130	0.55625
1027.82293	0.55546
1025.89455	0.55588
1023.96618	0.55734
1022.03781	0.55952
1020.10943	0.56179
1018.18106	0.56482
1016.25269	0.56854
1014.32431	0.57155
1012.39594	0.57408
1010.46757	0.57730
1008.53919	0.58095
1006.61082	0.58380
1004.68245	0.58547
1002.75407	0.58696
1000.82570	0.58901
998.89733	0.59119
996.96896	0.59318
995.04058	0.59479
993.11221	0.59590
991.18384	0.59702
989.25546	0.59814
987.32709	0.59898
985.39872	0.59972
983.47034	0.60029
981.54197	0.60078
979.61360	0.60175
977.68522	0.60313
975.75685	0.60434
973.82848	0.60540
971.90010	0.60638
969.97173	0.60723
968.04336	0.60827
966.11498	0.60977
964.18661	0.61132
962.25824	0.61190
960.32986	0.61160
958.40149	0.61111
956.47312	0.61042
954.54474	0.61037
952.61637	0.61238
950.68800	0.61525
948.75962	0.61652
946.83125	0.61665
944.90288	0.61733
942.97451	0.61830
941.04613	0.61897
939.11776	0.61942
937.18939	0.61966
935.26101	0.61991
933.33264	0.62043
931.40427	0.62111
929.47589	0.62184
927.54752	0.62248
925.61915	0.62301
923.69077	0.62389
921.76240	0.62500
919.83403	0.62587
917.90565	0.62657
915.97728	0.62686
914.04891	0.62650
912.12053	0.62580
910.19216	0.62560
908.26379	0.62659
906.33541	0.62789
904.40704	0.62844
902.47867	0.62826
900.55029	0.62803
898.62192	0.62876
896.69355	0.63049
894.76517	0.63188
892.83680	0.63192
890.90843	0.63179
888.98005	0.63234
887.05168	0.63263
885.12331	0.63271
883.19494	0.63270
881.26656	0.63176
879.33819	0.63066
877.40982	0.63079
875.48144	0.63181
873.55307	0.63242
871.62470	0.63279
869.69632	0.63419
867.76795	0.63647
865.83958	0.63868
863.91120	0.64029
861.98283	0.64126
860.05446	0.64166
858.12608	0.64090
856.19771	0.63875
854.26934	0.63681
852.34096	0.63673
850.41259	0.63774
848.48422	0.63794
846.55584	0.63751
844.62747	0.63787
842.69910	0.63854
840.77072	0.63836
838.84235	0.63805
836.91398	0.63800
834.98560	0.63704
833.05723	0.63531
831.12886	0.63449
829.20049	0.63532
827.27211	0.63703
825.34374	0.63828
823.41537	0.63840
821.48699	0.63770
819.55862	0.63676
817.63025	0.63568
815.70187	0.63436
813.77350	0.63363
811.84513	0.63365
809.91675	0.63318
807.98838	0.63231
806.06001	0.63167
804.13163	0.63043
802.20326	0.62855
800.27489	0.62722
798.34651	0.62646
796.41814	0.62539
794.48977	0.62392
792.56139	0.62226
790.63302	0.62068
788.70465	0.61919
786.77627	0.61723
784.84790	0.61589
782.91953	0.61592
780.99115	0.61489
779.06278	0.61238
777.13441	0.61099
775.20603	0.61065
773.27766	0.61019
771.34929	0.60991
769.42092	0.60926
767.49254	0.60831
765.56417	0.60818
763.63580	0.60781
761.70742	0.60582
759.77905	0.60328
757.85068	0.60204
755.92230	0.60286
753.99393	0.60439
752.06556	0.60494
750.13718	0.60451
748.20881	0.60305
746.28044	0.60070
744.35206	0.59923
742.42369	0.59967
740.49532	0.60043
738.56694	0.59960
736.63857	0.59775
734.71020	0.59677
732.78182	0.59673
730.85345	0.59584
728.92508	0.59311
726.99670	0.58961
725.06833	0.58713
723.13996	0.58491
721.21158	0.58081
719.28321	0.57652
717.35484	0.57485
715.42647	0.57491
713.49809	0.57510
711.56972	0.57452
709.64135	0.57252
707.71297	0.57011
705.78460	0.56862
703.85623	0.56725
701.92785	0.56480
699.99948	0.56283
698.07111	0.56271
696.14273	0.56326
694.21436	0.56342
692.28599	0.56350
690.35761	0.56425
688.42924	0.56564
686.50087	0.56672
684.57249	0.56642
682.64412	0.56477
680.71575	0.56360
678.78737	0.56317
676.85900	0.56213
674.93063	0.56069
673.00225	0.55937
671.07388	0.55805
669.14551	0.55606
667.21713	0.55353
665.28876	0.55363
663.36039	0.55597
661.43201	0.55787
659.50364	0.55812
657.57527	0.55823
655.64690	0.55828
653.71852	0.55805
651.79015	0.55882
649.86178	0.56096
647.93340	0.56378
646.00503	0.56557
644.07666	0.56535
642.14828	0.56480
640.21991	0.56533
638.29154	0.56614
636.36316	0.56590
634.43479	0.56584
632.50642	0.56803
630.57804	0.57179
628.64967	0.57451
626.72130	0.57302
624.79292	0.56859
622.86455	0.56707
620.93618	0.56885
619.00780	0.56998
617.07943	0.56834
615.15106	0.56545
613.22268	0.56456
611.29431	0.56579
609.36594	0.56817
607.43756	0.57244
605.50919	0.57783
603.58082	0.58321
601.65244	0.58978
599.72407	0.59542
