3997.51769	0.45367
3995.58931	0.45363
3993.66094	0.45339
3991.73257	0.45378
3989.80419	0.45471
3987.87582	0.45508
3985.94745	0.45491
3984.01907	0.45543
3982.09070	0.45666
3980.16233	0.45744
3978.23396	0.45755
3976.30558	0.45751
3974.37721	0.45754
3972.44884	0.45774
3970.52046	0.45795
3968.59209	0.45823
3966.66372	0.45882
3964.73534	0.45962
3962.80697	0.46073
3960.87860	0.46193
3958.95022	0.46265
3957.02185	0.46318
3955.09348	0.46410
3953.16510	0.46542
3951.23673	0.46682
3949.30836	0.46780
3947.37998	0.46804
3945.45161	0.46833
3943.52324	0.46931
3941.59486	0.47005
3939.66649	0.47007
3937.73812	0.46995
3935.80974	0.47023
3933.88137	0.47162
3931.95300	0.47353
3930.02462	0.47424
3928.09625	0.47438
3926.16788	0.47542
3924.23950	0.47665
3922.31113	0.47723
3920.38276	0.47795
3918.45439	0.47893
3916.52601	0.47897
3914.59764	0.47787
3912.66927	0.47726
3910.74089	0.47796
3908.81252	0.47970
3906.88415	0.48309
3904.95577	0.48801
3903.02740	0.49155
3901.09903	0.49183
3899.17065	0.49013
3897.24228	0.48845
3895.31391	0.48852
3893.38553	0.49013
3891.45716	0.49115
3889.52879	0.49076
3887.60041	0.49132
3885.67204	0.49310
3883.74367	0.49419
3881.81529	0.49494
3879.88692	0.49509
3877.95855	0.49425
3876.03017	0.49497
3874.10180	0.49764
3872.17343	0.50045
3870.24505	0.50200
3868.31668	0.50190
3866.38831	0.50291
3864.45994	0.50533
3862.53156	0.50451
3860.60319	0.50125
3858.67482	0.50073
3856.74644	0.50380
3854.81807	0.50899
3852.88970	0.51174
3850.96132	0.50814
3849.03295	0.50412
3847.10458	0.50278
3845.17620	0.50452
3843.24783	0.50792
3841.31946	0.51118
3839.39108	0.51364
3837.46271	0.51368
3835.53434	0.51121
3833.60596	0.50884
3831.67759	0.50734
3829.74922	0.50663
3827.82084	0.50674
3825.89247	0.50696
3823.96410	0.50802
3822.03572	0.51112
3820.10735	0.51287
3818.17898	0.51228
3816.25060	0.51173
3814.32223	0.50917
3812.39386	0.50621
3810.46548	0.50602
3808.53711	0.50840
3806.60874	0.51056
3804.68037	0.51144
3802.75199	0.51323
3800.82362	0.51358
3798.89525	0.51088
3796.96687	0.50834
3795.03850	0.50559
3793.11013	0.50319
3791.18175	0.50268
3789.25338	0.50344
3787.32501	0.50431
3785.39663	0.50445
3783.46826	0.50414
3781.53989	0.50483
3779.61151	0.50550
3777.68314	0.50372
3775.75477	0.50129
3773.82639	0.50078
3771.89802	0.50227
3769.96965	0.50404
3768.04127	0.50409
3766.11290	0.50308
3764.18453	0.50198
3762.25615	0.50163
3760.32778	0.50263
3758.39941	0.50325
3756.47103	0.50261
3754.54266	0.50309
3752.61429	0.50646
3750.68591	0.50960
3748.75754	0.50820
3746.82917	0.50685
3744.90080	0.50626
3742.97242	0.50279
3741.04405	0.49903
3739.11568	0.49821
3737.18730	0.50053
3735.25893	0.50312
3733.33056	0.50037
3731.40218	0.49362
3729.47381	0.48871
3727.54544	0.48729
3725.61706	0.48753
3723.68869	0.48656
3721.76032	0.48370
3719.83194	0.47989
3717.90357	0.47620
3715.97520	0.47410
3714.04682	0.47451
3712.11845	0.47603
3710.19008	0.47266
3708.26170	0.46433
3706.33333	0.45733
3704.40496	0.45345
3702.47658	0.45074
3700.54821	0.44604
3698.61984	0.43975
3696.69146	0.43363
3694.76309	0.42881
3692.83472	0.42582
3690.90635	0.42184
3688.97797	0.41168
3687.04960	0.39750
3685.12123	0.38584
3683.19285	0.37667
3681.26448	0.36830
3679.33611	0.36013
3677.40773	0.35166
3675.47936	0.33847
3673.55099	0.32211
3671.62261	0.30909
3669.69424	0.29346
3667.76587	0.27557
3665.83749	0.26127
3663.90912	0.24827
3661.98075	0.23513
3660.05237	0.22276
3658.12400	0.21096
3656.19563	0.19746
3654.26725	0.18475
3652.33888	0.17570
3650.41051	0.16613
3648.48213	0.15194
3646.55376	0.13795
3644.62539	0.12740
3642.69701	0.11824
3640.76864	0.10944
3638.84027	0.10124
3636.91189	0.09381
3634.98352	0.08686
3633.05515	0.08038
3631.12678	0.07459
3629.19840	0.06803
3627.27003	0.06114
3625.34166	0.05632
3623.41328	0.05230
3621.48491	0.04808
3619.55654	0.04354
3617.62816	0.03959
3615.69979	0.03675
3613.77142	0.03417
3611.84304	0.03162
3609.91467	0.02919
3607.98630	0.02638
3606.05792	0.02333
3604.12955	0.02088
3602.20118	0.01881
3600.27280	0.01723
3598.34443	0.01613
3596.41606	0.01476
3594.48768	0.01310
3592.55931	0.01183
3590.63094	0.01104
3588.70256	0.01021
3586.77419	0.00929
3584.84582	0.00839
3582.91744	0.00742
3580.98907	0.00663
3579.06070	0.00576
3577.13233	0.00472
3575.20395	0.00420
3573.27558	0.00414
3571.34721	0.00371
3569.41883	0.00305
3567.49046	0.00271
3565.56209	0.00230
3563.63371	0.00176
3561.70534	0.00147
3559.77697	0.00133
3557.84859	0.00148
3555.92022	0.00134
3553.99185	0.00099
3552.06347	0.00092
3550.13510	0.00084
3548.20673	0.00080
3546.27835	0.00141
3544.34998	0.00182
3542.42161	0.00153
3540.49323	0.00116
3538.56486	0.00128
3536.63649	0.00123
3534.70811	0.00115
3532.77974	0.00117
3530.85137	0.00086
3528.92299	0.00067
3526.99462	0.00095
3525.06625	0.00120
3523.13787	0.00123
3521.20950	0.00186
3519.28113	0.00200
3517.35276	0.00122
3515.42438	0.00041
3513.49601	0.00065
3511.56764	0.00080
3509.63926	0.00051
3507.71089	0.00057
3505.78252	0.00057
3503.85414	0.00065
3501.92577	0.00063
3499.99740	0.00087
3498.06902	0.00117
3496.14065	0.00121
3494.21228	0.00111
3492.28390	0.00085
3490.35553	0.00032
3488.42716	0.00056
3486.49878	0.00096
3484.57041	0.00106
3482.64204	0.00123
3480.71366	0.00147
3478.78529	0.00163
3476.85692	0.00166
3474.92854	0.00156
3473.00017	0.00117
3471.07180	0.00120
3469.14342	0.00126
3467.21505	0.00102
3465.28668	0.00072
3463.35831	0.00048
3461.42993	0.00114
3459.50156	0.00123
3457.57319	0.00083
3455.64481	0.00041
3453.71644	0.00046
3451.78807	0.00083
3449.85969	0.00113
3447.93132	0.00139
3446.00295	0.00151
3444.07457	0.00131
3442.14620	0.00091
3440.21783	0.00077
3438.28945	0.00084
3436.36108	0.00080
3434.43271	0.00097
3432.50433	0.00129
3430.57596	0.00121
3428.64759	0.00089
3426.71921	0.00100
3424.79084	0.00122
3422.86247	0.00132
3420.93409	0.00098
3419.00572	0.00065
3417.07735	0.00070
3415.14897	0.00089
3413.22060	0.00041
3411.29223	0.00050
3409.36385	0.00074
3407.43548	0.00059
3405.50711	0.00059
3403.57874	0.00076
3401.65036	0.00053
3399.72199	0.00065
3397.79362	0.00098
3395.86524	0.00072
3393.93687	0.00050
3392.00850	0.00085
3390.08012	0.00114
3388.15175	0.00104
3386.22338	0.00097
3384.29500	0.00098
3382.36663	0.00089
3380.43826	0.00069
3378.50988	0.00059
3376.58151	0.00077
3374.65314	0.00120
3372.72476	0.00121
3370.79639	0.00065
3368.86802	0.00069
3366.93964	0.00092
3365.01127	0.00049
3363.08290	0.00053
3361.15452	0.00090
3359.22615	0.00132
3357.29778	0.00140
3355.36940	0.00094
3353.44103	0.00050
3351.51266	0.00039
3349.58428	0.00059
3347.65591	0.00113
3345.72754	0.00109
3343.79917	0.00114
3341.87079	0.00155
3339.94242	0.00159
3338.01405	0.00107
3336.08567	0.00073
3334.15730	0.00066
3332.22893	0.00066
3330.30055	0.00095
3328.37218	0.00120
3326.44381	0.00121
3324.51543	0.00102
3322.58706	0.00107
3320.65869	0.00112
3318.73031	0.00095
3316.80194	0.00065
3314.87357	0.00043
3312.94519	0.00065
3311.01682	0.00121
3309.08845	0.00105
3307.16007	0.00078
3305.23170	0.00096
3303.30333	0.00096
3301.37495	0.00068
3299.44658	0.00083
3297.51821	0.00062
3295.58983	0.00057
3293.66146	0.00083
3291.73309	0.00090
3289.80472	0.00081
3287.87634	0.00057
3285.94797	0.00037
3284.01960	0.00064
3282.09122	0.00100
3280.16285	0.00093
3278.23448	0.00074
3276.30610	0.00085
3274.37773	0.00115
3272.44936	0.00141
3270.52098	0.00102
3268.59261	0.00071
3266.66424	0.00084
3264.73586	0.00067
3262.80749	0.00080
3260.87912	0.00093
3258.95074	0.00066
3257.02237	0.00057
3255.09400	0.00073
3253.16562	0.00074
3251.23725	0.00097
3249.30888	0.00092
3247.38050	0.00083
3245.45213	0.00078
3243.52376	0.00058
3241.59538	0.00065
3239.66701	0.00101
3237.73864	0.00132
3235.81026	0.00142
3233.88189	0.00125
3231.95352	0.00087
3230.02515	0.00062
3228.09677	0.00075
3226.16840	0.00072
3224.24003	0.00069
3222.31165	0.00080
3220.38328	0.00066
3218.45491	0.00088
3216.52653	0.00091
3214.59816	0.00086
3212.66979	0.00080
3210.74141	0.00081
3208.81304	0.00129
3206.88467	0.00159
3204.95629	0.00170
3203.02792	0.00127
3201.09955	0.00066
3199.17117	0.00083
3197.24280	0.00093
3195.31443	0.00093
3193.38605	0.00141
3191.45768	0.00141
3189.52931	0.00109
3187.60093	0.00091
3185.67256	0.00070
3183.74419	0.00064
3181.81581	0.00065
3179.88744	0.00052
3177.95907	0.00034
3176.03070	0.00042
3174.10232	0.00059
3172.17395	0.00054
3170.24558	0.00045
3168.31720	0.00053
3166.38883	0.00075
3164.46046	0.00083
3162.53208	0.00069
3160.60371	0.00040
3158.67534	0.00037
3156.74696	0.00056
3154.81859	0.00052
3152.89022	0.00054
3150.96184	0.00086
3149.03347	0.00065
3147.10510	0.00075
3145.17672	0.00101
3143.24835	0.00083
3141.31998	0.00106
3139.39160	0.00123
3137.46323	0.00122
3135.53486	0.00131
3133.60648	0.00106
3131.67811	0.00086
3129.74974	0.00080
3127.82136	0.00061
3125.89299	0.00071
3123.96462	0.00029
3122.03624	0.00042
3120.10787	0.00097
3118.17950	0.00117
3116.25113	0.00108
3114.32275	0.00100
3112.39438	0.00096
3110.46601	0.00078
3108.53763	0.00094
3106.60926	0.00100
3104.68089	0.00103
3102.75251	0.00104
3100.82414	0.00072
3098.89577	0.00062
3096.96739	0.00090
3095.03902	0.00106
3093.11065	0.00103
3091.18227	0.00081
3089.25390	0.00085
3087.32553	0.00094
3085.39715	0.00074
3083.46878	0.00049
3081.54041	0.00062
3079.61203	0.00093
3077.68366	0.00124
3075.75529	0.00111
3073.82691	0.00091
3071.89854	0.00095
3069.97017	0.00114
3068.04179	0.00178
3066.11342	0.00169
3064.18505	0.00125
3062.25668	0.00129
3060.32830	0.00121
3058.39993	0.00126
3056.47156	0.00129
3054.54318	0.00125
3052.61481	0.00149
3050.68644	0.00178
3048.75806	0.00218
3046.82969	0.00236
3044.90132	0.00226
3042.97294	0.00208
3041.04457	0.00184
3039.11620	0.00166
3037.18782	0.00175
3035.25945	0.00197
3033.33108	0.00196
3031.40270	0.00194
3029.47433	0.00214
3027.54596	0.00270
3025.61758	0.00343
3023.68921	0.00374
3021.76084	0.00396
3019.83246	0.00434
3017.90409	0.00462
3015.97572	0.00462
3014.04734	0.00476
3012.11897	0.00529
3010.19060	0.00579
3008.26222	0.00582
3006.33385	0.00554
3004.40548	0.00525
3002.47711	0.00506
3000.54873	0.00483
2998.62036	0.00433
2996.69199	0.00395
2994.76361	0.00406
2992.83524	0.00435
2990.90687	0.00442
2988.97849	0.00436
2987.05012	0.00426
2985.12175	0.00377
2983.19337	0.00316
2981.26500	0.00303
2979.33663	0.00321
2977.40825	0.00333
2975.47988	0.00315
2973.55151	0.00234
2971.62313	0.00139
2969.69476	0.00106
2967.76639	0.00150
2965.83801	0.00188
2963.90964	0.00168
2961.98127	0.00158
2960.05289	0.00143
2958.12452	0.00152
2956.19615	0.00200
2954.26777	0.00248
2952.33940	0.00245
2950.41103	0.00200
2948.48266	0.00197
2946.55428	0.00211
2944.62591	0.00186
2942.69754	0.00143
2940.76916	0.00097
2938.84079	0.00097
2936.91242	0.00144
2934.98404	0.00175
2933.05567	0.00185
2931.12730	0.00189
2929.19892	0.00170
2927.27055	0.00169
2925.34218	0.00178
2923.41380	0.00104
2921.48543	0.00125
2919.55706	0.00208
2917.62868	0.00304
2915.70031	0.00368
2913.77194	0.00383
2911.84356	0.00380
2909.91519	0.00418
2907.98682	0.00483
2906.05844	0.00523
2904.13007	0.00523
2902.20170	0.00515
2900.27332	0.00508
2898.34495	0.00480
2896.41658	0.00427
2894.48820	0.00397
2892.55983	0.00408
2890.63146	0.00403
2888.70309	0.00389
2886.77471	0.00395
2884.84634	0.00410
2882.91797	0.00409
2880.98959	0.00388
2879.06122	0.00377
2877.13285	0.00404
2875.20447	0.00464
2873.27610	0.00499
2871.34773	0.00470
2869.41935	0.00436
2867.49098	0.00491
2865.56261	0.00631
2863.63423	0.00782
2861.70586	0.00897
2859.77749	0.00975
2857.84911	0.01034
2855.92074	0.01077
2853.99237	0.01135
2852.06399	0.01238
2850.13562	0.01369
2848.20725	0.01518
2846.27887	0.01685
2844.35050	0.01849
2842.42213	0.01995
2840.49375	0.02105
2838.56538	0.02199
2836.63701	0.02321
2834.70863	0.02440
2832.78026	0.02527
2830.85189	0.02604
2828.92352	0.02694
2826.99514	0.02797
2825.06677	0.02901
2823.13840	0.03017
2821.21002	0.03145
2819.28165	0.03260
2817.35328	0.03382
2815.42490	0.03522
2813.49653	0.03644
2811.56816	0.03739
2809.63978	0.03830
2807.71141	0.03956
2805.78304	0.04125
2803.85466	0.04292
2801.92629	0.04444
2799.99792	0.04601
2798.06954	0.04758
2796.14117	0.04911
2794.21280	0.05040
2792.28442	0.05142
2790.35605	0.05257
2788.42768	0.05399
2786.49930	0.05547
2784.57093	0.05675
2782.64256	0.05782
2780.71418	0.05893
2778.78581	0.06000
2776.85744	0.06077
2774.92907	0.06150
2773.00069	0.06256
2771.07232	0.06379
2769.14395	0.06500
2767.21557	0.06616
2765.28720	0.06729
2763.35883	0.06840
2761.43045	0.06962
2759.50208	0.07093
2757.57371	0.07202
2755.64533	0.07281
2753.71696	0.07353
2751.78859	0.07433
2749.86021	0.07531
2747.93184	0.07638
2746.00347	0.07740
2744.07509	0.07835
2742.14672	0.07911
2740.21835	0.07969
2738.28997	0.08056
2736.36160	0.08185
2734.43323	0.08313
2732.50485	0.08413
2730.57648	0.08504
2728.64811	0.08600
2726.71973	0.08691
2724.79136	0.08782
2722.86299	0.08882
2720.93461	0.09001
2719.00624	0.09163
2717.07787	0.09346
2715.14950	0.09514
2713.22112	0.09659
2711.29275	0.09779
2709.36438	0.09900
2707.43600	0.10045
2705.50763	0.10202
2703.57926	0.10369
2701.65088	0.10532
2699.72251	0.10660
2697.79414	0.10768
2695.86576	0.10888
2693.93739	0.11024
2692.00902	0.11161
2690.08064	0.11271
2688.15227	0.11358
2686.22390	0.11476
2684.29552	0.11628
2682.36715	0.11755
2680.43878	0.11864
2678.51040	0.12013
2676.58203	0.12172
2674.65366	0.12288
2672.72528	0.12362
2670.79691	0.12418
2668.86854	0.12493
2666.94016	0.12613
2665.01179	0.12725
2663.08342	0.12804
2661.15505	0.12881
2659.22667	0.12962
2657.29830	0.13030
2655.36993	0.13063
2653.44155	0.13078
2651.51318	0.13129
2649.58481	0.13207
2647.65643	0.13271
2645.72806	0.13326
2643.79969	0.13375
2641.87131	0.13416
2639.94294	0.13479
2638.01457	0.13561
2636.08619	0.13635
2634.15782	0.13701
2632.22945	0.13767
2630.30107	0.13821
2628.37270	0.13873
2626.44433	0.13960
2624.51595	0.14080
2622.58758	0.14186
2620.65921	0.14275
2618.73083	0.14373
2616.80246	0.14464
2614.87409	0.14537
2612.94571	0.14616
2611.01734	0.14721
2609.08897	0.14834
2607.16059	0.14950
2605.23222	0.15092
2603.30385	0.15251
2601.37548	0.15386
2599.44710	0.15493
2597.51873	0.15586
2595.59036	0.15671
2593.66198	0.15760
2591.73361	0.15860
2589.80524	0.15961
2587.87686	0.16051
2585.94849	0.16141
2584.02012	0.16246
2582.09174	0.16373
2580.16337	0.16505
2578.23500	0.16615
2576.30662	0.16723
2574.37825	0.16871
2572.44988	0.17040
2570.52150	0.17182
2568.59313	0.17304
2566.66476	0.17453
2564.73638	0.17646
2562.80801	0.17865
2560.87964	0.18089
2558.95126	0.18307
2557.02289	0.18517
2555.09452	0.18696
2553.16614	0.18848
2551.23777	0.19017
2549.30940	0.19187
2547.38103	0.19328
2545.45265	0.19462
2543.52428	0.19611
2541.59591	0.19766
2539.66753	0.19893
2537.73916	0.19981
2535.81079	0.20047
2533.88241	0.20108
2531.95404	0.20176
2530.02567	0.20260
2528.09729	0.20363
2526.16892	0.20461
2524.24055	0.20549
2522.31217	0.20658
2520.38380	0.20766
2518.45543	0.20860
2516.52705	0.20984
2514.59868	0.21128
2512.67031	0.21222
2510.74193	0.21283
2508.81356	0.21396
2506.88519	0.21560
2504.95681	0.21714
2503.02844	0.21844
2501.10007	0.21975
2499.17169	0.22131
2497.24332	0.22315
2495.31495	0.22513
2493.38657	0.22707
2491.45820	0.22874
2489.52983	0.23009
2487.60146	0.23138
2485.67308	0.23286
2483.74471	0.23451
2481.81634	0.23625
2479.88796	0.23795
2477.95959	0.23945
2476.03122	0.24083
2474.10284	0.24256
2472.17447	0.24468
2470.24610	0.24649
2468.31772	0.24787
2466.38935	0.24960
2464.46098	0.25176
2462.53260	0.25360
2460.60423	0.25497
2458.67586	0.25655
2456.74748	0.25848
2454.81911	0.26032
2452.89074	0.26201
2450.96236	0.26379
2449.03399	0.26559
2447.10562	0.26711
2445.17724	0.26839
2443.24887	0.26974
2441.32050	0.27116
2439.39212	0.27245
2437.46375	0.27367
2435.53538	0.27495
2433.60700	0.27625
2431.67863	0.27755
2429.75026	0.27879
2427.82189	0.27996
2425.89351	0.28107
2423.96514	0.28208
2422.03677	0.28304
2420.10839	0.28412
2418.18002	0.28538
2416.25165	0.28668
2414.32327	0.28778
2412.39490	0.28876
2410.46653	0.28998
2408.53815	0.29150
2406.60978	0.29328
2404.68141	0.29506
2402.75303	0.29650
2400.82466	0.29793
2398.89629	0.29989
2396.96791	0.30206
2395.03954	0.30386
2393.11117	0.30537
2391.18279	0.30683
2389.25442	0.30801
2387.32605	0.30895
2385.39767	0.31000
2383.46930	0.31127
2381.54093	0.31258
2379.61255	0.31382
2377.68418	0.31522
2375.75581	0.31683
2373.82744	0.31853
2371.89906	0.32048
2369.97069	0.32270
2368.04232	0.32504
2366.11394	0.32730
2364.18557	0.32888
2362.25720	0.32946
2360.32882	0.32944
2358.40045	0.32927
2356.47208	0.32992
2354.54370	0.33126
2352.61533	0.33180
2350.68696	0.33182
2348.75858	0.33215
2346.83021	0.33301
2344.90184	0.33456
2342.97346	0.33597
2341.04509	0.33604
2339.11672	0.33559
2337.18834	0.33584
2335.25997	0.33648
2333.33160	0.33655
2331.40322	0.33635
2329.47485	0.33661
2327.54648	0.33717
2325.61810	0.33781
2323.68973	0.33834
2321.76136	0.33841
2319.83298	0.33843
2317.90461	0.33884
2315.97624	0.33957
2314.04787	0.34052
2312.11949	0.34181
2310.19112	0.34329
2308.26275	0.34450
2306.33437	0.34544
2304.40600	0.34663
2302.47763	0.34795
2300.54925	0.34891
2298.62088	0.34953
2296.69251	0.35014
2294.76413	0.35076
2292.83576	0.35135
2290.90739	0.35188
2288.97901	0.35206
2287.05064	0.35191
2285.12227	0.35193
2283.19389	0.35239
2281.26552	0.35294
2279.33715	0.35321
2277.40877	0.35314
2275.48040	0.35285
2273.55203	0.35265
2271.62365	0.35272
2269.69528	0.35284
2267.76691	0.35270
2265.83853	0.35233
2263.91016	0.35214
2261.98179	0.35226
2260.05342	0.35237
2258.12504	0.35241
2256.19667	0.35271
2254.26830	0.35321
2252.33992	0.35371
2250.41155	0.35457
2248.48318	0.35580
2246.55480	0.35679
2244.62643	0.35727
2242.69806	0.35763
2240.76968	0.35825
2238.84131	0.35890
2236.91294	0.35917
2234.98456	0.35925
2233.05619	0.35950
2231.12782	0.35973
2229.19944	0.35960
2227.27107	0.35919
2225.34270	0.35873
2223.41432	0.35832
2221.48595	0.35817
2219.55758	0.35825
2217.62920	0.35798
2215.70083	0.35719
2213.77246	0.35640
2211.84408	0.35585
2209.91571	0.35527
2207.98734	0.35464
2206.05896	0.35406
2204.13059	0.35337
2202.20222	0.35252
2200.27385	0.35175
2198.34547	0.35131
2196.41710	0.35102
2194.48873	0.35055
2192.56035	0.35004
2190.63198	0.34964
2188.70361	0.34928
2186.77523	0.34891
2184.84686	0.34862
2182.91849	0.34837
2180.99011	0.34796
2179.06174	0.34761
2177.13337	0.34760
2175.20499	0.34764
2173.27662	0.34738
2171.34825	0.34683
2169.41987	0.34622
2167.49150	0.34583
2165.56313	0.34565
2163.63475	0.34546
2161.70638	0.34530
2159.77801	0.34529
2157.84963	0.34525
2155.92126	0.34510
2153.99289	0.34498
2152.06451	0.34480
2150.13614	0.34451
2148.20777	0.34430
2146.27940	0.34414
2144.35102	0.34396
2142.42265	0.34385
2140.49428	0.34384
2138.56590	0.34387
2136.63753	0.34386
2134.70916	0.34381
2132.78078	0.34380
2130.85241	0.34393
2128.92404	0.34418
2126.99566	0.34459
2125.06729	0.34512
2123.13892	0.34574
2121.21054	0.34640
2119.28217	0.34709
2117.35380	0.34782
2115.42542	0.34852
2113.49705	0.34906
2111.56868	0.34953
2109.64030	0.35013
2107.71193	0.35086
2105.78356	0.35154
2103.85518	0.35205
2101.92681	0.35243
2099.99844	0.35273
2098.07006	0.35303
2096.14169	0.35358
2094.21332	0.35444
2092.28494	0.35525
2090.35657	0.35572
2088.42820	0.35594
2086.49983	0.35614
2084.57145	0.35645
2082.64308	0.35685
2080.71471	0.35720
2078.78633	0.35737
2076.85796	0.35750
2074.92959	0.35761
2073.00121	0.35761
2071.07284	0.35767
2069.14447	0.35785
2067.21609	0.35820
2065.28772	0.35878
2063.35935	0.35934
2061.43097	0.35981
2059.50260	0.36026
2057.57423	0.36068
2055.64585	0.36133
2053.71748	0.36238
2051.78911	0.36358
2049.86073	0.36484
2047.93236	0.36621
2046.00399	0.36743
2044.07561	0.36827
2042.14724	0.36896
2040.21887	0.36989
2038.29049	0.37118
2036.36212	0.37258
2034.43375	0.37383
2032.50538	0.37501
2030.57700	0.37621
2028.64863	0.37721
2026.72026	0.37817
2024.79188	0.37938
2022.86351	0.38076
2020.93514	0.38221
2019.00676	0.38376
2017.07839	0.38500
2015.15002	0.38564
2013.22164	0.38610
2011.29327	0.38676
2009.36490	0.38766
2007.43652	0.38878
2005.50815	0.38990
2003.57978	0.39078
2001.65140	0.39161
1999.72303	0.39260
1997.79466	0.39354
1995.86628	0.39444
1993.93791	0.39562
1992.00954	0.39665
1990.08116	0.39689
1988.15279	0.39663
1986.22442	0.39635
1984.29604	0.39626
1982.36767	0.39644
1980.43930	0.39674
1978.51092	0.39698
1976.58255	0.39718
1974.65418	0.39751
1972.72581	0.39801
1970.79743	0.39868
1968.86906	0.39964
1966.94069	0.40049
1965.01231	0.40087
1963.08394	0.40120
1961.15557	0.40186
1959.22719	0.40278
1957.29882	0.40381
1955.37045	0.40480
1953.44207	0.40571
1951.51370	0.40667
1949.58533	0.40785
1947.65695	0.40942
1945.72858	0.41147
1943.80021	0.41355
1941.87183	0.41498
1939.94346	0.41584
1938.01509	0.41672
1936.08671	0.41768
1934.15834	0.41865
1932.22997	0.41962
1930.30159	0.42052
1928.37322	0.42144
1926.44485	0.42261
1924.51647	0.42415
1922.58810	0.42526
1920.65973	0.42546
1918.73135	0.42535
1916.80298	0.42497
1914.87461	0.42442
1912.94624	0.42434
1911.01786	0.42465
1909.08949	0.42464
1907.16112	0.42398
1905.23274	0.42311
1903.30437	0.42234
1901.37600	0.42162
1899.44762	0.42104
1897.51925	0.42069
1895.59088	0.42057
1893.66250	0.42072
1891.73413	0.42125
1889.80576	0.42161
1887.87738	0.42112
1885.94901	0.42047
1884.02064	0.42038
1882.09226	0.42072
1880.16389	0.42122
1878.23552	0.42160
1876.30714	0.42203
1874.37877	0.42286
1872.45040	0.42422
1870.52202	0.42609
1868.59365	0.42731
1866.66528	0.42662
1864.73690	0.42541
1862.80853	0.42491
1860.88016	0.42482
1858.95179	0.42464
1857.02341	0.42434
1855.09504	0.42413
1853.16667	0.42390
1851.23829	0.42353
1849.30992	0.42348
1847.38155	0.42409
1845.45317	0.42467
1843.52480	0.42355
1841.59643	0.42098
1839.66805	0.41895
1837.73968	0.41771
1835.81131	0.41672
1833.88293	0.41614
1831.95456	0.41659
1830.02619	0.41692
1828.09781	0.41559
1826.16944	0.41383
1824.24107	0.41199
1822.31269	0.40969
1820.38432	0.40761
1818.45595	0.40588
1816.52757	0.40428
1814.59920	0.40323
1812.67083	0.40289
1810.74245	0.40214
1808.81408	0.39997
1806.88571	0.39717
1804.95733	0.39490
1803.02896	0.39346
1801.10059	0.39177
1799.17222	0.38861
1797.24384	0.38485
1795.31547	0.38197
1793.38710	0.37937
1791.45872	0.37452
1789.53035	0.36817
1787.60198	0.36314
1785.67360	0.35916
1783.74523	0.35518
1781.81686	0.35105
1779.88848	0.34635
1777.96011	0.34139
1776.03174	0.33771
1774.10336	0.33550
1772.17499	0.33201
1770.24662	0.32566
1768.31824	0.31907
1766.38987	0.31333
1764.46150	0.30847
1762.53312	0.30332
1760.60475	0.29692
1758.67638	0.29033
1756.74800	0.28308
1754.81963	0.27545
1752.89126	0.26857
1750.96288	0.26080
1749.03451	0.25035
1747.10614	0.23872
1745.17777	0.22718
1743.24939	0.21574
1741.32102	0.20410
1739.39265	0.19201
1737.46427	0.18195
1735.53590	0.17332
1733.60753	0.16067
1731.67915	0.14643
1729.75078	0.13464
1727.82241	0.12362
1725.89403	0.11309
1723.96566	0.10256
1722.03729	0.09288
1720.10891	0.08473
1718.18054	0.07505
1716.25217	0.06186
1714.32379	0.05024
1712.39542	0.04142
1710.46705	0.03375
1708.53867	0.02648
1706.61030	0.01913
1704.68193	0.01220
1702.75355	0.00703
1700.82518	0.00362
1698.89681	0.00198
1696.96843	0.00141
1695.04006	0.00105
1693.11169	0.00103
1691.18331	0.00088
1689.25494	0.00087
1687.32657	0.00082
1685.39820	0.00087
1683.46982	0.00099
1681.54145	0.00089
1679.61308	0.00108
1677.68470	0.00104
1675.75633	0.00100
1673.82796	0.00100
1671.89958	0.00118
1669.97121	0.00116
1668.04284	0.00125
1666.11446	0.00109
1664.18609	0.00100
1662.25772	0.00111
1660.32934	0.00113
1658.40097	0.00106
1656.47260	0.00094
1654.54422	0.00112
1652.61585	0.00119
1650.68748	0.00134
1648.75910	0.00130
1646.83073	0.00123
1644.90236	0.00102
1642.97398	0.00084
1641.04561	0.00063
1639.11724	0.00052
1637.18886	0.00053
1635.26049	0.00082
1633.33212	0.00091
1631.40375	0.00081
1629.47537	0.00078
1627.54700	0.00072
1625.61863	0.00056
1623.69025	0.00037
1621.76188	0.00050
1619.83351	0.00079
1617.90513	0.00091
1615.97676	0.00047
1614.04839	0.00056
1612.12001	0.00059
1610.19164	0.00071
1608.26327	0.00080
1606.33489	0.00078
1604.40652	0.00070
1602.47815	0.00080
1600.54977	0.00078
1598.62140	0.00054
1596.69303	0.00065
1594.76465	0.00074
1592.83628	0.00076
1590.90791	0.00074
1588.97953	0.00062
1587.05116	0.00049
1585.12279	0.00047
1583.19441	0.00042
1581.26604	0.00042
1579.33767	0.00052
1577.40929	0.00066
1575.48092	0.00082
1573.55255	0.00085
1571.62418	0.00085
1569.69580	0.00071
1567.76743	0.00047
1565.83906	0.00063
1563.91068	0.00072
1561.98231	0.00055
1560.05394	0.00060
1558.12556	0.00111
1556.19719	0.00082
1554.26882	0.00064
1552.34044	0.00072
1550.41207	0.00081
1548.48370	0.00067
1546.55532	0.00073
1544.62695	0.00078
1542.69858	0.00037
1540.77020	0.00076
1538.84183	0.00113
1536.91346	0.00127
1534.98508	0.00126
1533.05671	0.00108
1531.12834	0.00072
1529.19996	0.00039
1527.27159	0.00019
1525.34322	0.00074
1523.41484	0.00123
1521.48647	0.00104
1519.55810	0.00078
1517.62972	0.00088
1515.70135	0.00077
1513.77298	0.00061
1511.84461	0.00058
1509.91623	0.00042
1507.98786	0.00046
1506.05949	0.00086
1504.13111	0.00093
1502.20274	0.00069
1500.27437	0.00068
1498.34599	0.00074
1496.41762	0.00042
1494.48925	0.00039
1492.56087	0.00053
1490.63250	0.00087
1488.70413	0.00109
1486.77575	0.00153
1484.84738	0.00206
1482.91901	0.00238
1480.99063	0.00249
1479.06226	0.00232
1477.13389	0.00192
1475.20551	0.00157
1473.27714	0.00129
1471.34877	0.00115
1469.42039	0.00106
1467.49202	0.00119
1465.56365	0.00145
1463.63527	0.00141
1461.70690	0.00122
1459.77853	0.00122
1457.85016	0.00108
1455.92178	0.00075
1453.99341	0.00049
1452.06504	0.00040
1450.13666	0.00076
1448.20829	0.00106
1446.27992	0.00092
1444.35154	0.00069
1442.42317	0.00051
1440.49480	0.00043
1438.56642	0.00040
1436.63805	0.00039
1434.70968	0.00044
1432.78130	0.00021
1430.85293	0.00046
1428.92456	0.00048
1426.99618	0.00042
1425.06781	0.00054
1423.13944	0.00064
1421.21106	0.00073
1419.28269	0.00129
1417.35432	0.00130
1415.42594	0.00112
1413.49757	0.00098
1411.56920	0.00082
1409.64082	0.00067
1407.71245	0.00081
1405.78408	0.00097
1403.85570	0.00117
1401.92733	0.00148
1399.99896	0.00195
1398.07059	0.00198
1396.14221	0.00136
1394.21384	0.00133
1392.28547	0.00121
1390.35709	0.00085
1388.42872	0.00122
1386.50035	0.00088
1384.57197	0.00068
1382.64360	0.00058
1380.71523	0.00044
1378.78685	0.00060
1376.85848	0.00101
1374.93011	0.00130
1373.00173	0.00099
1371.07336	0.00072
1369.14499	0.00071
1367.21661	0.00063
1365.28824	0.00084
1363.35987	0.00111
1361.43149	0.00136
1359.50312	0.00187
1357.57475	0.00237
1355.64637	0.00266
1353.71800	0.00275
1351.78963	0.00286
1349.86125	0.00297
1347.93288	0.00296
1346.00451	0.00306
1344.07614	0.00330
1342.14776	0.00319
1340.21939	0.00247
1338.29102	0.00161
1336.36264	0.00125
1334.43427	0.00121
1332.50590	0.00114
1330.57752	0.00128
1328.64915	0.00137
1326.72078	0.00113
1324.79240	0.00058
1322.86403	0.00097
1320.93566	0.00106
1319.00728	0.00065
1317.07891	0.00054
1315.15054	0.00021
1313.22216	0.00018
1311.29379	0.00067
1309.36542	0.00135
1307.43704	0.00159
1305.50867	0.00123
1303.58030	0.00107
1301.65192	0.00119
1299.72355	0.00134
1297.79518	0.00136
1295.86680	0.00152
1293.93843	0.00158
1292.01006	0.00138
1290.08168	0.00106
1288.15331	0.00062
1286.22494	0.00055
1284.29657	0.00058
1282.36819	0.00062
1280.43982	0.00082
1278.51145	0.00084
1276.58307	0.00103
1274.65470	0.00123
1272.72633	0.00139
1270.79795	0.00121
1268.86958	0.00085
1266.94121	0.00056
1265.01283	0.00062
1263.08446	0.00067
1261.15609	0.00085
1259.22771	0.00128
1257.29934	0.00145
1255.37097	0.00148
1253.44259	0.00131
1251.51422	0.00137
1249.58585	0.00173
1247.65747	0.00186
1245.72910	0.00164
1243.80073	0.00140
1241.87235	0.00121
1239.94398	0.00133
1238.01561	0.00122
1236.08723	0.00133
1234.15886	0.00159
1232.23049	0.00166
1230.30212	0.00179
1228.37374	0.00216
1226.44537	0.00284
1224.51700	0.00315
1222.58862	0.00301
1220.66025	0.00295
1218.73188	0.00301
1216.80350	0.00295
1214.87513	0.00284
1212.94676	0.00246
1211.01838	0.00196
1209.09001	0.00187
1207.16164	0.00208
1205.23326	0.00233
1203.30489	0.00295
1201.37652	0.00389
1199.44814	0.00554
1197.51977	0.00746
1195.59140	0.00883
1193.66302	0.00961
1191.73465	0.00991
1189.80628	0.00990
1187.87790	0.00964
1185.94953	0.00928
1184.02116	0.00857
1182.09278	0.00749
1180.16441	0.00627
1178.23604	0.00514
1176.30766	0.00441
1174.37929	0.00367
1172.45092	0.00252
1170.52255	0.00136
1168.59417	0.00113
1166.66580	0.00129
1164.73743	0.00133
1162.80905	0.00126
1160.88068	0.00122
1158.95231	0.00113
1157.02393	0.00084
1155.09556	0.00090
1153.16719	0.00113
1151.23881	0.00075
1149.31044	0.00072
1147.38207	0.00115
1145.45369	0.00185
1143.52532	0.00264
1141.59695	0.00358
1139.66857	0.00481
1137.74020	0.00532
1135.81183	0.00507
1133.88345	0.00411
1131.95508	0.00290
1130.02671	0.00212
1128.09833	0.00162
1126.16996	0.00088
1124.24159	0.00116
1122.31321	0.00228
1120.38484	0.00187
1118.45647	0.00207
1116.52809	0.00293
1114.59972	0.00284
1112.67135	0.00190
1110.74298	0.00102
1108.81460	0.00117
1106.88623	0.00155
1104.95786	0.00198
1103.02948	0.00180
1101.10111	0.00174
1099.17274	0.00201
1097.24436	0.00193
1095.31599	0.00161
1093.38762	0.00118
1091.45924	0.00118
1089.53087	0.00123
1087.60250	0.00200
1085.67412	0.00188
1083.74575	0.00224
1081.81738	0.00246
1079.88900	0.00172
1077.96063	0.00081
1076.03226	0.00094
1074.10388	0.00135
1072.17551	0.00157
1070.24714	0.00173
1068.31876	0.00243
1066.39039	0.00210
1064.46202	0.00119
1062.53364	0.00161
1060.60527	0.00183
1058.67690	0.00111
1056.74853	0.00135
1054.82015	0.00182
1052.89178	0.00195
1050.96341	0.00157
1049.03503	0.00141
1047.10666	0.00212
1045.17829	0.00270
1043.24991	0.00258
1041.32154	0.00165
1039.39317	0.00101
1037.46479	0.00117
1035.53642	0.00104
1033.60805	0.00077
1031.67967	0.00110
1029.75130	0.00118
1027.82293	0.00062
1025.89455	0.00093
1023.96618	0.00126
1022.03781	0.00090
1020.10943	0.00034
1018.18106	0.00092
1016.25269	0.00109
1014.32431	0.00160
1012.39594	0.00188
1010.46757	0.00161
1008.53919	0.00169
1006.61082	0.00239
1004.68245	0.00297
1002.75407	0.00364
1000.82570	0.00513
998.89733	0.00700
996.96896	0.00902
995.04058	0.01184
993.11221	0.01503
991.18384	0.01791
989.25546	0.02052
987.32709	0.02273
985.39872	0.02408
983.47034	0.02418
981.54197	0.02260
979.61360	0.01980
977.68522	0.01722
975.75685	0.01583
973.82848	0.01624
971.90010	0.01874
969.97173	0.02286
968.04336	0.02783
966.11498	0.03248
964.18661	0.03499
962.25824	0.03359
960.32986	0.02805
958.40149	0.02045
956.47312	0.01426
954.54474	0.01184
952.61637	0.01311
950.68800	0.01709
948.75962	0.02331
946.83125	0.03068
944.90288	0.03780
942.97451	0.04411
941.04613	0.04961
939.11776	0.05462
937.18939	0.05961
935.26101	0.06449
933.33264	0.06836
931.40427	0.07092
929.47589	0.07277
927.54752	0.07384
925.61915	0.07394
923.69077	0.07374
921.76240	0.07417
919.83403	0.07587
917.90565	0.07915
915.97728	0.08297
914.04891	0.08549
912.12053	0.08597
910.19216	0.08390
908.26379	0.07844
906.33541	0.07050
904.40704	0.06262
902.47867	0.05621
900.55029	0.05099
898.62192	0.04687
896.69355	0.04479
894.76517	0.04505
892.83680	0.04661
890.90843	0.04921
888.98005	0.05355
887.05168	0.05902
885.12331	0.06406
883.19494	0.06790
881.26656	0.07040
879.33819	0.07168
877.40982	0.07224
875.48144	0.07246
873.55307	0.07227
871.62470	0.07161
869.69632	0.07124
867.76795	0.07180
865.83958	0.07214
863.91120	0.07156
861.98283	0.07147
860.05446	0.07230
858.12608	0.07243
856.19771	0.07117
854.26934	0.06972
852.34096	0.06879
850.41259	0.06804
848.48422	0.06726
846.55584	0.06648
844.62747	0.06557
842.69910	0.06396
840.77072	0.06130
838.84235	0.05814
836.91398	0.05487
834.98560	0.05100
833.05723	0.04672
831.12886	0.04323
829.20049	0.04099
827.27211	0.03941
825.34374	0.03776
823.41537	0.03592
821.48699	0.03411
819.55862	0.03220
817.63025	0.03071
815.70187	0.03062
813.77350	0.03133
811.84513	0.03087
809.91675	0.02903
807.98838	0.02775
806.06001	0.02809
804.13163	0.02913
802.20326	0.02943
800.27489	0.02846
798.34651	0.02688
796.41814	0.02528
794.48977	0.02427
792.56139	0.02415
790.63302	0.02405
788.70465	0.02291
786.77627	0.02046
784.84790	0.01825
782.91953	0.01777
780.99115	0.01732
779.06278	0.01582
777.13441	0.01407
775.20603	0.01182
773.27766	0.00969
771.34929	0.00915
769.42092	0.00936
767.49254	0.00906
765.56417	0.00793
763.63580	0.00651
761.70742	0.00596
759.77905	0.00674
757.85068	0.00794
755.92230	0.00762
753.99393	0.00594
752.06556	0.00468
750.13718	0.00472
748.20881	0.00491
746.28044	0.00481
744.35206	0.00512
742.42369	0.00541
740.49532	0.00519
738.56694	0.00516
736.63857	0.00552
734.71020	0.00534
732.78182	0.00473
730.85345	0.00445
728.92508	0.00427
726.99670	0.00388
725.06833	0.00365
723.13996	0.00383
721.21158	0.00355
719.28321	0.00241
717.35484	0.00309
715.42647	0.00482
713.49809	0.00554
711.56972	0.00562
709.64135	0.00515
707.71297	0.00596
705.78460	0.00600
703.85623	0.00398
701.92785	0.00276
699.99948	0.00309
698.07111	0.00410
696.14273	0.00386
694.21436	0.00281
692.28599	0.00401
690.35761	0.00348
688.42924	0.00394
686.50087	0.00399
684.57249	0.00338
682.64412	0.00298
680.71575	0.00308
678.78737	0.00390
676.85900	0.00522
674.93063	0.00551
673.00225	0.00455
671.07388	0.00558
669.14551	0.00543
667.21713	0.00329
665.28876	0.00437
663.36039	0.00497
661.43201	0.00560
659.50364	0.00575
657.57527	0.00577
655.64690	0.00737
653.71852	0.00845
651.79015	0.00795
649.86178	0.00675
647.93340	0.00764
646.00503	0.00900
644.07666	0.01017
642.14828	0.01081
640.21991	0.00992
638.29154	0.00666
636.36316	0.00375
634.43479	0.00575
632.50642	0.00732
630.57804	0.00783
628.64967	0.00557
626.72130	0.00493
624.79292	0.00786
622.86455	0.01148
620.93618	0.01547
619.00780	0.01449
617.07943	0.01255
615.15106	0.01041
613.22268	0.00895
611.29431	0.00871
609.36594	0.00749
607.43756	0.00941
605.50919	0.00742
603.58082	0.01171
601.65244	0.01895
599.72407	0.02402
