3997.51769	0.50861
3995.58931	0.50867
3993.66094	0.50870
3991.73257	0.50886
3989.80419	0.50933
3987.87582	0.50998
3985.94745	0.51046
3984.01907	0.51081
3982.09070	0.51103
3980.16233	0.51093
3978.23396	0.51091
3976.30558	0.51156
3974.37721	0.51287
3972.44884	0.51395
3970.52046	0.51401
3968.59209	0.51378
3966.66372	0.51401
3964.73534	0.51449
3962.80697	0.51552
3960.87860	0.51706
3958.95022	0.51836
3957.02185	0.51901
3955.09348	0.51922
3953.16510	0.51987
3951.23673	0.52153
3949.30836	0.52371
3947.37998	0.52481
3945.45161	0.52483
3943.52324	0.52525
3941.59486	0.52565
3939.66649	0.52542
3937.73812	0.52562
3935.80974	0.52671
3933.88137	0.52841
3931.95300	0.52994
3930.02462	0.52995
3928.09625	0.52950
3926.16788	0.53073
3924.23950	0.53231
3922.31113	0.53240
3920.38276	0.53283
3918.45439	0.53452
3916.52601	0.53542
3914.59764	0.53473
3912.66927	0.53399
3910.74089	0.53431
3908.81252	0.53602
3906.88415	0.53929
3904.95577	0.54368
3903.02740	0.54745
3901.09903	0.54881
3899.17065	0.54716
3897.24228	0.54439
3895.31391	0.54391
3893.38553	0.54624
3891.45716	0.54819
3889.52879	0.54789
3887.60041	0.54870
3885.67204	0.55138
3883.74367	0.55284
3881.81529	0.55292
3879.88692	0.55198
3877.95855	0.55065
3876.03017	0.55167
3874.10180	0.55488
3872.17343	0.55845
3870.24505	0.56134
3868.31668	0.56150
3866.38831	0.56076
3864.45994	0.56123
3862.53156	0.56042
3860.60319	0.55854
3858.67482	0.55869
3856.74644	0.56168
3854.81807	0.56753
3852.88970	0.57128
3850.96132	0.56637
3849.03295	0.56091
3847.10458	0.55927
3845.17620	0.56125
3843.24783	0.56534
3841.31946	0.56965
3839.39108	0.57245
3837.46271	0.57188
3835.53434	0.56891
3833.60596	0.56671
3831.67759	0.56576
3829.74922	0.56517
3827.82084	0.56505
3825.89247	0.56555
3823.96410	0.56736
3822.03572	0.57101
3820.10735	0.57274
3818.17898	0.57178
3816.25060	0.57119
3814.32223	0.56896
3812.39386	0.56600
3810.46548	0.56560
3808.53711	0.56797
3806.60874	0.56999
3804.68037	0.57058
3802.75199	0.57264
3800.82362	0.57417
3798.89525	0.57255
3796.96687	0.56991
3795.03850	0.56626
3793.11013	0.56337
3791.18175	0.56300
3789.25338	0.56404
3787.32501	0.56523
3785.39663	0.56589
3783.46826	0.56593
3781.53989	0.56650
3779.61151	0.56735
3777.68314	0.56628
3775.75477	0.56421
3773.82639	0.56391
3771.89802	0.56578
3769.96965	0.56777
3768.04127	0.56793
3766.11290	0.56714
3764.18453	0.56597
3762.25615	0.56557
3760.32778	0.56689
3758.39941	0.56776
3756.47103	0.56743
3754.54266	0.56871
3752.61429	0.57283
3750.68591	0.57665
3748.75754	0.57608
3746.82917	0.57508
3744.90080	0.57425
3742.97242	0.57013
3741.04405	0.56573
3739.11568	0.56479
3737.18730	0.56755
3735.25893	0.57031
3733.33056	0.56725
3731.40218	0.56045
3729.47381	0.55581
3727.54544	0.55451
3725.61706	0.55476
3723.68869	0.55455
3721.76032	0.55296
3719.83194	0.54986
3717.90357	0.54636
3715.97520	0.54422
3714.04682	0.54447
3712.11845	0.54630
3710.19008	0.54399
3708.26170	0.53650
3706.33333	0.52989
3704.40496	0.52615
3702.47658	0.52353
3700.54821	0.51920
3698.61984	0.51369
3696.69146	0.50843
3694.76309	0.50434
3692.83472	0.50230
3690.90635	0.50011
3688.97797	0.49187
3687.04960	0.47799
3685.12123	0.46607
3683.19285	0.45705
3681.26448	0.44904
3679.33611	0.44170
3677.40773	0.43478
3675.47936	0.42330
3673.55099	0.40764
3671.62261	0.39456
3669.69424	0.37868
3667.76587	0.36028
3665.83749	0.34529
3663.90912	0.33169
3661.98075	0.31819
3660.05237	0.30569
3658.12400	0.29396
3656.19563	0.28030
3654.26725	0.26685
3652.33888	0.25679
3650.41051	0.24578
3648.48213	0.22900
3646.55376	0.21203
3644.62539	0.19930
3642.69701	0.18861
3640.76864	0.17802
3638.84027	0.16711
3636.91189	0.15676
3634.98352	0.14792
3633.05515	0.14064
3631.12678	0.13419
3629.19840	0.12563
3627.27003	0.11503
3625.34166	0.10707
3623.41328	0.10084
3621.48491	0.09510
3619.55654	0.08950
3617.62816	0.08398
3615.69979	0.07893
3613.77142	0.07414
3611.84304	0.06915
3609.91467	0.06397
3607.98630	0.05899
3606.05792	0.05466
3604.12955	0.05121
3602.20118	0.04828
3600.27280	0.04556
3598.34443	0.04257
3596.41606	0.03913
3594.48768	0.03586
3592.55931	0.03328
3590.63094	0.03122
3588.70256	0.02938
3586.77419	0.02751
3584.84582	0.02519
3582.91744	0.02269
3580.98907	0.02049
3579.06070	0.01873
3577.13233	0.01737
3575.20395	0.01608
3573.27558	0.01490
3571.34721	0.01403
3569.41883	0.01335
3567.49046	0.01215
3565.56209	0.01027
3563.63371	0.00916
3561.70534	0.00881
3559.77697	0.00835
3557.84859	0.00767
3555.92022	0.00704
3553.99185	0.00622
3552.06347	0.00518
3550.13510	0.00441
3548.20673	0.00378
3546.27835	0.00313
3544.34998	0.00303
3542.42161	0.00318
3540.49323	0.00321
3538.56486	0.00285
3536.63649	0.00209
3534.70811	0.00167
3532.77974	0.00191
3530.85137	0.00232
3528.92299	0.00212
3526.99462	0.00133
3525.06625	0.00093
3523.13787	0.00105
3521.20950	0.00111
3519.28113	0.00101
3517.35276	0.00150
3515.42438	0.00158
3513.49601	0.00124
3511.56764	0.00096
3509.63926	0.00076
3507.71089	0.00081
3505.78252	0.00092
3503.85414	0.00059
3501.92577	0.00029
3499.99740	0.00023
3498.06902	0.00075
3496.14065	0.00120
3494.21228	0.00111
3492.28390	0.00034
3490.35553	0.00054
3488.42716	0.00105
3486.49878	0.00119
3484.57041	0.00097
3482.64204	0.00047
3480.71366	0.00035
3478.78529	0.00046
3476.85692	0.00033
3474.92854	0.00085
3473.00017	0.00140
3471.07180	0.00155
3469.14342	0.00148
3467.21505	0.00140
3465.28668	0.00155
3463.35831	0.00149
3461.42993	0.00140
3459.50156	0.00163
3457.57319	0.00169
3455.64481	0.00177
3453.71644	0.00178
3451.78807	0.00136
3449.85969	0.00090
3447.93132	0.00106
3446.00295	0.00120
3444.07457	0.00092
3442.14620	0.00107
3440.21783	0.00125
3438.28945	0.00118
3436.36108	0.00089
3434.43271	0.00051
3432.50433	0.00062
3430.57596	0.00041
3428.64759	0.00051
3426.71921	0.00103
3424.79084	0.00101
3422.86247	0.00094
3420.93409	0.00107
3419.00572	0.00089
3417.07735	0.00115
3415.14897	0.00157
3413.22060	0.00147
3411.29223	0.00106
3409.36385	0.00095
3407.43548	0.00107
3405.50711	0.00123
3403.57874	0.00099
3401.65036	0.00092
3399.72199	0.00066
3397.79362	0.00085
3395.86524	0.00087
3393.93687	0.00070
3392.00850	0.00053
3390.08012	0.00066
3388.15175	0.00105
3386.22338	0.00103
3384.29500	0.00060
3382.36663	0.00044
3380.43826	0.00112
3378.50988	0.00127
3376.58151	0.00055
3374.65314	0.00045
3372.72476	0.00068
3370.79639	0.00119
3368.86802	0.00150
3366.93964	0.00129
3365.01127	0.00096
3363.08290	0.00040
3361.15452	0.00060
3359.22615	0.00097
3357.29778	0.00127
3355.36940	0.00124
3353.44103	0.00113
3351.51266	0.00080
3349.58428	0.00101
3347.65591	0.00125
3345.72754	0.00097
3343.79917	0.00084
3341.87079	0.00104
3339.94242	0.00089
3338.01405	0.00066
3336.08567	0.00093
3334.15730	0.00081
3332.22893	0.00073
3330.30055	0.00056
3328.37218	0.00056
3326.44381	0.00067
3324.51543	0.00063
3322.58706	0.00085
3320.65869	0.00091
3318.73031	0.00066
3316.80194	0.00051
3314.87357	0.00043
3312.94519	0.00079
3311.01682	0.00151
3309.08845	0.00149
3307.16007	0.00061
3305.23170	0.00078
3303.30333	0.00099
3301.37495	0.00065
3299.44658	0.00066
3297.51821	0.00072
3295.58983	0.00079
3293.66146	0.00087
3291.73309	0.00065
3289.80472	0.00055
3287.87634	0.00060
3285.94797	0.00031
3284.01960	0.00025
3282.09122	0.00034
3280.16285	0.00055
3278.23448	0.00065
3276.30610	0.00068
3274.37773	0.00080
3272.44936	0.00080
3270.52098	0.00060
3268.59261	0.00061
3266.66424	0.00045
3264.73586	0.00055
3262.80749	0.00066
3260.87912	0.00086
3258.95074	0.00063
3257.02237	0.00110
3255.09400	0.00136
3253.16562	0.00140
3251.23725	0.00124
3249.30888	0.00097
3247.38050	0.00099
3245.45213	0.00097
3243.52376	0.00110
3241.59538	0.00132
3239.66701	0.00139
3237.73864	0.00122
3235.81026	0.00082
3233.88189	0.00057
3231.95352	0.00026
3230.02515	0.00039
3228.09677	0.00067
3226.16840	0.00067
3224.24003	0.00047
3222.31165	0.00062
3220.38328	0.00063
3218.45491	0.00041
3216.52653	0.00091
3214.59816	0.00099
3212.66979	0.00078
3210.74141	0.00057
3208.81304	0.00023
3206.88467	0.00021
3204.95629	0.00043
3203.02792	0.00046
3201.09955	0.00061
3199.17117	0.00045
3197.24280	0.00058
3195.31443	0.00066
3193.38605	0.00057
3191.45768	0.00064
3189.52931	0.00086
3187.60093	0.00089
3185.67256	0.00049
3183.74419	0.00073
3181.81581	0.00120
3179.88744	0.00083
3177.95907	0.00037
3176.03070	0.00059
3174.10232	0.00099
3172.17395	0.00109
3170.24558	0.00098
3168.31720	0.00071
3166.38883	0.00095
3164.46046	0.00127
3162.53208	0.00122
3160.60371	0.00124
3158.67534	0.00142
3156.74696	0.00158
3154.81859	0.00138
3152.89022	0.00116
3150.96184	0.00107
3149.03347	0.00100
3147.10510	0.00118
3145.17672	0.00140
3143.24835	0.00141
3141.31998	0.00128
3139.39160	0.00184
3137.46323	0.00218
3135.53486	0.00202
3133.60648	0.00164
3131.67811	0.00147
3129.74974	0.00159
3127.82136	0.00166
3125.89299	0.00162
3123.96462	0.00161
3122.03624	0.00174
3120.10787	0.00176
3118.17950	0.00165
3116.25113	0.00154
3114.32275	0.00136
3112.39438	0.00094
3110.46601	0.00056
3108.53763	0.00075
3106.60926	0.00116
3104.68089	0.00135
3102.75251	0.00117
3100.82414	0.00097
3098.89577	0.00094
3096.96739	0.00106
3095.03902	0.00125
3093.11065	0.00154
3091.18227	0.00174
3089.25390	0.00156
3087.32553	0.00130
3085.39715	0.00097
3083.46878	0.00071
3081.54041	0.00111
3079.61203	0.00157
3077.68366	0.00180
3075.75529	0.00186
3073.82691	0.00193
3071.89854	0.00212
3069.97017	0.00209
3068.04179	0.00194
3066.11342	0.00214
3064.18505	0.00259
3062.25668	0.00310
3060.32830	0.00348
3058.39993	0.00350
3056.47156	0.00342
3054.54318	0.00359
3052.61481	0.00395
3050.68644	0.00425
3048.75806	0.00461
3046.82969	0.00513
3044.90132	0.00563
3042.97294	0.00608
3041.04457	0.00642
3039.11620	0.00654
3037.18782	0.00683
3035.25945	0.00763
3033.33108	0.00861
3031.40270	0.00923
3029.47433	0.00937
3027.54596	0.00943
3025.61758	0.00969
3023.68921	0.01006
3021.76084	0.01041
3019.83246	0.01087
3017.90409	0.01141
3015.97572	0.01181
3014.04734	0.01218
3012.11897	0.01292
3010.19060	0.01350
3008.26222	0.01331
3006.33385	0.01316
3004.40548	0.01378
3002.47711	0.01447
3000.54873	0.01453
2998.62036	0.01392
2996.69199	0.01332
2994.76361	0.01307
2992.83524	0.01262
2990.90687	0.01188
2988.97849	0.01128
2987.05012	0.01053
2985.12175	0.00960
2983.19337	0.00882
2981.26500	0.00804
2979.33663	0.00714
2977.40825	0.00648
2975.47988	0.00631
2973.55151	0.00603
2971.62313	0.00560
2969.69476	0.00541
2967.76639	0.00517
2965.83801	0.00423
2963.90964	0.00347
2961.98127	0.00383
2960.05289	0.00440
2958.12452	0.00455
2956.19615	0.00458
2954.26777	0.00478
2952.33940	0.00533
2950.41103	0.00615
2948.48266	0.00688
2946.55428	0.00718
2944.62591	0.00728
2942.69754	0.00683
2940.76916	0.00563
2938.84079	0.00445
2936.91242	0.00416
2934.98404	0.00448
2933.05567	0.00430
2931.12730	0.00428
2929.19892	0.00486
2927.27055	0.00550
2925.34218	0.00572
2923.41380	0.00608
2921.48543	0.00710
2919.55706	0.00823
2917.62868	0.00896
2915.70031	0.00908
2913.77194	0.00900
2911.84356	0.00954
2909.91519	0.01067
2907.98682	0.01156
2906.05844	0.01202
2904.13007	0.01235
2902.20170	0.01242
2900.27332	0.01205
2898.34495	0.01166
2896.41658	0.01140
2894.48820	0.01097
2892.55983	0.01066
2890.63146	0.01086
2888.70309	0.01128
2886.77471	0.01157
2884.84634	0.01169
2882.91797	0.01153
2880.98959	0.01098
2879.06122	0.01047
2877.13285	0.01075
2875.20447	0.01149
2873.27610	0.01186
2871.34773	0.01226
2869.41935	0.01352
2867.49098	0.01549
2865.56261	0.01753
2863.63423	0.01958
2861.70586	0.02165
2859.77749	0.02334
2857.84911	0.02455
2855.92074	0.02574
2853.99237	0.02727
2852.06399	0.02897
2850.13562	0.03083
2848.20725	0.03317
2846.27887	0.03587
2844.35050	0.03836
2842.42213	0.04037
2840.49375	0.04207
2838.56538	0.04375
2836.63701	0.04561
2834.70863	0.04746
2832.78026	0.04902
2830.85189	0.05031
2828.92352	0.05163
2826.99514	0.05310
2825.06677	0.05468
2823.13840	0.05640
2821.21002	0.05806
2819.28165	0.05964
2817.35328	0.06132
2815.42490	0.06309
2813.49653	0.06491
2811.56816	0.06668
2809.63978	0.06840
2807.71141	0.07033
2805.78304	0.07248
2803.85466	0.07459
2801.92629	0.07656
2799.99792	0.07837
2798.06954	0.07998
2796.14117	0.08162
2794.21280	0.08346
2792.28442	0.08535
2790.35605	0.08711
2788.42768	0.08880
2786.49930	0.09070
2784.57093	0.09279
2782.64256	0.09474
2780.71418	0.09625
2778.78581	0.09732
2776.85744	0.09844
2774.92907	0.09994
2773.00069	0.10141
2771.07232	0.10253
2769.14395	0.10354
2767.21557	0.10474
2765.28720	0.10623
2763.35883	0.10784
2761.43045	0.10921
2759.50208	0.11039
2757.57371	0.11169
2755.64533	0.11317
2753.71696	0.11467
2751.78859	0.11611
2749.86021	0.11737
2747.93184	0.11843
2746.00347	0.11948
2744.07509	0.12075
2742.14672	0.12212
2740.21835	0.12324
2738.28997	0.12422
2736.36160	0.12528
2734.43323	0.12635
2732.50485	0.12741
2730.57648	0.12848
2728.64811	0.12956
2726.71973	0.13085
2724.79136	0.13237
2722.86299	0.13400
2720.93461	0.13562
2719.00624	0.13705
2717.07787	0.13831
2715.14950	0.13967
2713.22112	0.14138
2711.29275	0.14343
2709.36438	0.14561
2707.43600	0.14762
2705.50763	0.14931
2703.57926	0.15087
2701.65088	0.15250
2699.72251	0.15408
2697.79414	0.15563
2695.86576	0.15704
2693.93739	0.15826
2692.00902	0.15974
2690.08064	0.16151
2688.15227	0.16288
2686.22390	0.16387
2684.29552	0.16524
2682.36715	0.16697
2680.43878	0.16834
2678.51040	0.16930
2676.58203	0.17046
2674.65366	0.17191
2672.72528	0.17339
2670.79691	0.17478
2668.86854	0.17592
2666.94016	0.17664
2665.01179	0.17714
2663.08342	0.17791
2661.15505	0.17905
2659.22667	0.18011
2657.29830	0.18077
2655.36993	0.18105
2653.44155	0.18118
2651.51318	0.18148
2649.58481	0.18196
2647.65643	0.18257
2645.72806	0.18349
2643.79969	0.18434
2641.87131	0.18478
2639.94294	0.18511
2638.01457	0.18561
2636.08619	0.18620
2634.15782	0.18687
2632.22945	0.18775
2630.30107	0.18868
2628.37270	0.18941
2626.44433	0.19009
2624.51595	0.19085
2622.58758	0.19183
2620.65921	0.19329
2618.73083	0.19478
2616.80246	0.19573
2614.87409	0.19648
2612.94571	0.19754
2611.01734	0.19888
2609.08897	0.20025
2607.16059	0.20162
2605.23222	0.20318
2603.30385	0.20477
2601.37548	0.20594
2599.44710	0.20682
2597.51873	0.20778
2595.59036	0.20877
2593.66198	0.20968
2591.73361	0.21061
2589.80524	0.21162
2587.87686	0.21276
2585.94849	0.21409
2584.02012	0.21532
2582.09174	0.21635
2580.16337	0.21757
2578.23500	0.21893
2576.30662	0.22020
2574.37825	0.22166
2572.44988	0.22341
2570.52150	0.22518
2568.59313	0.22681
2566.66476	0.22853
2564.73638	0.23048
2562.80801	0.23246
2560.87964	0.23448
2558.95126	0.23674
2557.02289	0.23899
2555.09452	0.24092
2553.16614	0.24266
2551.23777	0.24440
2549.30940	0.24599
2547.38103	0.24739
2545.45265	0.24881
2543.52428	0.25026
2541.59591	0.25151
2539.66753	0.25245
2537.73916	0.25329
2535.81079	0.25426
2533.88241	0.25540
2531.95404	0.25648
2530.02567	0.25743
2528.09729	0.25854
2526.16892	0.25976
2524.24055	0.26077
2522.31217	0.26171
2520.38380	0.26283
2518.45543	0.26400
2516.52705	0.26512
2514.59868	0.26629
2512.67031	0.26750
2510.74193	0.26875
2508.81356	0.27014
2506.88519	0.27157
2504.95681	0.27301
2503.02844	0.27470
2501.10007	0.27645
2499.17169	0.27806
2497.24332	0.27958
2495.31495	0.28110
2493.38657	0.28272
2491.45820	0.28439
2489.52983	0.28585
2487.60146	0.28717
2485.67308	0.28873
2483.74471	0.29064
2481.81634	0.29248
2479.88796	0.29402
2477.95959	0.29530
2476.03122	0.29649
2474.10284	0.29780
2472.17447	0.29940
2470.24610	0.30140
2468.31772	0.30345
2466.38935	0.30512
2464.46098	0.30668
2462.53260	0.30846
2460.60423	0.31023
2458.67586	0.31194
2456.74748	0.31376
2454.81911	0.31558
2452.89074	0.31730
2450.96236	0.31914
2449.03399	0.32117
2447.10562	0.32312
2445.17724	0.32486
2443.24887	0.32654
2441.32050	0.32813
2439.39212	0.32956
2437.46375	0.33097
2435.53538	0.33254
2433.60700	0.33395
2431.67863	0.33519
2429.75026	0.33662
2427.82189	0.33820
2425.89351	0.33965
2423.96514	0.34074
2422.03677	0.34170
2420.10839	0.34282
2418.18002	0.34403
2416.25165	0.34538
2414.32327	0.34684
2412.39490	0.34818
2410.46653	0.34955
2408.53815	0.35108
2406.60978	0.35268
2404.68141	0.35430
2402.75303	0.35596
2400.82466	0.35779
2398.89629	0.35984
2396.96791	0.36193
2395.03954	0.36377
2393.11117	0.36525
2391.18279	0.36658
2389.25442	0.36796
2387.32605	0.36940
2385.39767	0.37086
2383.46930	0.37240
2381.54093	0.37404
2379.61255	0.37555
2377.68418	0.37674
2375.75581	0.37789
2373.82744	0.37995
2371.89906	0.38325
2369.97069	0.38672
2368.04232	0.38912
2366.11394	0.39032
2364.18557	0.39140
2362.25720	0.39322
2360.32882	0.39556
2358.40045	0.39766
2356.47208	0.39857
2354.54370	0.39844
2352.61533	0.39810
2350.68696	0.39775
2348.75858	0.39806
2346.83021	0.39951
2344.90184	0.40154
2342.97346	0.40332
2341.04509	0.40483
2339.11672	0.40584
2337.18834	0.40633
2335.25997	0.40658
2333.33160	0.40658
2331.40322	0.40627
2329.47485	0.40602
2327.54648	0.40631
2325.61810	0.40685
2323.68973	0.40738
2321.76136	0.40787
2319.83298	0.40810
2317.90461	0.40849
2315.97624	0.40956
2314.04787	0.41120
2312.11949	0.41309
2310.19112	0.41491
2308.26275	0.41636
2306.33437	0.41749
2304.40600	0.41875
2302.47763	0.42044
2300.54925	0.42204
2298.62088	0.42299
2296.69251	0.42362
2294.76413	0.42425
2292.83576	0.42488
2290.90739	0.42557
2288.97901	0.42615
2287.05064	0.42660
2285.12227	0.42715
2283.19389	0.42773
2281.26552	0.42808
2279.33715	0.42831
2277.40877	0.42867
2275.48040	0.42900
2273.55203	0.42921
2271.62365	0.42945
2269.69528	0.42970
2267.76691	0.42990
2265.83853	0.43023
2263.91016	0.43078
2261.98179	0.43129
2260.05342	0.43151
2258.12504	0.43161
2256.19667	0.43202
2254.26830	0.43298
2252.33992	0.43419
2250.41155	0.43522
2248.48318	0.43632
2246.55480	0.43764
2244.62643	0.43872
2242.69806	0.43957
2240.76968	0.44046
2238.84131	0.44110
2236.91294	0.44148
2234.98456	0.44188
2233.05619	0.44241
2231.12782	0.44300
2229.19944	0.44350
2227.27107	0.44384
2225.34270	0.44399
2223.41432	0.44389
2221.48595	0.44384
2219.55758	0.44411
2217.62920	0.44425
2215.70083	0.44407
2213.77246	0.44405
2211.84408	0.44421
2209.91571	0.44407
2207.98734	0.44360
2206.05896	0.44312
2204.13059	0.44271
2202.20222	0.44226
2200.27385	0.44162
2198.34547	0.44086
2196.41710	0.44016
2194.48873	0.43950
2192.56035	0.43888
2190.63198	0.43828
2188.70361	0.43771
2186.77523	0.43715
2184.84686	0.43675
2182.91849	0.43657
2180.99011	0.43624
2179.06174	0.43576
2177.13337	0.43540
2175.20499	0.43500
2173.27662	0.43455
2171.34825	0.43426
2169.41987	0.43409
2167.49150	0.43392
2165.56313	0.43381
2163.63475	0.43393
2161.70638	0.43416
2159.77801	0.43415
2157.84963	0.43396
2155.92126	0.43400
2153.99289	0.43423
2152.06451	0.43433
2150.13614	0.43435
2148.20777	0.43450
2146.27940	0.43473
2144.35102	0.43472
2142.42265	0.43476
2140.49428	0.43516
2138.56590	0.43559
2136.63753	0.43588
2134.70916	0.43605
2132.78078	0.43615
2130.85241	0.43622
2128.92404	0.43630
2126.99566	0.43668
2125.06729	0.43748
2123.13892	0.43822
2121.21054	0.43882
2119.28217	0.43963
2117.35380	0.44051
2115.42542	0.44105
2113.49705	0.44139
2111.56868	0.44183
2109.64030	0.44232
2107.71193	0.44258
2105.78356	0.44254
2103.85518	0.44243
2101.92681	0.44254
2099.99844	0.44276
2098.07006	0.44280
2096.14169	0.44285
2094.21332	0.44297
2092.28494	0.44290
2090.35657	0.44265
2088.42820	0.44244
2086.49983	0.44241
2084.57145	0.44267
2082.64308	0.44304
2080.71471	0.44309
2078.78633	0.44285
2076.85796	0.44267
2074.92959	0.44268
2073.00121	0.44283
2071.07284	0.44312
2069.14447	0.44359
2067.21609	0.44448
2065.28772	0.44570
2063.35935	0.44666
2061.43097	0.44723
2059.50260	0.44770
2057.57423	0.44818
2055.64585	0.44888
2053.71748	0.45001
2051.78911	0.45162
2049.86073	0.45345
2047.93236	0.45515
2046.00399	0.45664
2044.07561	0.45811
2042.14724	0.45952
2040.21887	0.46055
2038.29049	0.46134
2036.36212	0.46222
2034.43375	0.46319
2032.50538	0.46403
2030.57700	0.46460
2028.64863	0.46507
2026.72026	0.46562
2024.79188	0.46606
2022.86351	0.46625
2020.93514	0.46645
2019.00676	0.46697
2017.07839	0.46749
2015.15002	0.46765
2013.22164	0.46770
2011.29327	0.46802
2009.36490	0.46848
2007.43652	0.46894
2005.50815	0.46951
2003.57978	0.47001
2001.65140	0.47030
1999.72303	0.47062
1997.79466	0.47115
1995.86628	0.47190
1993.93791	0.47292
1992.00954	0.47369
1990.08116	0.47367
1988.15279	0.47344
1986.22442	0.47350
1984.29604	0.47371
1982.36767	0.47396
1980.43930	0.47430
1978.51092	0.47467
1976.58255	0.47508
1974.65418	0.47565
1972.72581	0.47645
1970.79743	0.47757
1968.86906	0.47891
1966.94069	0.47986
1965.01231	0.48013
1963.08394	0.48029
1961.15557	0.48082
1959.22719	0.48163
1957.29882	0.48258
1955.37045	0.48364
1953.44207	0.48481
1951.51370	0.48596
1949.58533	0.48703
1947.65695	0.48810
1945.72858	0.48929
1943.80021	0.49060
1941.87183	0.49152
1939.94346	0.49175
1938.01509	0.49175
1936.08671	0.49183
1934.15834	0.49204
1932.22997	0.49222
1930.30159	0.49224
1928.37322	0.49234
1926.44485	0.49260
1924.51647	0.49308
1922.58810	0.49346
1920.65973	0.49345
1918.73135	0.49323
1916.80298	0.49239
1914.87461	0.49125
1912.94624	0.49083
1911.01786	0.49103
1909.08949	0.49098
1907.16112	0.49034
1905.23274	0.48960
1903.30437	0.48921
1901.37600	0.48891
1899.44762	0.48852
1897.51925	0.48848
1895.59088	0.48886
1893.66250	0.48917
1891.73413	0.48972
1889.80576	0.49040
1887.87738	0.49022
1885.94901	0.48959
1884.02064	0.48950
1882.09226	0.49001
1880.16389	0.49072
1878.23552	0.49122
1876.30714	0.49158
1874.37877	0.49210
1872.45040	0.49324
1870.52202	0.49535
1868.59365	0.49708
1866.66528	0.49638
1864.73690	0.49460
1862.80853	0.49353
1860.88016	0.49296
1858.95179	0.49241
1857.02341	0.49181
1855.09504	0.49104
1853.16667	0.49012
1851.23829	0.48938
1849.30992	0.48926
1847.38155	0.48983
1845.45317	0.49050
1843.52480	0.48958
1841.59643	0.48696
1839.66805	0.48485
1837.73968	0.48374
1835.81131	0.48279
1833.88293	0.48216
1831.95456	0.48281
1830.02619	0.48368
1828.09781	0.48275
1826.16944	0.48113
1824.24107	0.47963
1822.31269	0.47779
1820.38432	0.47614
1818.45595	0.47482
1816.52757	0.47350
1814.59920	0.47263
1812.67083	0.47260
1810.74245	0.47238
1808.81408	0.47090
1806.88571	0.46893
1804.95733	0.46752
1803.02896	0.46677
1801.10059	0.46582
1799.17222	0.46367
1797.24384	0.46093
1795.31547	0.45893
1793.38710	0.45719
1791.45872	0.45311
1789.53035	0.44722
1787.60198	0.44247
1785.67360	0.43861
1783.74523	0.43468
1781.81686	0.43087
1779.88848	0.42669
1777.96011	0.42219
1776.03174	0.41898
1774.10336	0.41723
1772.17499	0.41417
1770.24662	0.40787
1768.31824	0.40071
1766.38987	0.39441
1764.46150	0.38972
1762.53312	0.38529
1760.60475	0.37925
1758.67638	0.37248
1756.74800	0.36514
1754.81963	0.35777
1752.89126	0.35147
1750.96288	0.34444
1749.03451	0.33426
1747.10614	0.32225
1745.17777	0.31026
1743.24939	0.29841
1741.32102	0.28579
1739.39265	0.27158
1737.46427	0.25899
1735.53590	0.24795
1733.60753	0.23299
1731.67915	0.21717
1729.75078	0.20353
1727.82241	0.18967
1725.89403	0.17616
1723.96566	0.16271
1722.03729	0.15015
1720.10891	0.13928
1718.18054	0.12626
1716.25217	0.10893
1714.32379	0.09311
1712.39542	0.07983
1710.46705	0.06742
1708.53867	0.05510
1706.61030	0.04185
1704.68193	0.02908
1702.75355	0.01988
1700.82518	0.01264
1698.89681	0.00631
1696.96843	0.00317
1695.04006	0.00180
1693.11169	0.00110
1691.18331	0.00100
1689.25494	0.00105
1687.32657	0.00123
1685.39820	0.00149
1683.46982	0.00119
1681.54145	0.00063
1679.61308	0.00051
1677.68470	0.00071
1675.75633	0.00083
1673.82796	0.00117
1671.89958	0.00134
1669.97121	0.00134
1668.04284	0.00106
1666.11446	0.00058
1664.18609	0.00040
1662.25772	0.00050
1660.32934	0.00062
1658.40097	0.00090
1656.47260	0.00113
1654.54422	0.00134
1652.61585	0.00133
1650.68748	0.00122
1648.75910	0.00104
1646.83073	0.00053
1644.90236	0.00005
1642.97398	0.00028
1641.04561	0.00058
1639.11724	0.00061
1637.18886	0.00058
1635.26049	0.00090
1633.33212	0.00084
1631.40375	0.00054
1629.47537	0.00036
1627.54700	0.00033
1625.61863	0.00016
1623.69025	0.00046
1621.76188	0.00099
1619.83351	0.00147
1617.90513	0.00176
1615.97676	0.00163
1614.04839	0.00111
1612.12001	0.00062
1610.19164	0.00050
1608.26327	0.00064
1606.33489	0.00070
1604.40652	0.00055
1602.47815	0.00080
1600.54977	0.00108
1598.62140	0.00070
1596.69303	0.00064
1594.76465	0.00086
1592.83628	0.00081
1590.90791	0.00069
1588.97953	0.00053
1587.05116	0.00040
1585.12279	0.00047
1583.19441	0.00045
1581.26604	0.00027
1579.33767	0.00041
1577.40929	0.00040
1575.48092	0.00049
1573.55255	0.00068
1571.62418	0.00091
1569.69580	0.00088
1567.76743	0.00055
1565.83906	0.00026
1563.91068	0.00029
1561.98231	0.00064
1560.05394	0.00107
1558.12556	0.00116
1556.19719	0.00098
1554.26882	0.00075
1552.34044	0.00040
1550.41207	0.00042
1548.48370	0.00032
1546.55532	0.00055
1544.62695	0.00078
1542.69858	0.00087
1540.77020	0.00026
1538.84183	0.00073
1536.91346	0.00063
1534.98508	0.00059
1533.05671	0.00058
1531.12834	0.00040
1529.19996	0.00051
1527.27159	0.00066
1525.34322	0.00049
1523.41484	0.00040
1521.48647	0.00062
1519.55810	0.00077
1517.62972	0.00109
1515.70135	0.00109
1513.77298	0.00094
1511.84461	0.00097
1509.91623	0.00107
1507.98786	0.00121
1506.05949	0.00084
1504.13111	0.00051
1502.20274	0.00074
1500.27437	0.00110
1498.34599	0.00118
1496.41762	0.00089
1494.48925	0.00078
1492.56087	0.00152
1490.63250	0.00306
1488.70413	0.00459
1486.77575	0.00545
1484.84738	0.00582
1482.91901	0.00612
1480.99063	0.00651
1479.06226	0.00668
1477.13389	0.00637
1475.20551	0.00559
1473.27714	0.00446
1471.34877	0.00354
1469.42039	0.00310
1467.49202	0.00271
1465.56365	0.00248
1463.63527	0.00263
1461.70690	0.00270
1459.77853	0.00250
1457.85016	0.00226
1455.92178	0.00209
1453.99341	0.00174
1452.06504	0.00134
1450.13666	0.00086
1448.20829	0.00067
1446.27992	0.00073
1444.35154	0.00075
1442.42317	0.00075
1440.49480	0.00074
1438.56642	0.00083
1436.63805	0.00126
1434.70968	0.00170
1432.78130	0.00162
1430.85293	0.00151
1428.92456	0.00171
1426.99618	0.00192
1425.06781	0.00209
1423.13944	0.00193
1421.21106	0.00141
1419.28269	0.00109
1417.35432	0.00109
1415.42594	0.00122
1413.49757	0.00159
1411.56920	0.00167
1409.64082	0.00143
1407.71245	0.00138
1405.78408	0.00167
1403.85570	0.00182
1401.92733	0.00142
1399.99896	0.00098
1398.07059	0.00116
1396.14221	0.00164
1394.21384	0.00197
1392.28547	0.00195
1390.35709	0.00191
1388.42872	0.00187
1386.50035	0.00154
1384.57197	0.00080
1382.64360	0.00048
1380.71523	0.00066
1378.78685	0.00113
1376.85848	0.00117
1374.93011	0.00099
1373.00173	0.00115
1371.07336	0.00116
1369.14499	0.00112
1367.21661	0.00143
1365.28824	0.00191
1363.35987	0.00296
1361.43149	0.00448
1359.50312	0.00603
1357.57475	0.00745
1355.64637	0.00863
1353.71800	0.00942
1351.78963	0.00978
1349.86125	0.00985
1347.93288	0.00973
1346.00451	0.00947
1344.07614	0.00909
1342.14776	0.00853
1340.21939	0.00790
1338.29102	0.00742
1336.36264	0.00683
1334.43427	0.00586
1332.50590	0.00459
1330.57752	0.00332
1328.64915	0.00252
1326.72078	0.00242
1324.79240	0.00258
1322.86403	0.00287
1320.93566	0.00322
1319.00728	0.00325
1317.07891	0.00298
1315.15054	0.00268
1313.22216	0.00246
1311.29379	0.00231
1309.36542	0.00202
1307.43704	0.00148
1305.50867	0.00134
1303.58030	0.00171
1301.65192	0.00202
1299.72355	0.00217
1297.79518	0.00238
1295.86680	0.00260
1293.93843	0.00254
1292.01006	0.00234
1290.08168	0.00226
1288.15331	0.00227
1286.22494	0.00237
1284.29657	0.00246
1282.36819	0.00240
1280.43982	0.00239
1278.51145	0.00241
1276.58307	0.00203
1274.65470	0.00163
1272.72633	0.00169
1270.79795	0.00159
1268.86958	0.00116
1266.94121	0.00085
1265.01283	0.00083
1263.08446	0.00091
1261.15609	0.00093
1259.22771	0.00097
1257.29934	0.00083
1255.37097	0.00087
1253.44259	0.00141
1251.51422	0.00173
1249.58585	0.00190
1247.65747	0.00244
1245.72910	0.00298
1243.80073	0.00297
1241.87235	0.00304
1239.94398	0.00315
1238.01561	0.00340
1236.08723	0.00429
1234.15886	0.00577
1232.23049	0.00653
1230.30212	0.00636
1228.37374	0.00651
1226.44537	0.00721
1224.51700	0.00761
1222.58862	0.00795
1220.66025	0.00859
1218.73188	0.00870
1216.80350	0.00822
1214.87513	0.00803
1212.94676	0.00814
1211.01838	0.00817
1209.09001	0.00813
1207.16164	0.00796
1205.23326	0.00763
1203.30489	0.00785
1201.37652	0.00934
1199.44814	0.01175
1197.51977	0.01496
1195.59140	0.01877
1193.66302	0.02208
1191.73465	0.02458
1189.80628	0.02635
1187.87790	0.02642
1185.94953	0.02438
1184.02116	0.02151
1182.09278	0.01929
1180.16441	0.01760
1178.23604	0.01547
1176.30766	0.01315
1174.37929	0.01114
1172.45092	0.00926
1170.52255	0.00716
1168.59417	0.00465
1166.66580	0.00218
1164.73743	0.00080
1162.80905	0.00155
1160.88068	0.00212
1158.95231	0.00161
1157.02393	0.00117
1155.09556	0.00138
1153.16719	0.00113
1151.23881	0.00162
1149.31044	0.00275
1147.38207	0.00432
1145.45369	0.00635
1143.52532	0.00831
1141.59695	0.00972
1139.66857	0.01072
1137.74020	0.01101
1135.81183	0.01052
1133.88345	0.00968
1131.95508	0.00823
1130.02671	0.00631
1128.09833	0.00455
1126.16996	0.00353
1124.24159	0.00333
1122.31321	0.00324
1120.38484	0.00291
1118.45647	0.00232
1116.52809	0.00205
1114.59972	0.00253
1112.67135	0.00280
1110.74298	0.00224
1108.81460	0.00185
1106.88623	0.00228
1104.95786	0.00308
1103.02948	0.00334
1101.10111	0.00300
1099.17274	0.00257
1097.24436	0.00212
1095.31599	0.00124
1093.38762	0.00054
1091.45924	0.00100
1089.53087	0.00135
1087.60250	0.00098
1085.67412	0.00127
1083.74575	0.00174
1081.81738	0.00139
1079.88900	0.00106
1077.96063	0.00098
1076.03226	0.00104
1074.10388	0.00085
1072.17551	0.00092
1070.24714	0.00126
1068.31876	0.00140
1066.39039	0.00096
1064.46202	0.00150
1062.53364	0.00218
1060.60527	0.00282
1058.67690	0.00311
1056.74853	0.00326
1054.82015	0.00273
1052.89178	0.00220
1050.96341	0.00210
1049.03503	0.00230
1047.10666	0.00238
1045.17829	0.00193
1043.24991	0.00131
1041.32154	0.00038
1039.39317	0.00044
1037.46479	0.00091
1035.53642	0.00102
1033.60805	0.00140
1031.67967	0.00142
1029.75130	0.00070
1027.82293	0.00074
1025.89455	0.00115
1023.96618	0.00187
1022.03781	0.00223
1020.10943	0.00179
1018.18106	0.00135
1016.25269	0.00165
1014.32431	0.00217
1012.39594	0.00254
1010.46757	0.00276
1008.53919	0.00344
1006.61082	0.00481
1004.68245	0.00729
1002.75407	0.01078
1000.82570	0.01488
998.89733	0.01914
996.96896	0.02293
995.04058	0.02659
993.11221	0.03085
991.18384	0.03579
989.25546	0.04094
987.32709	0.04533
985.39872	0.04782
983.47034	0.04784
981.54197	0.04563
979.61360	0.04208
977.68522	0.03856
975.75685	0.03676
973.82848	0.03799
971.90010	0.04216
969.97173	0.04842
968.04336	0.05602
966.11498	0.06332
964.18661	0.06774
962.25824	0.06684
960.32986	0.05914
958.40149	0.04648
956.47312	0.03471
954.54474	0.02917
952.61637	0.03113
950.68800	0.03919
948.75962	0.05050
946.83125	0.06197
944.90288	0.07252
942.97451	0.08269
941.04613	0.09231
939.11776	0.10087
937.18939	0.10865
935.26101	0.11541
933.33264	0.12044
931.40427	0.12438
929.47589	0.12804
927.54752	0.13069
925.61915	0.13151
923.69077	0.13107
921.76240	0.13104
919.83403	0.13312
917.90565	0.13740
915.97728	0.14204
914.04891	0.14526
912.12053	0.14606
910.19216	0.14334
908.26379	0.13684
906.33541	0.12771
904.40704	0.11707
902.47867	0.10664
900.55029	0.09867
898.62192	0.09350
896.69355	0.09065
894.76517	0.09041
892.83680	0.09266
890.90843	0.09705
888.98005	0.10362
887.05168	0.11179
885.12331	0.12000
883.19494	0.12672
881.26656	0.13125
879.33819	0.13351
877.40982	0.13398
875.48144	0.13427
873.55307	0.13546
871.62470	0.13648
869.69632	0.13640
867.76795	0.13640
865.83958	0.13726
863.91120	0.13755
861.98283	0.13712
860.05446	0.13685
858.12608	0.13549
856.19771	0.13224
854.26934	0.12879
852.34096	0.12662
850.41259	0.12560
848.48422	0.12510
846.55584	0.12417
844.62747	0.12155
842.69910	0.11739
840.77072	0.11327
838.84235	0.10989
836.91398	0.10624
834.98560	0.10151
833.05723	0.09595
831.12886	0.09023
829.20049	0.08532
827.27211	0.08135
825.34374	0.07781
823.41537	0.07551
821.48699	0.07442
819.55862	0.07264
817.63025	0.06994
815.70187	0.06810
813.77350	0.06780
811.84513	0.06818
809.91675	0.06775
807.98838	0.06599
806.06001	0.06427
804.13163	0.06356
802.20326	0.06322
800.27489	0.06242
798.34651	0.06116
796.41814	0.05977
794.48977	0.05821
792.56139	0.05631
790.63302	0.05406
788.70465	0.05163
786.77627	0.04874
784.84790	0.04544
782.91953	0.04265
780.99115	0.04035
779.06278	0.03808
777.13441	0.03600
775.20603	0.03394
773.27766	0.03151
771.34929	0.02880
769.42092	0.02659
767.49254	0.02555
765.56417	0.02493
763.63580	0.02388
761.70742	0.02255
759.77905	0.02138
757.85068	0.02027
755.92230	0.01882
753.99393	0.01734
752.06556	0.01627
750.13718	0.01577
748.20881	0.01564
746.28044	0.01499
744.35206	0.01412
742.42369	0.01410
740.49532	0.01427
738.56694	0.01436
736.63857	0.01529
734.71020	0.01648
732.78182	0.01636
730.85345	0.01571
728.92508	0.01624
726.99670	0.01690
725.06833	0.01621
723.13996	0.01470
721.21158	0.01279
719.28321	0.01112
717.35484	0.01082
715.42647	0.01100
713.49809	0.01118
711.56972	0.01037
709.64135	0.00875
707.71297	0.00782
705.78460	0.00812
703.85623	0.00962
701.92785	0.01150
699.99948	0.01203
698.07111	0.01135
696.14273	0.01106
694.21436	0.01043
692.28599	0.00910
690.35761	0.00892
688.42924	0.00963
686.50087	0.00858
684.57249	0.00801
682.64412	0.00961
680.71575	0.01179
678.78737	0.01266
676.85900	0.01212
674.93063	0.01103
673.00225	0.00977
671.07388	0.00872
669.14551	0.00741
667.21713	0.00779
665.28876	0.01010
663.36039	0.01115
661.43201	0.01206
659.50364	0.01177
657.57527	0.00764
655.64690	0.00638
653.71852	0.00902
651.79015	0.01166
649.86178	0.01068
647.93340	0.00864
646.00503	0.00804
644.07666	0.00900
642.14828	0.00834
640.21991	0.00666
638.29154	0.00761
636.36316	0.00938
634.43479	0.00901
632.50642	0.00798
630.57804	0.00794
628.64967	0.00753
626.72130	0.00818
624.79292	0.00875
622.86455	0.00727
620.93618	0.00581
619.00780	0.00601
617.07943	0.00824
615.15106	0.00933
613.22268	0.01165
611.29431	0.01308
609.36594	0.01528
607.43756	0.02125
605.50919	0.01909
603.58082	0.01083
601.65244	0.00979
599.72407	0.01568
