3997.51769	0.03283
3995.58931	0.03331
3993.66094	0.03358
3991.73257	0.03343
3989.80419	0.03330
3987.87582	0.03330
3985.94745	0.03330
3984.01907	0.03348
3982.09070	0.03374
3980.16233	0.03360
3978.23396	0.03341
3976.30558	0.03367
3974.37721	0.03385
3972.44884	0.03357
3970.52046	0.03321
3968.59209	0.03311
3966.66372	0.03326
3964.73534	0.03353
3962.80697	0.03395
3960.87860	0.03437
3958.95022	0.03420
3957.02185	0.03353
3955.09348	0.03336
3953.16510	0.03374
3951.23673	0.03397
3949.30836	0.03428
3947.37998	0.03483
3945.45161	0.03507
3943.52324	0.03492
3941.59486	0.03473
3939.66649	0.03461
3937.73812	0.03455
3935.80974	0.03466
3933.88137	0.03482
3931.95300	0.03477
3930.02462	0.03451
3928.09625	0.03439
3926.16788	0.03462
3924.23950	0.03496
3922.31113	0.03534
3920.38276	0.03584
3918.45439	0.03625
3916.52601	0.03628
3914.59764	0.03579
3912.66927	0.03529
3910.74089	0.03560
3908.81252	0.03653
3906.88415	0.03734
3904.95577	0.03778
3903.02740	0.03773
3901.09903	0.03743
3899.17065	0.03718
3897.24228	0.03686
3895.31391	0.03665
3893.38553	0.03681
3891.45716	0.03728
3889.52879	0.03773
3887.60041	0.03788
3885.67204	0.03772
3883.74367	0.03788
3881.81529	0.03862
3879.88692	0.03908
3877.95855	0.03903
3876.03017	0.03890
3874.10180	0.03861
3872.17343	0.03844
3870.24505	0.03886
3868.31668	0.03955
3866.38831	0.04000
3864.45994	0.03998
3862.53156	0.03962
3860.60319	0.03938
3858.67482	0.03940
3856.74644	0.03964
3854.81807	0.04036
3852.88970	0.04127
3850.96132	0.04111
3849.03295	0.04049
3847.10458	0.03984
3845.17620	0.03916
3843.24783	0.03897
3841.31946	0.03960
3839.39108	0.04003
3837.46271	0.03934
3835.53434	0.03860
3833.60596	0.03897
3831.67759	0.04005
3829.74922	0.04073
3827.82084	0.04080
3825.89247	0.04086
3823.96410	0.04138
3822.03572	0.04204
3820.10735	0.04189
3818.17898	0.04145
3816.25060	0.04117
3814.32223	0.04050
3812.39386	0.03986
3810.46548	0.03969
3808.53711	0.03986
3806.60874	0.04006
3804.68037	0.04000
3802.75199	0.03993
3800.82362	0.03995
3798.89525	0.03975
3796.96687	0.03944
3795.03850	0.03952
3793.11013	0.04005
3791.18175	0.04050
3789.25338	0.04044
3787.32501	0.04027
3785.39663	0.04061
3783.46826	0.04097
3781.53989	0.04075
3779.61151	0.04049
3777.68314	0.04058
3775.75477	0.04045
3773.82639	0.04010
3771.89802	0.04006
3769.96965	0.04013
3768.04127	0.03959
3766.11290	0.03881
3764.18453	0.03842
3762.25615	0.03833
3760.32778	0.03855
3758.39941	0.03939
3756.47103	0.04003
3754.54266	0.03972
3752.61429	0.03913
3750.68591	0.03908
3748.75754	0.03936
3746.82917	0.03963
3744.90080	0.03987
3742.97242	0.03947
3741.04405	0.03888
3739.11568	0.03905
3737.18730	0.03997
3735.25893	0.04088
3733.33056	0.04094
3731.40218	0.03992
3729.47381	0.03873
3727.54544	0.03855
3725.61706	0.03909
3723.68869	0.03892
3721.76032	0.03812
3719.83194	0.03770
3717.90357	0.03750
3715.97520	0.03718
3714.04682	0.03695
3712.11845	0.03702
3710.19008	0.03701
3708.26170	0.03649
3706.33333	0.03596
3704.40496	0.03568
3702.47658	0.03529
3700.54821	0.03460
3698.61984	0.03390
3696.69146	0.03345
3694.76309	0.03328
3692.83472	0.03323
3690.90635	0.03300
3688.97797	0.03190
3687.04960	0.03014
3685.12123	0.02907
3683.19285	0.02871
3681.26448	0.02824
3679.33611	0.02749
3677.40773	0.02714
3675.47936	0.02671
3673.55099	0.02505
3671.62261	0.02329
3669.69424	0.02199
3667.76587	0.02089
3665.83749	0.01997
3663.90912	0.01915
3661.98075	0.01846
3660.05237	0.01803
3658.12400	0.01763
3656.19563	0.01673
3654.26725	0.01538
3652.33888	0.01403
3650.41051	0.01281
3648.48213	0.01150
3646.55376	0.01043
3644.62539	0.01011
3642.69701	0.00973
3640.76864	0.00849
3638.84027	0.00720
3636.91189	0.00689
3634.98352	0.00688
3633.05515	0.00627
3631.12678	0.00517
3629.19840	0.00400
3627.27003	0.00370
3625.34166	0.00376
3623.41328	0.00351
3621.48491	0.00293
3619.55654	0.00238
3617.62816	0.00221
3615.69979	0.00231
3613.77142	0.00220
3611.84304	0.00161
3609.91467	0.00164
3607.98630	0.00202
3606.05792	0.00140
3604.12955	0.00110
3602.20118	0.00110
3600.27280	0.00087
3598.34443	0.00077
3596.41606	0.00093
3594.48768	0.00097
3592.55931	0.00096
3590.63094	0.00077
3588.70256	0.00070
3586.77419	0.00085
3584.84582	0.00083
3582.91744	0.00073
3580.98907	0.00085
3579.06070	0.00109
3577.13233	0.00133
3575.20395	0.00136
3573.27558	0.00102
3571.34721	0.00040
3569.41883	0.00041
3567.49046	0.00079
3565.56209	0.00102
3563.63371	0.00114
3561.70534	0.00099
3559.77697	0.00055
3557.84859	0.00088
3555.92022	0.00143
3553.99185	0.00119
3552.06347	0.00048
3550.13510	0.00035
3548.20673	0.00029
3546.27835	0.00039
3544.34998	0.00042
3542.42161	0.00080
3540.49323	0.00138
3538.56486	0.00161
3536.63649	0.00133
3534.70811	0.00068
3532.77974	0.00057
3530.85137	0.00134
3528.92299	0.00146
3526.99462	0.00070
3525.06625	0.00077
3523.13787	0.00100
3521.20950	0.00096
3519.28113	0.00085
3517.35276	0.00095
3515.42438	0.00098
3513.49601	0.00035
3511.56764	0.00085
3509.63926	0.00137
3507.71089	0.00105
3505.78252	0.00072
3503.85414	0.00098
3501.92577	0.00069
3499.99740	0.00086
3498.06902	0.00141
3496.14065	0.00162
3494.21228	0.00103
3492.28390	0.00044
3490.35553	0.00036
3488.42716	0.00051
3486.49878	0.00059
3484.57041	0.00045
3482.64204	0.00041
3480.71366	0.00068
3478.78529	0.00083
3476.85692	0.00103
3474.92854	0.00105
3473.00017	0.00058
3471.07180	0.00056
3469.14342	0.00091
3467.21505	0.00117
3465.28668	0.00111
3463.35831	0.00102
3461.42993	0.00080
3459.50156	0.00153
3457.57319	0.00187
3455.64481	0.00144
3453.71644	0.00091
3451.78807	0.00045
3449.85969	0.00047
3447.93132	0.00078
3446.00295	0.00094
3444.07457	0.00101
3442.14620	0.00076
3440.21783	0.00058
3438.28945	0.00065
3436.36108	0.00076
3434.43271	0.00109
3432.50433	0.00077
3430.57596	0.00069
3428.64759	0.00088
3426.71921	0.00093
3424.79084	0.00116
3422.86247	0.00130
3420.93409	0.00112
3419.00572	0.00096
3417.07735	0.00105
3415.14897	0.00071
3413.22060	0.00034
3411.29223	0.00052
3409.36385	0.00041
3407.43548	0.00055
3405.50711	0.00069
3403.57874	0.00070
3401.65036	0.00096
3399.72199	0.00132
3397.79362	0.00101
3395.86524	0.00070
3393.93687	0.00052
3392.00850	0.00029
3390.08012	0.00073
3388.15175	0.00132
3386.22338	0.00152
3384.29500	0.00140
3382.36663	0.00132
3380.43826	0.00119
3378.50988	0.00070
3376.58151	0.00085
3374.65314	0.00105
3372.72476	0.00074
3370.79639	0.00050
3368.86802	0.00061
3366.93964	0.00111
3365.01127	0.00150
3363.08290	0.00157
3361.15452	0.00114
3359.22615	0.00045
3357.29778	0.00061
3355.36940	0.00048
3353.44103	0.00050
3351.51266	0.00076
3349.58428	0.00070
3347.65591	0.00074
3345.72754	0.00106
3343.79917	0.00121
3341.87079	0.00115
3339.94242	0.00106
3338.01405	0.00069
3336.08567	0.00068
3334.15730	0.00083
3332.22893	0.00105
3330.30055	0.00128
3328.37218	0.00123
3326.44381	0.00075
3324.51543	0.00073
3322.58706	0.00052
3320.65869	0.00053
3318.73031	0.00065
3316.80194	0.00080
3314.87357	0.00079
3312.94519	0.00072
3311.01682	0.00121
3309.08845	0.00129
3307.16007	0.00089
3305.23170	0.00084
3303.30333	0.00063
3301.37495	0.00079
3299.44658	0.00064
3297.51821	0.00041
3295.58983	0.00030
3293.66146	0.00025
3291.73309	0.00077
3289.80472	0.00066
3287.87634	0.00056
3285.94797	0.00058
3284.01960	0.00057
3282.09122	0.00046
3280.16285	0.00076
3278.23448	0.00058
3276.30610	0.00022
3274.37773	0.00052
3272.44936	0.00057
3270.52098	0.00024
3268.59261	0.00073
3266.66424	0.00105
3264.73586	0.00063
3262.80749	0.00112
3260.87912	0.00142
3258.95074	0.00128
3257.02237	0.00123
3255.09400	0.00143
3253.16562	0.00130
3251.23725	0.00108
3249.30888	0.00085
3247.38050	0.00067
3245.45213	0.00043
3243.52376	0.00037
3241.59538	0.00101
3239.66701	0.00132
3237.73864	0.00109
3235.81026	0.00106
3233.88189	0.00136
3231.95352	0.00195
3230.02515	0.00195
3228.09677	0.00131
3226.16840	0.00062
3224.24003	0.00049
3222.31165	0.00048
3220.38328	0.00044
3218.45491	0.00069
3216.52653	0.00093
3214.59816	0.00057
3212.66979	0.00119
3210.74141	0.00207
3208.81304	0.00209
3206.88467	0.00131
3204.95629	0.00105
3203.02792	0.00080
3201.09955	0.00076
3199.17117	0.00124
3197.24280	0.00113
3195.31443	0.00073
3193.38605	0.00079
3191.45768	0.00097
3189.52931	0.00085
3187.60093	0.00066
3185.67256	0.00078
3183.74419	0.00067
3181.81581	0.00063
3179.88744	0.00112
3177.95907	0.00113
3176.03070	0.00100
3174.10232	0.00102
3172.17395	0.00051
3170.24558	0.00074
3168.31720	0.00125
3166.38883	0.00107
3164.46046	0.00096
3162.53208	0.00114
3160.60371	0.00111
3158.67534	0.00086
3156.74696	0.00058
3154.81859	0.00032
3152.89022	0.00054
3150.96184	0.00099
3149.03347	0.00116
3147.10510	0.00123
3145.17672	0.00117
3143.24835	0.00118
3141.31998	0.00140
3139.39160	0.00126
3137.46323	0.00051
3135.53486	0.00065
3133.60648	0.00069
3131.67811	0.00076
3129.74974	0.00052
3127.82136	0.00060
3125.89299	0.00071
3123.96462	0.00063
3122.03624	0.00047
3120.10787	0.00079
3118.17950	0.00083
3116.25113	0.00072
3114.32275	0.00057
3112.39438	0.00061
3110.46601	0.00059
3108.53763	0.00042
3106.60926	0.00015
3104.68089	0.00040
3102.75251	0.00058
3100.82414	0.00062
3098.89577	0.00038
3096.96739	0.00054
3095.03902	0.00077
3093.11065	0.00071
3091.18227	0.00058
3089.25390	0.00059
3087.32553	0.00037
3085.39715	0.00022
3083.46878	0.00077
3081.54041	0.00139
3079.61203	0.00178
3077.68366	0.00176
3075.75529	0.00137
3073.82691	0.00076
3071.89854	0.00023
3069.97017	0.00071
3068.04179	0.00024
3066.11342	0.00063
3064.18505	0.00058
3062.25668	0.00039
3060.32830	0.00056
3058.39993	0.00061
3056.47156	0.00063
3054.54318	0.00073
3052.61481	0.00093
3050.68644	0.00052
3048.75806	0.00045
3046.82969	0.00027
3044.90132	0.00055
3042.97294	0.00069
3041.04457	0.00056
3039.11620	0.00045
3037.18782	0.00066
3035.25945	0.00063
3033.33108	0.00093
3031.40270	0.00104
3029.47433	0.00070
3027.54596	0.00054
3025.61758	0.00050
3023.68921	0.00043
3021.76084	0.00063
3019.83246	0.00055
3017.90409	0.00030
3015.97572	0.00037
3014.04734	0.00020
3012.11897	0.00056
3010.19060	0.00095
3008.26222	0.00134
3006.33385	0.00124
3004.40548	0.00080
3002.47711	0.00095
3000.54873	0.00110
2998.62036	0.00113
2996.69199	0.00114
2994.76361	0.00111
2992.83524	0.00094
2990.90687	0.00077
2988.97849	0.00085
2987.05012	0.00100
2985.12175	0.00099
2983.19337	0.00126
2981.26500	0.00132
2979.33663	0.00099
2977.40825	0.00069
2975.47988	0.00102
2973.55151	0.00151
2971.62313	0.00129
2969.69476	0.00087
2967.76639	0.00167
2965.83801	0.00210
2963.90964	0.00158
2961.98127	0.00117
2960.05289	0.00107
2958.12452	0.00088
2956.19615	0.00140
2954.26777	0.00117
2952.33940	0.00071
2950.41103	0.00125
2948.48266	0.00172
2946.55428	0.00132
2944.62591	0.00068
2942.69754	0.00041
2940.76916	0.00071
2938.84079	0.00122
2936.91242	0.00135
2934.98404	0.00093
2933.05567	0.00095
2931.12730	0.00102
2929.19892	0.00092
2927.27055	0.00093
2925.34218	0.00085
2923.41380	0.00024
2921.48543	0.00112
2919.55706	0.00182
2917.62868	0.00129
2915.70031	0.00041
2913.77194	0.00105
2911.84356	0.00161
2909.91519	0.00166
2907.98682	0.00170
2906.05844	0.00186
2904.13007	0.00190
2902.20170	0.00160
2900.27332	0.00130
2898.34495	0.00174
2896.41658	0.00190
2894.48820	0.00170
2892.55983	0.00108
2890.63146	0.00047
2888.70309	0.00105
2886.77471	0.00142
2884.84634	0.00091
2882.91797	0.00016
2880.98959	0.00052
2879.06122	0.00096
2877.13285	0.00091
2875.20447	0.00057
2873.27610	0.00042
2871.34773	0.00037
2869.41935	0.00043
2867.49098	0.00045
2865.56261	0.00047
2863.63423	0.00083
2861.70586	0.00086
2859.77749	0.00056
2857.84911	0.00084
2855.92074	0.00131
2853.99237	0.00162
2852.06399	0.00166
2850.13562	0.00141
2848.20725	0.00076
2846.27887	0.00031
2844.35050	0.00107
2842.42213	0.00116
2840.49375	0.00076
2838.56538	0.00067
2836.63701	0.00071
2834.70863	0.00069
2832.78026	0.00051
2830.85189	0.00054
2828.92352	0.00058
2826.99514	0.00095
2825.06677	0.00111
2823.13840	0.00096
2821.21002	0.00097
2819.28165	0.00098
2817.35328	0.00080
2815.42490	0.00096
2813.49653	0.00112
2811.56816	0.00106
2809.63978	0.00064
2807.71141	0.00028
2805.78304	0.00036
2803.85466	0.00051
2801.92629	0.00079
2799.99792	0.00089
2798.06954	0.00085
2796.14117	0.00089
2794.21280	0.00056
2792.28442	0.00024
2790.35605	0.00073
2788.42768	0.00076
2786.49930	0.00043
2784.57093	0.00040
2782.64256	0.00053
2780.71418	0.00060
2778.78581	0.00029
2776.85744	0.00024
2774.92907	0.00045
2773.00069	0.00034
2771.07232	0.00046
2769.14395	0.00087
2767.21557	0.00101
2765.28720	0.00094
2763.35883	0.00077
2761.43045	0.00081
2759.50208	0.00100
2757.57371	0.00113
2755.64533	0.00091
2753.71696	0.00072
2751.78859	0.00085
2749.86021	0.00074
2747.93184	0.00075
2746.00347	0.00087
2744.07509	0.00080
2742.14672	0.00066
2740.21835	0.00056
2738.28997	0.00048
2736.36160	0.00037
2734.43323	0.00034
2732.50485	0.00056
2730.57648	0.00060
2728.64811	0.00035
2726.71973	0.00071
2724.79136	0.00098
2722.86299	0.00101
2720.93461	0.00082
2719.00624	0.00082
2717.07787	0.00095
2715.14950	0.00097
2713.22112	0.00086
2711.29275	0.00032
2709.36438	0.00073
2707.43600	0.00092
2705.50763	0.00074
2703.57926	0.00030
2701.65088	0.00031
2699.72251	0.00045
2697.79414	0.00033
2695.86576	0.00028
2693.93739	0.00024
2692.00902	0.00057
2690.08064	0.00063
2688.15227	0.00057
2686.22390	0.00070
2684.29552	0.00079
2682.36715	0.00065
2680.43878	0.00055
2678.51040	0.00045
2676.58203	0.00051
2674.65366	0.00056
2672.72528	0.00061
2670.79691	0.00065
2668.86854	0.00074
2666.94016	0.00086
2665.01179	0.00082
2663.08342	0.00067
2661.15505	0.00049
2659.22667	0.00040
2657.29830	0.00035
2655.36993	0.00031
2653.44155	0.00037
2651.51318	0.00049
2649.58481	0.00052
2647.65643	0.00026
2645.72806	0.00034
2643.79969	0.00028
2641.87131	0.00037
2639.94294	0.00047
2638.01457	0.00067
2636.08619	0.00097
2634.15782	0.00087
2632.22945	0.00078
2630.30107	0.00066
2628.37270	0.00033
2626.44433	0.00037
2624.51595	0.00048
2622.58758	0.00048
2620.65921	0.00028
2618.73083	0.00032
2616.80246	0.00055
2614.87409	0.00051
2612.94571	0.00080
2611.01734	0.00099
2609.08897	0.00062
2607.16059	0.00030
2605.23222	0.00031
2603.30385	0.00051
2601.37548	0.00076
2599.44710	0.00072
2597.51873	0.00077
2595.59036	0.00076
2593.66198	0.00083
2591.73361	0.00079
2589.80524	0.00064
2587.87686	0.00051
2585.94849	0.00028
2584.02012	0.00011
2582.09174	0.00015
2580.16337	0.00036
2578.23500	0.00065
2576.30662	0.00058
2574.37825	0.00049
2572.44988	0.00042
2570.52150	0.00041
2568.59313	0.00063
2566.66476	0.00066
2564.73638	0.00060
2562.80801	0.00062
2560.87964	0.00065
2558.95126	0.00065
2557.02289	0.00046
2555.09452	0.00039
2553.16614	0.00057
2551.23777	0.00067
2549.30940	0.00087
2547.38103	0.00080
2545.45265	0.00052
2543.52428	0.00043
2541.59591	0.00037
2539.66753	0.00059
2537.73916	0.00042
2535.81079	0.00063
2533.88241	0.00094
2531.95404	0.00098
2530.02567	0.00143
2528.09729	0.00161
2526.16892	0.00145
2524.24055	0.00105
2522.31217	0.00079
2520.38380	0.00108
2518.45543	0.00079
2516.52705	0.00028
2514.59868	0.00016
2512.67031	0.00043
2510.74193	0.00103
2508.81356	0.00145
2506.88519	0.00137
2504.95681	0.00107
2503.02844	0.00086
2501.10007	0.00075
2499.17169	0.00087
2497.24332	0.00086
2495.31495	0.00077
2493.38657	0.00056
2491.45820	0.00048
2489.52983	0.00046
2487.60146	0.00048
2485.67308	0.00050
2483.74471	0.00043
2481.81634	0.00047
2479.88796	0.00047
2477.95959	0.00046
2476.03122	0.00044
2474.10284	0.00050
2472.17447	0.00058
2470.24610	0.00052
2468.31772	0.00039
2466.38935	0.00075
2464.46098	0.00105
2462.53260	0.00078
2460.60423	0.00033
2458.67586	0.00029
2456.74748	0.00046
2454.81911	0.00068
2452.89074	0.00095
2450.96236	0.00116
2449.03399	0.00119
2447.10562	0.00121
2445.17724	0.00123
2443.24887	0.00116
2441.32050	0.00115
2439.39212	0.00112
2437.46375	0.00089
2435.53538	0.00053
2433.60700	0.00046
2431.67863	0.00054
2429.75026	0.00068
2427.82189	0.00070
2425.89351	0.00078
2423.96514	0.00085
2422.03677	0.00090
2420.10839	0.00097
2418.18002	0.00107
2416.25165	0.00106
2414.32327	0.00096
2412.39490	0.00100
2410.46653	0.00116
2408.53815	0.00108
2406.60978	0.00092
2404.68141	0.00105
2402.75303	0.00138
2400.82466	0.00163
2398.89629	0.00160
2396.96791	0.00131
2395.03954	0.00121
2393.11117	0.00137
2391.18279	0.00149
2389.25442	0.00156
2387.32605	0.00155
2385.39767	0.00147
2383.46930	0.00143
2381.54093	0.00164
2379.61255	0.00179
2377.68418	0.00166
2375.75581	0.00151
2373.82744	0.00147
2371.89906	0.00149
2369.97069	0.00086
2368.04232	0.00078
2366.11394	0.00141
2364.18557	0.00373
2362.25720	0.00406
2360.32882	0.00376
2358.40045	0.00504
2356.47208	0.00450
2354.54370	0.00345
2352.61533	0.00280
2350.68696	0.00281
2348.75858	0.00257
2346.83021	0.00251
2344.90184	0.00280
2342.97346	0.00279
2341.04509	0.00223
2339.11672	0.00195
2337.18834	0.00228
2335.25997	0.00247
2333.33160	0.00252
2331.40322	0.00282
2329.47485	0.00307
2327.54648	0.00325
2325.61810	0.00427
2323.68973	0.00538
2321.76136	0.00530
2319.83298	0.00439
2317.90461	0.00365
2315.97624	0.00305
2314.04787	0.00266
2312.11949	0.00288
2310.19112	0.00318
2308.26275	0.00302
2306.33437	0.00278
2304.40600	0.00263
2302.47763	0.00260
2300.54925	0.00269
2298.62088	0.00293
2296.69251	0.00335
2294.76413	0.00358
2292.83576	0.00334
2290.90739	0.00316
2288.97901	0.00321
2287.05064	0.00324
2285.12227	0.00333
2283.19389	0.00345
2281.26552	0.00355
2279.33715	0.00373
2277.40877	0.00396
2275.48040	0.00422
2273.55203	0.00448
2271.62365	0.00467
2269.69528	0.00464
2267.76691	0.00436
2265.83853	0.00412
2263.91016	0.00415
2261.98179	0.00441
2260.05342	0.00468
2258.12504	0.00471
2256.19667	0.00455
2254.26830	0.00446
2252.33992	0.00460
2250.41155	0.00485
2248.48318	0.00490
2246.55480	0.00472
2244.62643	0.00461
2242.69806	0.00468
2240.76968	0.00481
2238.84131	0.00495
2236.91294	0.00501
2234.98456	0.00492
2233.05619	0.00487
2231.12782	0.00490
2229.19944	0.00496
2227.27107	0.00510
2225.34270	0.00524
2223.41432	0.00518
2221.48595	0.00501
2219.55758	0.00493
2217.62920	0.00491
2215.70083	0.00502
2213.77246	0.00532
2211.84408	0.00551
2209.91571	0.00536
2207.98734	0.00511
2206.05896	0.00498
2204.13059	0.00490
2202.20222	0.00492
2200.27385	0.00506
2198.34547	0.00523
2196.41710	0.00533
2194.48873	0.00533
2192.56035	0.00536
2190.63198	0.00543
2188.70361	0.00529
2186.77523	0.00493
2184.84686	0.00481
2182.91849	0.00509
2180.99011	0.00529
2179.06174	0.00511
2177.13337	0.00492
2175.20499	0.00510
2173.27662	0.00545
2171.34825	0.00558
2169.41987	0.00559
2167.49150	0.00573
2165.56313	0.00591
2163.63475	0.00584
2161.70638	0.00554
2159.77801	0.00527
2157.84963	0.00516
2155.92126	0.00515
2153.99289	0.00518
2152.06451	0.00515
2150.13614	0.00514
2148.20777	0.00524
2146.27940	0.00536
2144.35102	0.00540
2142.42265	0.00542
2140.49428	0.00544
2138.56590	0.00536
2136.63753	0.00522
2134.70916	0.00522
2132.78078	0.00528
2130.85241	0.00533
2128.92404	0.00541
2126.99566	0.00540
2125.06729	0.00522
2123.13892	0.00504
2121.21054	0.00508
2119.28217	0.00529
2117.35380	0.00540
2115.42542	0.00546
2113.49705	0.00556
2111.56868	0.00554
2109.64030	0.00545
2107.71193	0.00551
2105.78356	0.00566
2103.85518	0.00578
2101.92681	0.00586
2099.99844	0.00580
2098.07006	0.00566
2096.14169	0.00573
2094.21332	0.00589
2092.28494	0.00590
2090.35657	0.00588
2088.42820	0.00599
2086.49983	0.00615
2084.57145	0.00633
2082.64308	0.00649
2080.71471	0.00649
2078.78633	0.00626
2076.85796	0.00604
2074.92959	0.00613
2073.00121	0.00632
2071.07284	0.00634
2069.14447	0.00632
2067.21609	0.00625
2065.28772	0.00611
2063.35935	0.00616
2061.43097	0.00640
2059.50260	0.00659
2057.57423	0.00673
2055.64585	0.00681
2053.71748	0.00672
2051.78911	0.00653
2049.86073	0.00645
2047.93236	0.00650
2046.00399	0.00657
2044.07561	0.00658
2042.14724	0.00654
2040.21887	0.00654
2038.29049	0.00655
2036.36212	0.00656
2034.43375	0.00667
2032.50538	0.00696
2030.57700	0.00723
2028.64863	0.00733
2026.72026	0.00736
2024.79188	0.00742
2022.86351	0.00761
2020.93514	0.00780
2019.00676	0.00769
2017.07839	0.00734
2015.15002	0.00723
2013.22164	0.00740
2011.29327	0.00761
2009.36490	0.00784
2007.43652	0.00800
2005.50815	0.00811
2003.57978	0.00827
2001.65140	0.00820
1999.72303	0.00785
1997.79466	0.00774
1995.86628	0.00791
1993.93791	0.00805
1992.00954	0.00811
1990.08116	0.00818
1988.15279	0.00822
1986.22442	0.00817
1984.29604	0.00817
1982.36767	0.00835
1980.43930	0.00860
1978.51092	0.00873
1976.58255	0.00871
1974.65418	0.00865
1972.72581	0.00870
1970.79743	0.00879
1968.86906	0.00874
1966.94069	0.00859
1965.01231	0.00850
1963.08394	0.00851
1961.15557	0.00857
1959.22719	0.00857
1957.29882	0.00854
1955.37045	0.00850
1953.44207	0.00856
1951.51370	0.00875
1949.58533	0.00889
1947.65695	0.00882
1945.72858	0.00866
1943.80021	0.00869
1941.87183	0.00889
1939.94346	0.00899
1938.01509	0.00900
1936.08671	0.00902
1934.15834	0.00894
1932.22997	0.00886
1930.30159	0.00898
1928.37322	0.00905
1926.44485	0.00886
1924.51647	0.00873
1922.58810	0.00887
1920.65973	0.00905
1918.73135	0.00915
1916.80298	0.00914
1914.87461	0.00903
1912.94624	0.00903
1911.01786	0.00911
1909.08949	0.00909
1907.16112	0.00901
1905.23274	0.00904
1903.30437	0.00919
1901.37600	0.00925
1899.44762	0.00926
1897.51925	0.00937
1895.59088	0.00948
1893.66250	0.00942
1891.73413	0.00908
1889.80576	0.00881
1887.87738	0.00890
1885.94901	0.00905
1884.02064	0.00901
1882.09226	0.00891
1880.16389	0.00901
1878.23552	0.00915
1876.30714	0.00888
1874.37877	0.00846
1872.45040	0.00840
1870.52202	0.00864
1868.59365	0.00875
1866.66528	0.00857
1864.73690	0.00842
1862.80853	0.00848
1860.88016	0.00867
1858.95179	0.00879
1857.02341	0.00875
1855.09504	0.00863
1853.16667	0.00857
1851.23829	0.00853
1849.30992	0.00846
1847.38155	0.00845
1845.45317	0.00849
1843.52480	0.00840
1841.59643	0.00816
1839.66805	0.00811
1837.73968	0.00830
1835.81131	0.00838
1833.88293	0.00816
1831.95456	0.00789
1830.02619	0.00775
1828.09781	0.00761
1826.16944	0.00746
1824.24107	0.00752
1822.31269	0.00767
1820.38432	0.00760
1818.45595	0.00740
1816.52757	0.00716
1814.59920	0.00687
1812.67083	0.00659
1810.74245	0.00638
1808.81408	0.00631
1806.88571	0.00641
1804.95733	0.00634
1803.02896	0.00590
1801.10059	0.00536
1799.17222	0.00500
1797.24384	0.00488
1795.31547	0.00483
1793.38710	0.00452
1791.45872	0.00397
1789.53035	0.00367
1787.60198	0.00370
1785.67360	0.00393
1783.74523	0.00415
1781.81686	0.00403
1779.88848	0.00356
1777.96011	0.00302
1776.03174	0.00244
1774.10336	0.00197
1772.17499	0.00190
1770.24662	0.00200
1768.31824	0.00180
1766.38987	0.00151
1764.46150	0.00131
1762.53312	0.00119
1760.60475	0.00115
1758.67638	0.00111
1756.74800	0.00089
1754.81963	0.00070
1752.89126	0.00059
1750.96288	0.00079
1749.03451	0.00076
1747.10614	0.00062
1745.17777	0.00057
1743.24939	0.00057
1741.32102	0.00046
1739.39265	0.00041
1737.46427	0.00067
1735.53590	0.00124
1733.60753	0.00145
1731.67915	0.00091
1729.75078	0.00064
1727.82241	0.00079
1725.89403	0.00090
1723.96566	0.00108
1722.03729	0.00102
1720.10891	0.00105
1718.18054	0.00111
1716.25217	0.00083
1714.32379	0.00055
1712.39542	0.00053
1710.46705	0.00051
1708.53867	0.00062
1706.61030	0.00075
1704.68193	0.00121
1702.75355	0.00146
1700.82518	0.00106
1698.89681	0.00116
1696.96843	0.00076
1695.04006	0.00066
1693.11169	0.00119
1691.18331	0.00125
1689.25494	0.00135
1687.32657	0.00152
1685.39820	0.00167
1683.46982	0.00144
1681.54145	0.00136
1679.61308	0.00135
1677.68470	0.00085
1675.75633	0.00064
1673.82796	0.00085
1671.89958	0.00102
1669.97121	0.00081
1668.04284	0.00072
1666.11446	0.00102
1664.18609	0.00087
1662.25772	0.00085
1660.32934	0.00099
1658.40097	0.00088
1656.47260	0.00087
1654.54422	0.00106
1652.61585	0.00104
1650.68748	0.00051
1648.75910	0.00027
1646.83073	0.00050
1644.90236	0.00078
1642.97398	0.00094
1641.04561	0.00074
1639.11724	0.00041
1637.18886	0.00096
1635.26049	0.00145
1633.33212	0.00099
1631.40375	0.00076
1629.47537	0.00092
1627.54700	0.00106
1625.61863	0.00092
1623.69025	0.00078
1621.76188	0.00069
1619.83351	0.00055
1617.90513	0.00068
1615.97676	0.00064
1614.04839	0.00078
1612.12001	0.00063
1610.19164	0.00052
1608.26327	0.00050
1606.33489	0.00091
1604.40652	0.00088
1602.47815	0.00070
1600.54977	0.00091
1598.62140	0.00102
1596.69303	0.00070
1594.76465	0.00075
1592.83628	0.00078
1590.90791	0.00075
1588.97953	0.00086
1587.05116	0.00087
1585.12279	0.00078
1583.19441	0.00055
1581.26604	0.00050
1579.33767	0.00066
1577.40929	0.00086
1575.48092	0.00074
1573.55255	0.00046
1571.62418	0.00088
1569.69580	0.00114
1567.76743	0.00083
1565.83906	0.00065
1563.91068	0.00099
1561.98231	0.00130
1560.05394	0.00145
1558.12556	0.00130
1556.19719	0.00116
1554.26882	0.00086
1552.34044	0.00065
1550.41207	0.00064
1548.48370	0.00031
1546.55532	0.00091
1544.62695	0.00116
1542.69858	0.00080
1540.77020	0.00108
1538.84183	0.00108
1536.91346	0.00085
1534.98508	0.00078
1533.05671	0.00074
1531.12834	0.00060
1529.19996	0.00051
1527.27159	0.00061
1525.34322	0.00091
1523.41484	0.00085
1521.48647	0.00117
1519.55810	0.00154
1517.62972	0.00127
1515.70135	0.00098
1513.77298	0.00065
1511.84461	0.00094
1509.91623	0.00121
1507.98786	0.00149
1506.05949	0.00171
1504.13111	0.00123
1502.20274	0.00087
1500.27437	0.00084
1498.34599	0.00111
1496.41762	0.00115
1494.48925	0.00053
1492.56087	0.00045
1490.63250	0.00073
1488.70413	0.00084
1486.77575	0.00096
1484.84738	0.00075
1482.91901	0.00072
1480.99063	0.00074
1479.06226	0.00067
1477.13389	0.00067
1475.20551	0.00075
1473.27714	0.00100
1471.34877	0.00113
1469.42039	0.00075
1467.49202	0.00047
1465.56365	0.00041
1463.63527	0.00040
1461.70690	0.00060
1459.77853	0.00092
1457.85016	0.00087
1455.92178	0.00108
1453.99341	0.00111
1452.06504	0.00077
1450.13666	0.00040
1448.20829	0.00069
1446.27992	0.00100
1444.35154	0.00101
1442.42317	0.00059
1440.49480	0.00037
1438.56642	0.00041
1436.63805	0.00038
1434.70968	0.00074
1432.78130	0.00092
1430.85293	0.00074
1428.92456	0.00073
1426.99618	0.00061
1425.06781	0.00049
1423.13944	0.00100
1421.21106	0.00089
1419.28269	0.00057
1417.35432	0.00031
1415.42594	0.00055
1413.49757	0.00088
1411.56920	0.00070
1409.64082	0.00042
1407.71245	0.00059
1405.78408	0.00074
1403.85570	0.00065
1401.92733	0.00052
1399.99896	0.00082
1398.07059	0.00116
1396.14221	0.00135
1394.21384	0.00127
1392.28547	0.00119
1390.35709	0.00128
1388.42872	0.00115
1386.50035	0.00074
1384.57197	0.00048
1382.64360	0.00033
1380.71523	0.00066
1378.78685	0.00125
1376.85848	0.00135
1374.93011	0.00084
1373.00173	0.00025
1371.07336	0.00070
1369.14499	0.00115
1367.21661	0.00133
1365.28824	0.00131
1363.35987	0.00128
1361.43149	0.00103
1359.50312	0.00085
1357.57475	0.00048
1355.64637	0.00040
1353.71800	0.00049
1351.78963	0.00061
1349.86125	0.00065
1347.93288	0.00069
1346.00451	0.00076
1344.07614	0.00096
1342.14776	0.00115
1340.21939	0.00150
1338.29102	0.00145
1336.36264	0.00124
1334.43427	0.00140
1332.50590	0.00145
1330.57752	0.00153
1328.64915	0.00166
1326.72078	0.00171
1324.79240	0.00173
1322.86403	0.00132
1320.93566	0.00101
1319.00728	0.00138
1317.07891	0.00125
1315.15054	0.00087
1313.22216	0.00107
1311.29379	0.00121
1309.36542	0.00120
1307.43704	0.00094
1305.50867	0.00079
1303.58030	0.00090
1301.65192	0.00148
1299.72355	0.00151
1297.79518	0.00111
1295.86680	0.00118
1293.93843	0.00160
1292.01006	0.00160
1290.08168	0.00143
1288.15331	0.00133
1286.22494	0.00128
1284.29657	0.00108
1282.36819	0.00101
1280.43982	0.00127
1278.51145	0.00152
1276.58307	0.00174
1274.65470	0.00209
1272.72633	0.00165
1270.79795	0.00109
1268.86958	0.00179
1266.94121	0.00196
1265.01283	0.00182
1263.08446	0.00189
1261.15609	0.00196
1259.22771	0.00197
1257.29934	0.00191
1255.37097	0.00177
1253.44259	0.00157
1251.51422	0.00130
1249.58585	0.00141
1247.65747	0.00139
1245.72910	0.00104
1243.80073	0.00052
1241.87235	0.00102
1239.94398	0.00107
1238.01561	0.00048
1236.08723	0.00051
1234.15886	0.00095
1232.23049	0.00077
1230.30212	0.00111
1228.37374	0.00169
1226.44537	0.00234
1224.51700	0.00259
1222.58862	0.00201
1220.66025	0.00147
1218.73188	0.00127
1216.80350	0.00153
1214.87513	0.00084
1212.94676	0.00138
1211.01838	0.00191
1209.09001	0.00188
1207.16164	0.00192
1205.23326	0.00221
1203.30489	0.00234
1201.37652	0.00202
1199.44814	0.00178
1197.51977	0.00184
1195.59140	0.00158
1193.66302	0.00133
1191.73465	0.00113
1189.80628	0.00088
1187.87790	0.00167
1185.94953	0.00199
1184.02116	0.00127
1182.09278	0.00068
1180.16441	0.00158
1178.23604	0.00168
1176.30766	0.00069
1174.37929	0.00133
1172.45092	0.00218
1170.52255	0.00209
1168.59417	0.00199
1166.66580	0.00171
1164.73743	0.00105
1162.80905	0.00114
1160.88068	0.00145
1158.95231	0.00137
1157.02393	0.00087
1155.09556	0.00082
1153.16719	0.00093
1151.23881	0.00095
1149.31044	0.00081
1147.38207	0.00133
1145.45369	0.00124
1143.52532	0.00071
1141.59695	0.00080
1139.66857	0.00056
1137.74020	0.00126
1135.81183	0.00139
1133.88345	0.00109
1131.95508	0.00131
1130.02671	0.00160
1128.09833	0.00147
1126.16996	0.00186
1124.24159	0.00208
1122.31321	0.00128
1120.38484	0.00100
1118.45647	0.00101
1116.52809	0.00077
1114.59972	0.00067
1112.67135	0.00104
1110.74298	0.00107
1108.81460	0.00118
1106.88623	0.00175
1104.95786	0.00239
1103.02948	0.00251
1101.10111	0.00194
1099.17274	0.00167
1097.24436	0.00194
1095.31599	0.00196
1093.38762	0.00174
1091.45924	0.00163
1089.53087	0.00133
1087.60250	0.00115
1085.67412	0.00117
1083.74575	0.00158
1081.81738	0.00191
1079.88900	0.00242
1077.96063	0.00242
1076.03226	0.00228
1074.10388	0.00233
1072.17551	0.00215
1070.24714	0.00213
1068.31876	0.00204
1066.39039	0.00205
1064.46202	0.00157
1062.53364	0.00144
1060.60527	0.00129
1058.67690	0.00113
1056.74853	0.00157
1054.82015	0.00158
1052.89178	0.00112
1050.96341	0.00060
1049.03503	0.00026
1047.10666	0.00102
1045.17829	0.00241
1043.24991	0.00326
1041.32154	0.00286
1039.39317	0.00256
1037.46479	0.00258
1035.53642	0.00198
1033.60805	0.00213
1031.67967	0.00298
1029.75130	0.00278
1027.82293	0.00235
1025.89455	0.00135
1023.96618	0.00136
1022.03781	0.00137
1020.10943	0.00123
1018.18106	0.00152
1016.25269	0.00168
1014.32431	0.00148
1012.39594	0.00110
1010.46757	0.00074
1008.53919	0.00127
1006.61082	0.00228
1004.68245	0.00246
1002.75407	0.00203
1000.82570	0.00191
998.89733	0.00245
996.96896	0.00247
995.04058	0.00151
993.11221	0.00081
991.18384	0.00036
989.25546	0.00029
987.32709	0.00052
985.39872	0.00087
983.47034	0.00077
981.54197	0.00104
979.61360	0.00118
977.68522	0.00091
975.75685	0.00105
973.82848	0.00092
971.90010	0.00122
969.97173	0.00125
968.04336	0.00107
966.11498	0.00110
964.18661	0.00137
962.25824	0.00173
960.32986	0.00174
958.40149	0.00155
956.47312	0.00157
954.54474	0.00161
952.61637	0.00199
950.68800	0.00207
948.75962	0.00144
946.83125	0.00138
944.90288	0.00207
942.97451	0.00205
941.04613	0.00177
939.11776	0.00203
937.18939	0.00199
935.26101	0.00129
933.33264	0.00097
931.40427	0.00099
929.47589	0.00189
927.54752	0.00280
925.61915	0.00318
923.69077	0.00229
921.76240	0.00099
919.83403	0.00106
917.90565	0.00168
915.97728	0.00282
914.04891	0.00369
912.12053	0.00341
910.19216	0.00166
908.26379	0.00104
906.33541	0.00120
904.40704	0.00151
902.47867	0.00283
900.55029	0.00316
898.62192	0.00246
896.69355	0.00180
894.76517	0.00188
892.83680	0.00236
890.90843	0.00275
888.98005	0.00255
887.05168	0.00161
885.12331	0.00112
883.19494	0.00133
881.26656	0.00188
879.33819	0.00224
877.40982	0.00237
875.48144	0.00231
873.55307	0.00168
871.62470	0.00154
869.69632	0.00145
867.76795	0.00160
865.83958	0.00217
863.91120	0.00298
861.98283	0.00259
860.05446	0.00218
858.12608	0.00172
856.19771	0.00104
854.26934	0.00106
852.34096	0.00120
850.41259	0.00147
848.48422	0.00148
846.55584	0.00130
844.62747	0.00191
842.69910	0.00232
840.77072	0.00272
838.84235	0.00146
836.91398	0.00154
834.98560	0.00305
833.05723	0.00379
831.12886	0.00356
829.20049	0.00264
827.27211	0.00277
825.34374	0.00394
823.41537	0.00377
821.48699	0.00209
819.55862	0.00217
817.63025	0.00226
815.70187	0.00198
813.77350	0.00152
811.84513	0.00147
809.91675	0.00098
807.98838	0.00273
806.06001	0.00324
804.13163	0.00316
802.20326	0.00317
800.27489	0.00279
798.34651	0.00240
796.41814	0.00126
794.48977	0.00058
792.56139	0.00080
790.63302	0.00111
788.70465	0.00093
786.77627	0.00052
784.84790	0.00088
782.91953	0.00124
780.99115	0.00137
779.06278	0.00179
777.13441	0.00236
775.20603	0.00289
773.27766	0.00232
771.34929	0.00086
769.42092	0.00131
767.49254	0.00247
765.56417	0.00320
763.63580	0.00383
761.70742	0.00472
759.77905	0.00439
757.85068	0.00357
755.92230	0.00243
753.99393	0.00176
752.06556	0.00216
750.13718	0.00234
748.20881	0.00236
746.28044	0.00203
744.35206	0.00252
742.42369	0.00260
740.49532	0.00349
738.56694	0.00386
736.63857	0.00299
734.71020	0.00209
732.78182	0.00263
730.85345	0.00275
728.92508	0.00278
726.99670	0.00253
725.06833	0.00253
723.13996	0.00188
721.21158	0.00139
719.28321	0.00081
717.35484	0.00123
715.42647	0.00219
713.49809	0.00279
711.56972	0.00284
709.64135	0.00188
707.71297	0.00126
705.78460	0.00160
703.85623	0.00271
701.92785	0.00339
699.99948	0.00284
698.07111	0.00433
696.14273	0.00505
694.21436	0.00527
692.28599	0.00524
690.35761	0.00537
688.42924	0.00474
686.50087	0.00254
684.57249	0.00313
682.64412	0.00343
680.71575	0.00254
678.78737	0.00266
676.85900	0.00467
674.93063	0.00544
673.00225	0.00520
671.07388	0.00862
669.14551	0.01325
667.21713	0.01203
665.28876	0.00757
663.36039	0.00556
661.43201	0.00545
659.50364	0.00686
657.57527	0.00810
655.64690	0.00805
653.71852	0.00896
651.79015	0.00931
649.86178	0.00788
647.93340	0.00583
646.00503	0.00699
644.07666	0.00702
642.14828	0.00528
640.21991	0.00544
638.29154	0.00518
636.36316	0.00663
634.43479	0.00441
632.50642	0.00290
630.57804	0.00373
628.64967	0.00607
626.72130	0.00879
624.79292	0.01057
622.86455	0.01072
620.93618	0.01134
619.00780	0.01166
617.07943	0.01164
615.15106	0.01072
613.22268	0.00616
611.29431	0.00320
609.36594	0.00395
607.43756	0.00730
605.50919	0.00987
603.58082	0.00884
601.65244	0.01286
599.72407	0.01483
