3997.51769	0.37025
3995.58931	0.37049
3993.66094	0.37070
3991.73257	0.37085
3989.80419	0.37106
3987.87582	0.37150
3985.94745	0.37185
3984.01907	0.37181
3982.09070	0.37165
3980.16233	0.37183
3978.23396	0.37212
3976.30558	0.37192
3974.37721	0.37146
3972.44884	0.37162
3970.52046	0.37244
3968.59209	0.37369
3966.66372	0.37522
3964.73534	0.37618
3962.80697	0.37596
3960.87860	0.37570
3958.95022	0.37639
3957.02185	0.37736
3955.09348	0.37815
3953.16510	0.37846
3951.23673	0.37759
3949.30836	0.37635
3947.37998	0.37687
3945.45161	0.37814
3943.52324	0.37796
3941.59486	0.37850
3939.66649	0.38123
3937.73812	0.38344
3935.80974	0.38332
3933.88137	0.38078
3931.95300	0.37797
3930.02462	0.37862
3928.09625	0.38151
3926.16788	0.38202
3924.23950	0.38095
3922.31113	0.38181
3920.38276	0.38283
3918.45439	0.38228
3916.52601	0.38330
3914.59764	0.38760
3912.66927	0.39197
3910.74089	0.39397
3908.81252	0.39326
3906.88415	0.38869
3904.95577	0.38075
3903.02740	0.37473
3901.09903	0.37469
3899.17065	0.37996
3897.24228	0.38829
3895.31391	0.39420
3893.38553	0.39371
3891.45716	0.39102
3889.52879	0.39262
3887.60041	0.39405
3885.67204	0.39143
3883.74367	0.38963
3881.81529	0.38927
3879.88692	0.39058
3877.95855	0.39625
3876.03017	0.39884
3874.10180	0.39515
3872.17343	0.39071
3870.24505	0.38844
3868.31668	0.39054
3866.38831	0.39360
3864.45994	0.39305
3862.53156	0.39474
3860.60319	0.40088
3858.67482	0.40418
3856.74644	0.40102
3854.81807	0.39087
3852.88970	0.38135
3850.96132	0.38899
3849.03295	0.40282
3847.10458	0.41023
3845.17620	0.40922
3843.24783	0.40291
3841.31946	0.39579
3839.39108	0.39044
3837.46271	0.38983
3835.53434	0.39452
3833.60596	0.39977
3831.67759	0.40390
3829.74922	0.40731
3827.82084	0.40853
3825.89247	0.40794
3823.96410	0.40534
3822.03572	0.39766
3820.10735	0.39251
3818.17898	0.39648
3816.25060	0.40116
3814.32223	0.40747
3812.39386	0.41569
3810.46548	0.41880
3808.53711	0.41413
3806.60874	0.40699
3804.68037	0.40364
3802.75199	0.39960
3800.82362	0.39630
3798.89525	0.40008
3796.96687	0.40550
3795.03850	0.41142
3793.11013	0.41813
3791.18175	0.42170
3789.25338	0.42169
3787.32501	0.41950
3785.39663	0.41650
3783.46826	0.41529
3781.53989	0.41415
3779.61151	0.41140
3777.68314	0.41242
3775.75477	0.41714
3773.82639	0.41877
3771.89802	0.41467
3769.96965	0.40843
3768.04127	0.40597
3766.11290	0.40687
3764.18453	0.40874
3762.25615	0.40906
3760.32778	0.40456
3758.39941	0.39967
3756.47103	0.39953
3754.54266	0.39801
3752.61429	0.38920
3750.68591	0.37872
3748.75754	0.37837
3746.82917	0.38174
3744.90080	0.38114
3742.97242	0.38280
3741.04405	0.38818
3739.11568	0.38864
3737.18730	0.38034
3735.25893	0.36999
3733.33056	0.37083
3731.40218	0.38153
3729.47381	0.39005
3727.54544	0.39062
3725.61706	0.38635
3723.68869	0.38343
3721.76032	0.38362
3719.83194	0.38576
3717.90357	0.38794
3715.97520	0.38718
3714.04682	0.38045
3712.11845	0.36853
3710.19008	0.36248
3708.26170	0.36813
3706.33333	0.37502
3704.40496	0.37526
3702.47658	0.36968
3700.54821	0.36552
3698.61984	0.36518
3696.69146	0.36350
3694.76309	0.35815
3692.83472	0.34860
3690.90635	0.33505
3688.97797	0.32431
3687.04960	0.32322
3685.12123	0.32503
3683.19285	0.32240
3681.26448	0.31406
3679.33611	0.30184
3677.40773	0.28639
3675.47936	0.26926
3673.55099	0.26013
3671.62261	0.25531
3669.69424	0.24649
3667.76587	0.24004
3665.83749	0.23694
3663.90912	0.23065
3661.98075	0.22090
3660.05237	0.20991
3658.12400	0.19780
3656.19563	0.18458
3654.26725	0.17305
3652.33888	0.16190
3650.41051	0.14661
3648.48213	0.13158
3646.55376	0.12486
3644.62539	0.12195
3642.69701	0.11731
3640.76864	0.11032
3638.84027	0.10257
3636.91189	0.09498
3634.98352	0.08751
3633.05515	0.08031
3631.12678	0.07337
3629.19840	0.06566
3627.27003	0.05923
3625.34166	0.05581
3623.41328	0.05256
3621.48491	0.04807
3619.55654	0.04263
3617.62816	0.03797
3615.69979	0.03475
3613.77142	0.03190
3611.84304	0.02927
3609.91467	0.02682
3607.98630	0.02421
3606.05792	0.02185
3604.12955	0.01995
3602.20118	0.01813
3600.27280	0.01648
3598.34443	0.01507
3596.41606	0.01356
3594.48768	0.01196
3592.55931	0.01068
3590.63094	0.00981
3588.70256	0.00887
3586.77419	0.00769
3584.84582	0.00676
3582.91744	0.00614
3580.98907	0.00558
3579.06070	0.00501
3577.13233	0.00463
3575.20395	0.00428
3573.27558	0.00368
3571.34721	0.00304
3569.41883	0.00265
3567.49046	0.00243
3565.56209	0.00213
3563.63371	0.00180
3561.70534	0.00144
3559.77697	0.00109
3557.84859	0.00090
3555.92022	0.00085
3553.99185	0.00084
3552.06347	0.00071
3550.13510	0.00059
3548.20673	0.00056
3546.27835	0.00042
3544.34998	0.00021
3542.42161	0.00022
3540.49323	0.00041
3538.56486	0.00046
3536.63649	0.00052
3534.70811	0.00047
3532.77974	0.00042
3530.85137	0.00029
3528.92299	0.00029
3526.99462	0.00033
3525.06625	0.00030
3523.13787	0.00031
3521.20950	0.00036
3519.28113	0.00040
3517.35276	0.00035
3515.42438	0.00025
3513.49601	0.00010
3511.56764	0.00020
3509.63926	0.00037
3507.71089	0.00066
3505.78252	0.00075
3503.85414	0.00058
3501.92577	0.00051
3499.99740	0.00057
3498.06902	0.00070
3496.14065	0.00086
3494.21228	0.00069
3492.28390	0.00049
3490.35553	0.00043
3488.42716	0.00049
3486.49878	0.00040
3484.57041	0.00025
3482.64204	0.00029
3480.71366	0.00040
3478.78529	0.00043
3476.85692	0.00032
3474.92854	0.00033
3473.00017	0.00042
3471.07180	0.00047
3469.14342	0.00063
3467.21505	0.00050
3465.28668	0.00026
3463.35831	0.00040
3461.42993	0.00065
3459.50156	0.00069
3457.57319	0.00062
3455.64481	0.00053
3453.71644	0.00047
3451.78807	0.00054
3449.85969	0.00046
3447.93132	0.00027
3446.00295	0.00027
3444.07457	0.00048
3442.14620	0.00053
3440.21783	0.00043
3438.28945	0.00062
3436.36108	0.00080
3434.43271	0.00056
3432.50433	0.00018
3430.57596	0.00018
3428.64759	0.00022
3426.71921	0.00013
3424.79084	0.00010
3422.86247	0.00013
3420.93409	0.00016
3419.00572	0.00032
3417.07735	0.00051
3415.14897	0.00046
3413.22060	0.00029
3411.29223	0.00022
3409.36385	0.00023
3407.43548	0.00027
3405.50711	0.00034
3403.57874	0.00059
3401.65036	0.00070
3399.72199	0.00059
3397.79362	0.00053
3395.86524	0.00055
3393.93687	0.00035
3392.00850	0.00025
3390.08012	0.00035
3388.15175	0.00034
3386.22338	0.00040
3384.29500	0.00053
3382.36663	0.00060
3380.43826	0.00055
3378.50988	0.00068
3376.58151	0.00086
3374.65314	0.00072
3372.72476	0.00048
3370.79639	0.00030
3368.86802	0.00024
3366.93964	0.00029
3365.01127	0.00041
3363.08290	0.00049
3361.15452	0.00053
3359.22615	0.00038
3357.29778	0.00030
3355.36940	0.00049
3353.44103	0.00048
3351.51266	0.00042
3349.58428	0.00044
3347.65591	0.00036
3345.72754	0.00021
3343.79917	0.00021
3341.87079	0.00024
3339.94242	0.00036
3338.01405	0.00043
3336.08567	0.00047
3334.15730	0.00039
3332.22893	0.00021
3330.30055	0.00025
3328.37218	0.00049
3326.44381	0.00050
3324.51543	0.00040
3322.58706	0.00027
3320.65869	0.00025
3318.73031	0.00023
3316.80194	0.00057
3314.87357	0.00074
3312.94519	0.00052
3311.01682	0.00036
3309.08845	0.00035
3307.16007	0.00032
3305.23170	0.00034
3303.30333	0.00033
3301.37495	0.00039
3299.44658	0.00038
3297.51821	0.00031
3295.58983	0.00030
3293.66146	0.00047
3291.73309	0.00050
3289.80472	0.00044
3287.87634	0.00044
3285.94797	0.00037
3284.01960	0.00021
3282.09122	0.00026
3280.16285	0.00044
3278.23448	0.00037
3276.30610	0.00024
3274.37773	0.00025
3272.44936	0.00025
3270.52098	0.00025
3268.59261	0.00043
3266.66424	0.00048
3264.73586	0.00030
3262.80749	0.00020
3260.87912	0.00035
3258.95074	0.00050
3257.02237	0.00056
3255.09400	0.00045
3253.16562	0.00029
3251.23725	0.00028
3249.30888	0.00039
3247.38050	0.00049
3245.45213	0.00049
3243.52376	0.00044
3241.59538	0.00036
3239.66701	0.00027
3237.73864	0.00026
3235.81026	0.00040
3233.88189	0.00044
3231.95352	0.00045
3230.02515	0.00050
3228.09677	0.00054
3226.16840	0.00046
3224.24003	0.00037
3222.31165	0.00046
3220.38328	0.00048
3218.45491	0.00048
3216.52653	0.00045
3214.59816	0.00044
3212.66979	0.00063
3210.74141	0.00047
3208.81304	0.00019
3206.88467	0.00010
3204.95629	0.00011
3203.02792	0.00012
3201.09955	0.00024
3199.17117	0.00020
3197.24280	0.00014
3195.31443	0.00027
3193.38605	0.00027
3191.45768	0.00027
3189.52931	0.00023
3187.60093	0.00013
3185.67256	0.00024
3183.74419	0.00025
3181.81581	0.00030
3179.88744	0.00030
3177.95907	0.00029
3176.03070	0.00021
3174.10232	0.00017
3172.17395	0.00024
3170.24558	0.00042
3168.31720	0.00046
3166.38883	0.00034
3164.46046	0.00050
3162.53208	0.00049
3160.60371	0.00036
3158.67534	0.00025
3156.74696	0.00020
3154.81859	0.00018
3152.89022	0.00034
3150.96184	0.00041
3149.03347	0.00037
3147.10510	0.00025
3145.17672	0.00022
3143.24835	0.00025
3141.31998	0.00035
3139.39160	0.00040
3137.46323	0.00028
3135.53486	0.00016
3133.60648	0.00019
3131.67811	0.00026
3129.74974	0.00029
3127.82136	0.00037
3125.89299	0.00028
3123.96462	0.00015
3122.03624	0.00015
3120.10787	0.00019
3118.17950	0.00027
3116.25113	0.00032
3114.32275	0.00036
3112.39438	0.00028
3110.46601	0.00016
3108.53763	0.00016
3106.60926	0.00016
3104.68089	0.00014
3102.75251	0.00032
3100.82414	0.00039
3098.89577	0.00040
3096.96739	0.00043
3095.03902	0.00038
3093.11065	0.00049
3091.18227	0.00051
3089.25390	0.00055
3087.32553	0.00066
3085.39715	0.00065
3083.46878	0.00039
3081.54041	0.00020
3079.61203	0.00020
3077.68366	0.00028
3075.75529	0.00034
3073.82691	0.00036
3071.89854	0.00033
3069.97017	0.00037
3068.04179	0.00032
3066.11342	0.00027
3064.18505	0.00050
3062.25668	0.00051
3060.32830	0.00042
3058.39993	0.00042
3056.47156	0.00023
3054.54318	0.00030
3052.61481	0.00034
3050.68644	0.00032
3048.75806	0.00037
3046.82969	0.00023
3044.90132	0.00029
3042.97294	0.00050
3041.04457	0.00059
3039.11620	0.00058
3037.18782	0.00058
3035.25945	0.00052
3033.33108	0.00034
3031.40270	0.00027
3029.47433	0.00020
3027.54596	0.00024
3025.61758	0.00032
3023.68921	0.00038
3021.76084	0.00028
3019.83246	0.00025
3017.90409	0.00032
3015.97572	0.00053
3014.04734	0.00073
3012.11897	0.00078
3010.19060	0.00071
3008.26222	0.00057
3006.33385	0.00048
3004.40548	0.00050
3002.47711	0.00054
3000.54873	0.00050
2998.62036	0.00034
2996.69199	0.00031
2994.76361	0.00042
2992.83524	0.00038
2990.90687	0.00023
2988.97849	0.00035
2987.05012	0.00054
2985.12175	0.00055
2983.19337	0.00050
2981.26500	0.00045
2979.33663	0.00037
2977.40825	0.00035
2975.47988	0.00047
2973.55151	0.00050
2971.62313	0.00032
2969.69476	0.00013
2967.76639	0.00010
2965.83801	0.00024
2963.90964	0.00026
2961.98127	0.00016
2960.05289	0.00026
2958.12452	0.00059
2956.19615	0.00069
2954.26777	0.00058
2952.33940	0.00058
2950.41103	0.00087
2948.48266	0.00104
2946.55428	0.00089
2944.62591	0.00041
2942.69754	0.00053
2940.76916	0.00041
2938.84079	0.00026
2936.91242	0.00030
2934.98404	0.00052
2933.05567	0.00077
2931.12730	0.00069
2929.19892	0.00045
2927.27055	0.00038
2925.34218	0.00041
2923.41380	0.00035
2921.48543	0.00025
2919.55706	0.00039
2917.62868	0.00058
2915.70031	0.00056
2913.77194	0.00035
2911.84356	0.00026
2909.91519	0.00036
2907.98682	0.00034
2906.05844	0.00038
2904.13007	0.00037
2902.20170	0.00031
2900.27332	0.00034
2898.34495	0.00046
2896.41658	0.00045
2894.48820	0.00036
2892.55983	0.00037
2890.63146	0.00037
2888.70309	0.00031
2886.77471	0.00044
2884.84634	0.00044
2882.91797	0.00026
2880.98959	0.00022
2879.06122	0.00015
2877.13285	0.00012
2875.20447	0.00012
2873.27610	0.00016
2871.34773	0.00028
2869.41935	0.00025
2867.49098	0.00021
2865.56261	0.00018
2863.63423	0.00033
2861.70586	0.00047
2859.77749	0.00047
2857.84911	0.00050
2855.92074	0.00055
2853.99237	0.00044
2852.06399	0.00029
2850.13562	0.00023
2848.20725	0.00017
2846.27887	0.00030
2844.35050	0.00053
2842.42213	0.00047
2840.49375	0.00022
2838.56538	0.00012
2836.63701	0.00010
2834.70863	0.00019
2832.78026	0.00027
2830.85189	0.00038
2828.92352	0.00046
2826.99514	0.00044
2825.06677	0.00035
2823.13840	0.00016
2821.21002	0.00028
2819.28165	0.00023
2817.35328	0.00017
2815.42490	0.00032
2813.49653	0.00030
2811.56816	0.00022
2809.63978	0.00015
2807.71141	0.00015
2805.78304	0.00035
2803.85466	0.00051
2801.92629	0.00051
2799.99792	0.00035
2798.06954	0.00018
2796.14117	0.00024
2794.21280	0.00025
2792.28442	0.00027
2790.35605	0.00023
2788.42768	0.00014
2786.49930	0.00017
2784.57093	0.00022
2782.64256	0.00023
2780.71418	0.00022
2778.78581	0.00019
2776.85744	0.00020
2774.92907	0.00015
2773.00069	0.00023
2771.07232	0.00025
2769.14395	0.00019
2767.21557	0.00027
2765.28720	0.00027
2763.35883	0.00026
2761.43045	0.00018
2759.50208	0.00017
2757.57371	0.00016
2755.64533	0.00010
2753.71696	0.00014
2751.78859	0.00017
2749.86021	0.00019
2747.93184	0.00022
2746.00347	0.00015
2744.07509	0.00027
2742.14672	0.00036
2740.21835	0.00017
2738.28997	0.00017
2736.36160	0.00034
2734.43323	0.00049
2732.50485	0.00051
2730.57648	0.00046
2728.64811	0.00042
2726.71973	0.00032
2724.79136	0.00024
2722.86299	0.00024
2720.93461	0.00023
2719.00624	0.00028
2717.07787	0.00037
2715.14950	0.00037
2713.22112	0.00040
2711.29275	0.00053
2709.36438	0.00061
2707.43600	0.00053
2705.50763	0.00037
2703.57926	0.00030
2701.65088	0.00030
2699.72251	0.00027
2697.79414	0.00024
2695.86576	0.00025
2693.93739	0.00029
2692.00902	0.00025
2690.08064	0.00019
2688.15227	0.00027
2686.22390	0.00034
2684.29552	0.00036
2682.36715	0.00036
2680.43878	0.00042
2678.51040	0.00056
2676.58203	0.00069
2674.65366	0.00073
2672.72528	0.00060
2670.79691	0.00049
2668.86854	0.00055
2666.94016	0.00074
2665.01179	0.00077
2663.08342	0.00069
2661.15505	0.00066
2659.22667	0.00058
2657.29830	0.00055
2655.36993	0.00069
2653.44155	0.00082
2651.51318	0.00080
2649.58481	0.00081
2647.65643	0.00091
2645.72806	0.00097
2643.79969	0.00093
2641.87131	0.00096
2639.94294	0.00107
2638.01457	0.00107
2636.08619	0.00100
2634.15782	0.00107
2632.22945	0.00123
2630.30107	0.00127
2628.37270	0.00121
2626.44433	0.00122
2624.51595	0.00125
2622.58758	0.00126
2620.65921	0.00133
2618.73083	0.00145
2616.80246	0.00157
2614.87409	0.00169
2612.94571	0.00181
2611.01734	0.00201
2609.08897	0.00214
2607.16059	0.00209
2605.23222	0.00204
2603.30385	0.00219
2601.37548	0.00242
2599.44710	0.00257
2597.51873	0.00267
2595.59036	0.00284
2593.66198	0.00299
2591.73361	0.00305
2589.80524	0.00318
2587.87686	0.00344
2585.94849	0.00363
2584.02012	0.00367
2582.09174	0.00372
2580.16337	0.00391
2578.23500	0.00419
2576.30662	0.00434
2574.37825	0.00431
2572.44988	0.00434
2570.52150	0.00455
2568.59313	0.00473
2566.66476	0.00482
2564.73638	0.00504
2562.80801	0.00533
2560.87964	0.00555
2558.95126	0.00570
2557.02289	0.00581
2555.09452	0.00591
2553.16614	0.00604
2551.23777	0.00628
2549.30940	0.00649
2547.38103	0.00662
2545.45265	0.00681
2543.52428	0.00709
2541.59591	0.00735
2539.66753	0.00759
2537.73916	0.00775
2535.81079	0.00781
2533.88241	0.00790
2531.95404	0.00805
2530.02567	0.00827
2528.09729	0.00861
2526.16892	0.00900
2524.24055	0.00928
2522.31217	0.00946
2520.38380	0.00965
2518.45543	0.00987
2516.52705	0.01008
2514.59868	0.01031
2512.67031	0.01058
2510.74193	0.01084
2508.81356	0.01106
2506.88519	0.01135
2504.95681	0.01169
2503.02844	0.01198
2501.10007	0.01217
2499.17169	0.01234
2497.24332	0.01257
2495.31495	0.01286
2493.38657	0.01317
2491.45820	0.01346
2489.52983	0.01374
2487.60146	0.01405
2485.67308	0.01428
2483.74471	0.01442
2481.81634	0.01472
2479.88796	0.01515
2477.95959	0.01555
2476.03122	0.01596
2474.10284	0.01646
2472.17447	0.01693
2470.24610	0.01724
2468.31772	0.01748
2466.38935	0.01782
2464.46098	0.01832
2462.53260	0.01899
2460.60423	0.01964
2458.67586	0.02008
2456.74748	0.02041
2454.81911	0.02084
2452.89074	0.02143
2450.96236	0.02203
2449.03399	0.02258
2447.10562	0.02312
2445.17724	0.02365
2443.24887	0.02420
2441.32050	0.02477
2439.39212	0.02528
2437.46375	0.02579
2435.53538	0.02639
2433.60700	0.02698
2431.67863	0.02753
2429.75026	0.02807
2427.82189	0.02864
2425.89351	0.02923
2423.96514	0.02976
2422.03677	0.03025
2420.10839	0.03081
2418.18002	0.03142
2416.25165	0.03204
2414.32327	0.03267
2412.39490	0.03331
2410.46653	0.03391
2408.53815	0.03451
2406.60978	0.03520
2404.68141	0.03598
2402.75303	0.03683
2400.82466	0.03762
2398.89629	0.03829
2396.96791	0.03896
2395.03954	0.03977
2393.11117	0.04059
2391.18279	0.04137
2389.25442	0.04223
2387.32605	0.04307
2385.39767	0.04372
2383.46930	0.04427
2381.54093	0.04485
2379.61255	0.04540
2377.68418	0.04595
2375.75581	0.04659
2373.82744	0.04721
2371.89906	0.04764
2369.97069	0.04803
2368.04232	0.04848
2366.11394	0.04909
2364.18557	0.04983
2362.25720	0.05057
2360.32882	0.05121
2358.40045	0.05167
2356.47208	0.05222
2354.54370	0.05327
2352.61533	0.05469
2350.68696	0.05603
2348.75858	0.05701
2346.83021	0.05761
2344.90184	0.05792
2342.97346	0.05825
2341.04509	0.05874
2339.11672	0.05912
2337.18834	0.05941
2335.25997	0.05984
2333.33160	0.06035
2331.40322	0.06097
2329.47485	0.06178
2327.54648	0.06253
2325.61810	0.06314
2323.68973	0.06387
2321.76136	0.06492
2319.83298	0.06621
2317.90461	0.06747
2315.97624	0.06858
2314.04787	0.06963
2312.11949	0.07075
2310.19112	0.07201
2308.26275	0.07324
2306.33437	0.07439
2304.40600	0.07561
2302.47763	0.07688
2300.54925	0.07805
2298.62088	0.07909
2296.69251	0.08017
2294.76413	0.08143
2292.83576	0.08274
2290.90739	0.08387
2288.97901	0.08487
2287.05064	0.08594
2285.12227	0.08704
2283.19389	0.08806
2281.26552	0.08893
2279.33715	0.08965
2277.40877	0.09037
2275.48040	0.09119
2273.55203	0.09210
2271.62365	0.09298
2269.69528	0.09381
2267.76691	0.09465
2265.83853	0.09545
2263.91016	0.09618
2261.98179	0.09691
2260.05342	0.09766
2258.12504	0.09850
2256.19667	0.09945
2254.26830	0.10041
2252.33992	0.10132
2250.41155	0.10219
2248.48318	0.10303
2246.55480	0.10391
2244.62643	0.10488
2242.69806	0.10588
2240.76968	0.10681
2238.84131	0.10760
2236.91294	0.10829
2234.98456	0.10890
2233.05619	0.10948
2231.12782	0.11009
2229.19944	0.11074
2227.27107	0.11140
2225.34270	0.11203
2223.41432	0.11272
2221.48595	0.11340
2219.55758	0.11395
2217.62920	0.11445
2215.70083	0.11504
2213.77246	0.11567
2211.84408	0.11631
2209.91571	0.11699
2207.98734	0.11769
2206.05896	0.11838
2204.13059	0.11909
2202.20222	0.11975
2200.27385	0.12027
2198.34547	0.12066
2196.41710	0.12106
2194.48873	0.12152
2192.56035	0.12200
2190.63198	0.12242
2188.70361	0.12282
2186.77523	0.12329
2184.84686	0.12380
2182.91849	0.12426
2180.99011	0.12466
2179.06174	0.12497
2177.13337	0.12517
2175.20499	0.12532
2173.27662	0.12552
2171.34825	0.12578
2169.41987	0.12600
2167.49150	0.12615
2165.56313	0.12628
2163.63475	0.12637
2161.70638	0.12643
2159.77801	0.12656
2157.84963	0.12676
2155.92126	0.12700
2153.99289	0.12726
2152.06451	0.12753
2150.13614	0.12785
2148.20777	0.12823
2146.27940	0.12858
2144.35102	0.12888
2142.42265	0.12913
2140.49428	0.12937
2138.56590	0.12973
2136.63753	0.13014
2134.70916	0.13052
2132.78078	0.13091
2130.85241	0.13136
2128.92404	0.13189
2126.99566	0.13257
2125.06729	0.13327
2123.13892	0.13389
2121.21054	0.13450
2119.28217	0.13516
2117.35380	0.13582
2115.42542	0.13645
2113.49705	0.13702
2111.56868	0.13758
2109.64030	0.13820
2107.71193	0.13880
2105.78356	0.13934
2103.85518	0.13980
2101.92681	0.14017
2099.99844	0.14045
2098.07006	0.14075
2096.14169	0.14110
2094.21332	0.14138
2092.28494	0.14153
2090.35657	0.14161
2088.42820	0.14174
2086.49983	0.14192
2084.57145	0.14205
2082.64308	0.14210
2080.71471	0.14200
2078.78633	0.14180
2076.85796	0.14168
2074.92959	0.14163
2073.00121	0.14153
2071.07284	0.14136
2069.14447	0.14111
2067.21609	0.14075
2065.28772	0.14038
2063.35935	0.14028
2061.43097	0.14047
2059.50260	0.14072
2057.57423	0.14096
2055.64585	0.14122
2053.71748	0.14147
2051.78911	0.14176
2049.86073	0.14206
2047.93236	0.14243
2046.00399	0.14285
2044.07561	0.14320
2042.14724	0.14351
2040.21887	0.14393
2038.29049	0.14448
2036.36212	0.14492
2034.43375	0.14521
2032.50538	0.14549
2030.57700	0.14574
2028.64863	0.14593
2026.72026	0.14604
2024.79188	0.14607
2022.86351	0.14605
2020.93514	0.14597
2019.00676	0.14571
2017.07839	0.14556
2015.15002	0.14588
2013.22164	0.14643
2011.29327	0.14681
2009.36490	0.14702
2007.43652	0.14725
2005.50815	0.14759
2003.57978	0.14792
2001.65140	0.14820
1999.72303	0.14851
1997.79466	0.14892
1995.86628	0.14914
1993.93791	0.14877
1992.00954	0.14839
1990.08116	0.14881
1988.15279	0.14964
1986.22442	0.15036
1984.29604	0.15092
1982.36767	0.15127
1980.43930	0.15148
1978.51092	0.15167
1976.58255	0.15186
1974.65418	0.15210
1972.72581	0.15234
1970.79743	0.15238
1968.86906	0.15210
1966.94069	0.15203
1965.01231	0.15266
1963.08394	0.15346
1961.15557	0.15389
1959.22719	0.15415
1957.29882	0.15440
1955.37045	0.15471
1953.44207	0.15517
1951.51370	0.15568
1949.58533	0.15599
1947.65695	0.15597
1945.72858	0.15543
1943.80021	0.15457
1941.87183	0.15462
1939.94346	0.15597
1938.01509	0.15717
1936.08671	0.15754
1934.15834	0.15755
1932.22997	0.15754
1930.30159	0.15761
1928.37322	0.15768
1926.44485	0.15741
1924.51647	0.15660
1922.58810	0.15603
1920.65973	0.15598
1918.73135	0.15573
1916.80298	0.15600
1914.87461	0.15726
1912.94624	0.15799
1911.01786	0.15768
1909.08949	0.15740
1907.16112	0.15783
1905.23274	0.15842
1903.30437	0.15867
1901.37600	0.15869
1899.44762	0.15846
1897.51925	0.15779
1895.59088	0.15695
1893.66250	0.15649
1891.73413	0.15579
1889.80576	0.15470
1887.87738	0.15450
1885.94901	0.15490
1884.02064	0.15480
1882.09226	0.15437
1880.16389	0.15383
1878.23552	0.15316
1876.30714	0.15247
1874.37877	0.15165
1872.45040	0.14996
1870.52202	0.14672
1868.59365	0.14366
1866.66528	0.14355
1864.73690	0.14501
1862.80853	0.14545
1860.88016	0.14474
1858.95179	0.14379
1857.02341	0.14302
1855.09504	0.14234
1853.16667	0.14157
1851.23829	0.14048
1849.30992	0.13884
1847.38155	0.13653
1845.45317	0.13388
1843.52480	0.13273
1841.59643	0.13386
1839.66805	0.13476
1837.73968	0.13431
1835.81131	0.13347
1833.88293	0.13230
1831.95456	0.12975
1830.02619	0.12672
1828.09781	0.12537
1826.16944	0.12483
1824.24107	0.12413
1822.31269	0.12379
1820.38432	0.12301
1818.45595	0.12118
1816.52757	0.11885
1814.59920	0.11621
1812.67083	0.11290
1810.74245	0.10936
1808.81408	0.10658
1806.88571	0.10415
1804.95733	0.10103
1803.02896	0.09685
1801.10059	0.09218
1799.17222	0.08814
1797.24384	0.08473
1795.31547	0.08079
1793.38710	0.07574
1791.45872	0.07118
1789.53035	0.06867
1787.60198	0.06647
1785.67360	0.06321
1783.74523	0.05954
1781.81686	0.05600
1779.88848	0.05258
1777.96011	0.04945
1776.03174	0.04625
1774.10336	0.04237
1772.17499	0.03806
1770.24662	0.03465
1768.31824	0.03202
1766.38987	0.02919
1764.46150	0.02605
1762.53312	0.02237
1760.60475	0.01841
1758.67638	0.01481
1756.74800	0.01131
1754.81963	0.00824
1752.89126	0.00576
1750.96288	0.00347
1749.03451	0.00169
1747.10614	0.00079
1745.17777	0.00041
1743.24939	0.00019
1741.32102	0.00006
1739.39265	0.00026
1737.46427	0.00041
1735.53590	0.00039
1733.60753	0.00034
1731.67915	0.00040
1729.75078	0.00032
1727.82241	0.00020
1725.89403	0.00016
1723.96566	0.00017
1722.03729	0.00024
1720.10891	0.00027
1718.18054	0.00024
1716.25217	0.00021
1714.32379	0.00024
1712.39542	0.00022
1710.46705	0.00017
1708.53867	0.00014
1706.61030	0.00013
1704.68193	0.00022
1702.75355	0.00027
1700.82518	0.00029
1698.89681	0.00027
1696.96843	0.00027
1695.04006	0.00017
1693.11169	0.00027
1691.18331	0.00032
1689.25494	0.00025
1687.32657	0.00022
1685.39820	0.00022
1683.46982	0.00032
1681.54145	0.00055
1679.61308	0.00059
1677.68470	0.00041
1675.75633	0.00025
1673.82796	0.00029
1671.89958	0.00033
1669.97121	0.00034
1668.04284	0.00033
1666.11446	0.00027
1664.18609	0.00026
1662.25772	0.00027
1660.32934	0.00025
1658.40097	0.00027
1656.47260	0.00040
1654.54422	0.00049
1652.61585	0.00038
1650.68748	0.00031
1648.75910	0.00032
1646.83073	0.00030
1644.90236	0.00028
1642.97398	0.00022
1641.04561	0.00014
1639.11724	0.00014
1637.18886	0.00007
1635.26049	0.00015
1633.33212	0.00025
1631.40375	0.00032
1629.47537	0.00029
1627.54700	0.00022
1625.61863	0.00030
1623.69025	0.00016
1621.76188	0.00014
1619.83351	0.00017
1617.90513	0.00029
1615.97676	0.00037
1614.04839	0.00038
1612.12001	0.00043
1610.19164	0.00038
1608.26327	0.00022
1606.33489	0.00018
1604.40652	0.00027
1602.47815	0.00024
1600.54977	0.00025
1598.62140	0.00030
1596.69303	0.00020
1594.76465	0.00011
1592.83628	0.00012
1590.90791	0.00015
1588.97953	0.00025
1587.05116	0.00021
1585.12279	0.00024
1583.19441	0.00034
1581.26604	0.00035
1579.33767	0.00029
1577.40929	0.00024
1575.48092	0.00032
1573.55255	0.00031
1571.62418	0.00021
1569.69580	0.00022
1567.76743	0.00024
1565.83906	0.00018
1563.91068	0.00027
1561.98231	0.00040
1560.05394	0.00053
1558.12556	0.00043
1556.19719	0.00020
1554.26882	0.00027
1552.34044	0.00035
1550.41207	0.00029
1548.48370	0.00015
1546.55532	0.00015
1544.62695	0.00027
1542.69858	0.00043
1540.77020	0.00050
1538.84183	0.00036
1536.91346	0.00023
1534.98508	0.00026
1533.05671	0.00030
1531.12834	0.00030
1529.19996	0.00043
1527.27159	0.00044
1525.34322	0.00029
1523.41484	0.00010
1521.48647	0.00012
1519.55810	0.00018
1517.62972	0.00019
1515.70135	0.00032
1513.77298	0.00041
1511.84461	0.00040
1509.91623	0.00031
1507.98786	0.00026
1506.05949	0.00026
1504.13111	0.00029
1502.20274	0.00027
1500.27437	0.00023
1498.34599	0.00019
1496.41762	0.00031
1494.48925	0.00040
1492.56087	0.00033
1490.63250	0.00023
1488.70413	0.00024
1486.77575	0.00027
1484.84738	0.00012
1482.91901	0.00021
1480.99063	0.00028
1479.06226	0.00019
1477.13389	0.00031
1475.20551	0.00041
1473.27714	0.00034
1471.34877	0.00027
1469.42039	0.00028
1467.49202	0.00027
1465.56365	0.00029
1463.63527	0.00018
1461.70690	0.00006
1459.77853	0.00013
1457.85016	0.00032
1455.92178	0.00037
1453.99341	0.00030
1452.06504	0.00021
1450.13666	0.00012
1448.20829	0.00017
1446.27992	0.00035
1444.35154	0.00029
1442.42317	0.00025
1440.49480	0.00034
1438.56642	0.00031
1436.63805	0.00032
1434.70968	0.00031
1432.78130	0.00022
1430.85293	0.00021
1428.92456	0.00030
1426.99618	0.00037
1425.06781	0.00041
1423.13944	0.00048
1421.21106	0.00053
1419.28269	0.00051
1417.35432	0.00043
1415.42594	0.00030
1413.49757	0.00026
1411.56920	0.00041
1409.64082	0.00045
1407.71245	0.00032
1405.78408	0.00022
1403.85570	0.00017
1401.92733	0.00010
1399.99896	0.00016
1398.07059	0.00027
1396.14221	0.00030
1394.21384	0.00023
1392.28547	0.00020
1390.35709	0.00015
1388.42872	0.00020
1386.50035	0.00035
1384.57197	0.00045
1382.64360	0.00047
1380.71523	0.00044
1378.78685	0.00037
1376.85848	0.00030
1374.93011	0.00023
1373.00173	0.00017
1371.07336	0.00023
1369.14499	0.00037
1367.21661	0.00046
1365.28824	0.00045
1363.35987	0.00045
1361.43149	0.00033
1359.50312	0.00017
1357.57475	0.00035
1355.64637	0.00051
1353.71800	0.00050
1351.78963	0.00041
1349.86125	0.00033
1347.93288	0.00031
1346.00451	0.00043
1344.07614	0.00048
1342.14776	0.00045
1340.21939	0.00041
1338.29102	0.00029
1336.36264	0.00023
1334.43427	0.00033
1332.50590	0.00035
1330.57752	0.00031
1328.64915	0.00026
1326.72078	0.00017
1324.79240	0.00011
1322.86403	0.00031
1320.93566	0.00029
1319.00728	0.00014
1317.07891	0.00027
1315.15054	0.00042
1313.22216	0.00050
1311.29379	0.00050
1309.36542	0.00035
1307.43704	0.00025
1305.50867	0.00037
1303.58030	0.00054
1301.65192	0.00066
1299.72355	0.00059
1297.79518	0.00049
1295.86680	0.00045
1293.93843	0.00052
1292.01006	0.00053
1290.08168	0.00057
1288.15331	0.00052
1286.22494	0.00048
1284.29657	0.00081
1282.36819	0.00098
1280.43982	0.00092
1278.51145	0.00079
1276.58307	0.00066
1274.65470	0.00053
1272.72633	0.00047
1270.79795	0.00050
1268.86958	0.00054
1266.94121	0.00052
1265.01283	0.00056
1263.08446	0.00064
1261.15609	0.00064
1259.22771	0.00057
1257.29934	0.00049
1255.37097	0.00060
1253.44259	0.00081
1251.51422	0.00083
1249.58585	0.00066
1247.65747	0.00052
1245.72910	0.00051
1243.80073	0.00068
1241.87235	0.00080
1239.94398	0.00072
1238.01561	0.00069
1236.08723	0.00072
1234.15886	0.00068
1232.23049	0.00054
1230.30212	0.00053
1228.37374	0.00088
1226.44537	0.00126
1224.51700	0.00127
1222.58862	0.00095
1220.66025	0.00077
1218.73188	0.00082
1216.80350	0.00068
1214.87513	0.00051
1212.94676	0.00075
1211.01838	0.00072
1209.09001	0.00047
1207.16164	0.00035
1205.23326	0.00045
1203.30489	0.00045
1201.37652	0.00055
1199.44814	0.00065
1197.51977	0.00074
1195.59140	0.00092
1193.66302	0.00106
1191.73465	0.00101
1189.80628	0.00082
1187.87790	0.00073
1185.94953	0.00087
1184.02116	0.00088
1182.09278	0.00077
1180.16441	0.00053
1178.23604	0.00032
1176.30766	0.00060
1174.37929	0.00116
1172.45092	0.00135
1170.52255	0.00121
1168.59417	0.00098
1166.66580	0.00103
1164.73743	0.00114
1162.80905	0.00095
1160.88068	0.00076
1158.95231	0.00083
1157.02393	0.00088
1155.09556	0.00079
1153.16719	0.00075
1151.23881	0.00083
1149.31044	0.00099
1147.38207	0.00104
1145.45369	0.00093
1143.52532	0.00087
1141.59695	0.00075
1139.66857	0.00068
1137.74020	0.00085
1135.81183	0.00081
1133.88345	0.00068
1131.95508	0.00070
1130.02671	0.00095
1128.09833	0.00111
1126.16996	0.00098
1124.24159	0.00075
1122.31321	0.00062
1120.38484	0.00059
1118.45647	0.00062
1116.52809	0.00063
1114.59972	0.00074
1112.67135	0.00102
1110.74298	0.00129
1108.81460	0.00127
1106.88623	0.00113
1104.95786	0.00123
1103.02948	0.00133
1101.10111	0.00124
1099.17274	0.00111
1097.24436	0.00111
1095.31599	0.00118
1093.38762	0.00110
1091.45924	0.00080
1089.53087	0.00069
1087.60250	0.00091
1085.67412	0.00107
1083.74575	0.00100
1081.81738	0.00097
1079.88900	0.00099
1077.96063	0.00086
1076.03226	0.00085
1074.10388	0.00113
1072.17551	0.00123
1070.24714	0.00102
1068.31876	0.00070
1066.39039	0.00046
1064.46202	0.00048
1062.53364	0.00085
1060.60527	0.00109
1058.67690	0.00103
1056.74853	0.00100
1054.82015	0.00097
1052.89178	0.00070
1050.96341	0.00038
1049.03503	0.00033
1047.10666	0.00045
1045.17829	0.00055
1043.24991	0.00055
1041.32154	0.00064
1039.39317	0.00077
1037.46479	0.00068
1035.53642	0.00044
1033.60805	0.00071
1031.67967	0.00101
1029.75130	0.00103
1027.82293	0.00081
1025.89455	0.00050
1023.96618	0.00048
1022.03781	0.00072
1020.10943	0.00093
1018.18106	0.00094
1016.25269	0.00076
1014.32431	0.00053
1012.39594	0.00053
1010.46757	0.00073
1008.53919	0.00063
1006.61082	0.00049
1004.68245	0.00040
1002.75407	0.00032
1000.82570	0.00045
998.89733	0.00076
996.96896	0.00106
995.04058	0.00117
993.11221	0.00100
991.18384	0.00069
989.25546	0.00062
987.32709	0.00086
985.39872	0.00113
983.47034	0.00119
981.54197	0.00109
979.61360	0.00098
977.68522	0.00100
975.75685	0.00116
973.82848	0.00141
971.90010	0.00169
969.97173	0.00203
968.04336	0.00260
966.11498	0.00334
964.18661	0.00384
962.25824	0.00368
960.32986	0.00284
958.40149	0.00182
956.47312	0.00111
954.54474	0.00081
952.61637	0.00092
950.68800	0.00144
948.75962	0.00214
946.83125	0.00289
944.90288	0.00388
942.97451	0.00501
941.04613	0.00594
939.11776	0.00648
937.18939	0.00669
935.26101	0.00688
933.33264	0.00722
931.40427	0.00752
929.47589	0.00750
927.54752	0.00725
925.61915	0.00699
923.69077	0.00677
921.76240	0.00654
919.83403	0.00634
917.90565	0.00633
915.97728	0.00667
914.04891	0.00704
912.12053	0.00695
910.19216	0.00644
908.26379	0.00573
906.33541	0.00491
904.40704	0.00397
902.47867	0.00295
900.55029	0.00217
898.62192	0.00197
896.69355	0.00210
894.76517	0.00219
892.83680	0.00202
890.90843	0.00176
888.98005	0.00168
887.05168	0.00215
885.12331	0.00269
883.19494	0.00292
881.26656	0.00278
879.33819	0.00240
877.40982	0.00228
875.48144	0.00241
873.55307	0.00244
871.62470	0.00250
869.69632	0.00269
867.76795	0.00285
865.83958	0.00267
863.91120	0.00232
861.98283	0.00226
860.05446	0.00232
858.12608	0.00226
856.19771	0.00186
854.26934	0.00150
852.34096	0.00139
850.41259	0.00134
848.48422	0.00145
846.55584	0.00153
844.62747	0.00167
842.69910	0.00177
840.77072	0.00140
838.84235	0.00105
836.91398	0.00104
834.98560	0.00117
833.05723	0.00143
831.12886	0.00173
829.20049	0.00188
827.27211	0.00173
825.34374	0.00153
823.41537	0.00136
821.48699	0.00131
819.55862	0.00150
817.63025	0.00161
815.70187	0.00148
813.77350	0.00120
811.84513	0.00116
809.91675	0.00151
807.98838	0.00182
806.06001	0.00160
804.13163	0.00119
802.20326	0.00128
800.27489	0.00168
798.34651	0.00183
796.41814	0.00168
794.48977	0.00142
792.56139	0.00114
790.63302	0.00120
788.70465	0.00144
786.77627	0.00141
784.84790	0.00144
782.91953	0.00121
780.99115	0.00086
779.06278	0.00066
777.13441	0.00077
775.20603	0.00103
773.27766	0.00134
771.34929	0.00161
769.42092	0.00147
767.49254	0.00132
765.56417	0.00114
763.63580	0.00110
761.70742	0.00113
759.77905	0.00107
757.85068	0.00097
755.92230	0.00100
753.99393	0.00125
752.06556	0.00163
750.13718	0.00204
748.20881	0.00219
746.28044	0.00201
744.35206	0.00177
742.42369	0.00156
740.49532	0.00149
738.56694	0.00167
736.63857	0.00188
734.71020	0.00167
732.78182	0.00118
730.85345	0.00125
728.92508	0.00161
726.99670	0.00170
725.06833	0.00177
723.13996	0.00199
721.21158	0.00198
719.28321	0.00177
717.35484	0.00165
715.42647	0.00153
713.49809	0.00154
711.56972	0.00155
709.64135	0.00152
707.71297	0.00171
705.78460	0.00171
703.85623	0.00192
701.92785	0.00223
699.99948	0.00239
698.07111	0.00249
696.14273	0.00254
694.21436	0.00238
692.28599	0.00209
690.35761	0.00196
688.42924	0.00195
686.50087	0.00218
684.57249	0.00239
682.64412	0.00258
680.71575	0.00305
678.78737	0.00315
676.85900	0.00273
674.93063	0.00236
673.00225	0.00217
671.07388	0.00261
669.14551	0.00316
667.21713	0.00306
665.28876	0.00229
663.36039	0.00203
661.43201	0.00236
659.50364	0.00243
657.57527	0.00187
655.64690	0.00169
653.71852	0.00167
651.79015	0.00211
649.86178	0.00254
647.93340	0.00213
646.00503	0.00277
644.07666	0.00334
642.14828	0.00315
640.21991	0.00230
638.29154	0.00276
636.36316	0.00421
634.43479	0.00455
632.50642	0.00329
630.57804	0.00235
628.64967	0.00253
626.72130	0.00382
624.79292	0.00481
622.86455	0.00504
620.93618	0.00576
619.00780	0.00633
617.07943	0.00589
615.15106	0.00480
613.22268	0.00444
611.29431	0.00493
609.36594	0.00599
607.43756	0.00722
605.50919	0.00638
603.58082	0.00488
601.65244	0.00530
599.72407	0.00621
