3997.51769	0.32919
3995.58931	0.32965
3993.66094	0.33033
3991.73257	0.33108
3989.80419	0.33159
3987.87582	0.33182
3985.94745	0.33191
3984.01907	0.33200
3982.09070	0.33213
3980.16233	0.33227
3978.23396	0.33238
3976.30558	0.33269
3974.37721	0.33334
3972.44884	0.33391
3970.52046	0.33397
3968.59209	0.33371
3966.66372	0.33371
3964.73534	0.33437
3962.80697	0.33551
3960.87860	0.33649
3958.95022	0.33727
3957.02185	0.33813
3955.09348	0.33866
3953.16510	0.33891
3951.23673	0.33957
3949.30836	0.34031
3947.37998	0.34037
3945.45161	0.34042
3943.52324	0.34090
3941.59486	0.34108
3939.66649	0.34130
3937.73812	0.34228
3935.80974	0.34361
3933.88137	0.34490
3931.95300	0.34582
3930.02462	0.34598
3928.09625	0.34604
3926.16788	0.34681
3924.23950	0.34760
3922.31113	0.34757
3920.38276	0.34770
3918.45439	0.34874
3916.52601	0.34961
3914.59764	0.34943
3912.66927	0.34893
3910.74089	0.34909
3908.81252	0.35056
3906.88415	0.35373
3904.95577	0.35783
3903.02740	0.36051
3901.09903	0.36038
3899.17065	0.35831
3897.24228	0.35631
3895.31391	0.35626
3893.38553	0.35819
3891.45716	0.36008
3889.52879	0.36061
3887.60041	0.36144
3885.67204	0.36286
3883.74367	0.36379
3881.81529	0.36473
3879.88692	0.36478
3877.95855	0.36364
3876.03017	0.36387
3874.10180	0.36581
3872.17343	0.36835
3870.24505	0.37048
3868.31668	0.37069
3866.38831	0.37088
3864.45994	0.37218
3862.53156	0.37184
3860.60319	0.37002
3858.67482	0.36925
3856.74644	0.37066
3854.81807	0.37530
3852.88970	0.37968
3850.96132	0.37709
3849.03295	0.37293
3847.10458	0.37088
3845.17620	0.37145
3843.24783	0.37392
3841.31946	0.37663
3839.39108	0.37829
3837.46271	0.37825
3835.53434	0.37711
3833.60596	0.37589
3831.67759	0.37459
3829.74922	0.37380
3827.82084	0.37447
3825.89247	0.37596
3823.96410	0.37764
3822.03572	0.38009
3820.10735	0.38126
3818.17898	0.38001
3816.25060	0.37827
3814.32223	0.37583
3812.39386	0.37394
3810.46548	0.37431
3808.53711	0.37693
3806.60874	0.37941
3804.68037	0.38022
3802.75199	0.38162
3800.82362	0.38197
3798.89525	0.37949
3796.96687	0.37767
3795.03850	0.37667
3793.11013	0.37550
3791.18175	0.37473
3789.25338	0.37460
3787.32501	0.37498
3785.39663	0.37541
3783.46826	0.37550
3781.53989	0.37606
3779.61151	0.37691
3777.68314	0.37614
3775.75477	0.37453
3773.82639	0.37419
3771.89802	0.37500
3769.96965	0.37591
3768.04127	0.37650
3766.11290	0.37688
3764.18453	0.37672
3762.25615	0.37696
3760.32778	0.37831
3758.39941	0.37884
3756.47103	0.37819
3754.54266	0.37883
3752.61429	0.38174
3750.68591	0.38387
3748.75754	0.38194
3746.82917	0.37988
3744.90080	0.37872
3742.97242	0.37685
3741.04405	0.37529
3739.11568	0.37524
3737.18730	0.37703
3735.25893	0.37890
3733.33056	0.37723
3731.40218	0.37303
3729.47381	0.36969
3727.54544	0.36814
3725.61706	0.36744
3723.68869	0.36616
3721.76032	0.36422
3719.83194	0.36216
3717.90357	0.36032
3715.97520	0.35940
3714.04682	0.35980
3712.11845	0.36068
3710.19008	0.35860
3708.26170	0.35321
3706.33333	0.34838
3704.40496	0.34584
3702.47658	0.34446
3700.54821	0.34169
3698.61984	0.33766
3696.69146	0.33371
3694.76309	0.33026
3692.83472	0.32776
3690.90635	0.32553
3688.97797	0.32060
3687.04960	0.31205
3685.12123	0.30361
3683.19285	0.29663
3681.26448	0.29084
3679.33611	0.28621
3677.40773	0.28170
3675.47936	0.27312
3673.55099	0.26203
3671.62261	0.25427
3669.69424	0.24512
3667.76587	0.23271
3665.83749	0.22153
3663.90912	0.21142
3661.98075	0.20162
3660.05237	0.19226
3658.12400	0.18309
3656.19563	0.17299
3654.26725	0.16366
3652.33888	0.15681
3650.41051	0.14926
3648.48213	0.13766
3646.55376	0.12584
3644.62539	0.11694
3642.69701	0.10925
3640.76864	0.10170
3638.84027	0.09460
3636.91189	0.08796
3634.98352	0.08146
3633.05515	0.07527
3631.12678	0.06976
3629.19840	0.06391
3627.27003	0.05776
3625.34166	0.05301
3623.41328	0.04906
3621.48491	0.04544
3619.55654	0.04153
3617.62816	0.03719
3615.69979	0.03363
3613.77142	0.03082
3611.84304	0.02812
3609.91467	0.02549
3607.98630	0.02269
3606.05792	0.02005
3604.12955	0.01809
3602.20118	0.01639
3600.27280	0.01503
3598.34443	0.01413
3596.41606	0.01313
3594.48768	0.01182
3592.55931	0.01041
3590.63094	0.00923
3588.70256	0.00838
3586.77419	0.00764
3584.84582	0.00678
3582.91744	0.00563
3580.98907	0.00455
3579.06070	0.00403
3577.13233	0.00401
3575.20395	0.00384
3573.27558	0.00335
3571.34721	0.00290
3569.41883	0.00261
3567.49046	0.00216
3565.56209	0.00147
3563.63371	0.00113
3561.70534	0.00085
3559.77697	0.00045
3557.84859	0.00018
3555.92022	0.00020
3553.99185	0.00082
3552.06347	0.00113
3550.13510	0.00073
3548.20673	0.00049
3546.27835	0.00089
3544.34998	0.00105
3542.42161	0.00071
3540.49323	0.00066
3538.56486	0.00068
3536.63649	0.00090
3534.70811	0.00089
3532.77974	0.00062
3530.85137	0.00053
3528.92299	0.00073
3526.99462	0.00052
3525.06625	0.00037
3523.13787	0.00042
3521.20950	0.00031
3519.28113	0.00052
3517.35276	0.00078
3515.42438	0.00062
3513.49601	0.00050
3511.56764	0.00105
3509.63926	0.00098
3507.71089	0.00068
3505.78252	0.00073
3503.85414	0.00068
3501.92577	0.00077
3499.99740	0.00094
3498.06902	0.00072
3496.14065	0.00051
3494.21228	0.00096
3492.28390	0.00130
3490.35553	0.00099
3488.42716	0.00087
3486.49878	0.00132
3484.57041	0.00129
3482.64204	0.00132
3480.71366	0.00152
3478.78529	0.00139
3476.85692	0.00091
3474.92854	0.00062
3473.00017	0.00065
3471.07180	0.00065
3469.14342	0.00092
3467.21505	0.00082
3465.28668	0.00073
3463.35831	0.00134
3461.42993	0.00121
3459.50156	0.00051
3457.57319	0.00049
3455.64481	0.00055
3453.71644	0.00050
3451.78807	0.00036
3449.85969	0.00033
3447.93132	0.00079
3446.00295	0.00138
3444.07457	0.00162
3442.14620	0.00122
3440.21783	0.00089
3438.28945	0.00122
3436.36108	0.00147
3434.43271	0.00145
3432.50433	0.00098
3430.57596	0.00089
3428.64759	0.00095
3426.71921	0.00113
3424.79084	0.00102
3422.86247	0.00068
3420.93409	0.00106
3419.00572	0.00088
3417.07735	0.00043
3415.14897	0.00052
3413.22060	0.00059
3411.29223	0.00063
3409.36385	0.00057
3407.43548	0.00025
3405.50711	0.00036
3403.57874	0.00093
3401.65036	0.00120
3399.72199	0.00105
3397.79362	0.00092
3395.86524	0.00076
3393.93687	0.00064
3392.00850	0.00062
3390.08012	0.00039
3388.15175	0.00052
3386.22338	0.00071
3384.29500	0.00063
3382.36663	0.00046
3380.43826	0.00056
3378.50988	0.00087
3376.58151	0.00121
3374.65314	0.00132
3372.72476	0.00123
3370.79639	0.00094
3368.86802	0.00070
3366.93964	0.00080
3365.01127	0.00091
3363.08290	0.00087
3361.15452	0.00098
3359.22615	0.00125
3357.29778	0.00111
3355.36940	0.00054
3353.44103	0.00063
3351.51266	0.00067
3349.58428	0.00049
3347.65591	0.00079
3345.72754	0.00074
3343.79917	0.00095
3341.87079	0.00091
3339.94242	0.00072
3338.01405	0.00114
3336.08567	0.00154
3334.15730	0.00127
3332.22893	0.00065
3330.30055	0.00072
3328.37218	0.00068
3326.44381	0.00064
3324.51543	0.00105
3322.58706	0.00118
3320.65869	0.00082
3318.73031	0.00051
3316.80194	0.00041
3314.87357	0.00104
3312.94519	0.00107
3311.01682	0.00076
3309.08845	0.00065
3307.16007	0.00065
3305.23170	0.00079
3303.30333	0.00073
3301.37495	0.00049
3299.44658	0.00114
3297.51821	0.00139
3295.58983	0.00129
3293.66146	0.00133
3291.73309	0.00127
3289.80472	0.00096
3287.87634	0.00051
3285.94797	0.00064
3284.01960	0.00080
3282.09122	0.00072
3280.16285	0.00060
3278.23448	0.00072
3276.30610	0.00131
3274.37773	0.00140
3272.44936	0.00084
3270.52098	0.00082
3268.59261	0.00101
3266.66424	0.00094
3264.73586	0.00110
3262.80749	0.00093
3260.87912	0.00023
3258.95074	0.00067
3257.02237	0.00103
3255.09400	0.00091
3253.16562	0.00071
3251.23725	0.00097
3249.30888	0.00117
3247.38050	0.00111
3245.45213	0.00096
3243.52376	0.00077
3241.59538	0.00066
3239.66701	0.00063
3237.73864	0.00093
3235.81026	0.00077
3233.88189	0.00086
3231.95352	0.00085
3230.02515	0.00107
3228.09677	0.00131
3226.16840	0.00136
3224.24003	0.00129
3222.31165	0.00093
3220.38328	0.00077
3218.45491	0.00110
3216.52653	0.00084
3214.59816	0.00074
3212.66979	0.00091
3210.74141	0.00093
3208.81304	0.00072
3206.88467	0.00071
3204.95629	0.00073
3203.02792	0.00093
3201.09955	0.00128
3199.17117	0.00119
3197.24280	0.00079
3195.31443	0.00089
3193.38605	0.00106
3191.45768	0.00087
3189.52931	0.00064
3187.60093	0.00039
3185.67256	0.00061
3183.74419	0.00109
3181.81581	0.00115
3179.88744	0.00082
3177.95907	0.00070
3176.03070	0.00084
3174.10232	0.00085
3172.17395	0.00109
3170.24558	0.00105
3168.31720	0.00105
3166.38883	0.00109
3164.46046	0.00057
3162.53208	0.00068
3160.60371	0.00045
3158.67534	0.00041
3156.74696	0.00084
3154.81859	0.00096
3152.89022	0.00059
3150.96184	0.00050
3149.03347	0.00079
3147.10510	0.00087
3145.17672	0.00073
3143.24835	0.00052
3141.31998	0.00048
3139.39160	0.00067
3137.46323	0.00074
3135.53486	0.00061
3133.60648	0.00053
3131.67811	0.00059
3129.74974	0.00084
3127.82136	0.00092
3125.89299	0.00043
3123.96462	0.00015
3122.03624	0.00046
3120.10787	0.00063
3118.17950	0.00052
3116.25113	0.00051
3114.32275	0.00077
3112.39438	0.00085
3110.46601	0.00045
3108.53763	0.00052
3106.60926	0.00060
3104.68089	0.00064
3102.75251	0.00073
3100.82414	0.00071
3098.89577	0.00073
3096.96739	0.00091
3095.03902	0.00053
3093.11065	0.00054
3091.18227	0.00078
3089.25390	0.00070
3087.32553	0.00060
3085.39715	0.00108
3083.46878	0.00115
3081.54041	0.00083
3079.61203	0.00036
3077.68366	0.00041
3075.75529	0.00040
3073.82691	0.00029
3071.89854	0.00039
3069.97017	0.00069
3068.04179	0.00084
3066.11342	0.00059
3064.18505	0.00083
3062.25668	0.00052
3060.32830	0.00034
3058.39993	0.00042
3056.47156	0.00076
3054.54318	0.00118
3052.61481	0.00136
3050.68644	0.00106
3048.75806	0.00106
3046.82969	0.00147
3044.90132	0.00142
3042.97294	0.00113
3041.04457	0.00059
3039.11620	0.00065
3037.18782	0.00092
3035.25945	0.00076
3033.33108	0.00059
3031.40270	0.00097
3029.47433	0.00120
3027.54596	0.00145
3025.61758	0.00126
3023.68921	0.00081
3021.76084	0.00082
3019.83246	0.00101
3017.90409	0.00080
3015.97572	0.00036
3014.04734	0.00015
3012.11897	0.00042
3010.19060	0.00051
3008.26222	0.00034
3006.33385	0.00054
3004.40548	0.00085
3002.47711	0.00071
3000.54873	0.00047
2998.62036	0.00044
2996.69199	0.00061
2994.76361	0.00061
2992.83524	0.00101
2990.90687	0.00136
2988.97849	0.00144
2987.05012	0.00127
2985.12175	0.00089
2983.19337	0.00079
2981.26500	0.00098
2979.33663	0.00087
2977.40825	0.00046
2975.47988	0.00062
2973.55151	0.00084
2971.62313	0.00150
2969.69476	0.00187
2967.76639	0.00161
2965.83801	0.00145
2963.90964	0.00160
2961.98127	0.00145
2960.05289	0.00112
2958.12452	0.00065
2956.19615	0.00037
2954.26777	0.00104
2952.33940	0.00133
2950.41103	0.00096
2948.48266	0.00054
2946.55428	0.00047
2944.62591	0.00048
2942.69754	0.00091
2940.76916	0.00128
2938.84079	0.00089
2936.91242	0.00082
2934.98404	0.00103
2933.05567	0.00140
2931.12730	0.00148
2929.19892	0.00096
2927.27055	0.00069
2925.34218	0.00051
2923.41380	0.00032
2921.48543	0.00105
2919.55706	0.00153
2917.62868	0.00158
2915.70031	0.00130
2913.77194	0.00156
2911.84356	0.00167
2909.91519	0.00112
2907.98682	0.00062
2906.05844	0.00052
2904.13007	0.00058
2902.20170	0.00099
2900.27332	0.00107
2898.34495	0.00047
2896.41658	0.00071
2894.48820	0.00097
2892.55983	0.00123
2890.63146	0.00119
2888.70309	0.00066
2886.77471	0.00062
2884.84634	0.00094
2882.91797	0.00098
2880.98959	0.00090
2879.06122	0.00107
2877.13285	0.00103
2875.20447	0.00092
2873.27610	0.00084
2871.34773	0.00118
2869.41935	0.00154
2867.49098	0.00127
2865.56261	0.00063
2863.63423	0.00045
2861.70586	0.00027
2859.77749	0.00039
2857.84911	0.00061
2855.92074	0.00067
2853.99237	0.00073
2852.06399	0.00061
2850.13562	0.00033
2848.20725	0.00049
2846.27887	0.00072
2844.35050	0.00087
2842.42213	0.00085
2840.49375	0.00059
2838.56538	0.00067
2836.63701	0.00083
2834.70863	0.00074
2832.78026	0.00070
2830.85189	0.00051
2828.92352	0.00064
2826.99514	0.00056
2825.06677	0.00039
2823.13840	0.00078
2821.21002	0.00094
2819.28165	0.00094
2817.35328	0.00065
2815.42490	0.00052
2813.49653	0.00055
2811.56816	0.00050
2809.63978	0.00042
2807.71141	0.00021
2805.78304	0.00046
2803.85466	0.00058
2801.92629	0.00056
2799.99792	0.00064
2798.06954	0.00078
2796.14117	0.00076
2794.21280	0.00052
2792.28442	0.00029
2790.35605	0.00043
2788.42768	0.00074
2786.49930	0.00075
2784.57093	0.00062
2782.64256	0.00058
2780.71418	0.00046
2778.78581	0.00034
2776.85744	0.00058
2774.92907	0.00065
2773.00069	0.00096
2771.07232	0.00117
2769.14395	0.00107
2767.21557	0.00069
2765.28720	0.00065
2763.35883	0.00049
2761.43045	0.00063
2759.50208	0.00076
2757.57371	0.00060
2755.64533	0.00037
2753.71696	0.00038
2751.78859	0.00066
2749.86021	0.00085
2747.93184	0.00086
2746.00347	0.00076
2744.07509	0.00055
2742.14672	0.00046
2740.21835	0.00055
2738.28997	0.00042
2736.36160	0.00061
2734.43323	0.00071
2732.50485	0.00055
2730.57648	0.00037
2728.64811	0.00067
2726.71973	0.00097
2724.79136	0.00086
2722.86299	0.00060
2720.93461	0.00044
2719.00624	0.00047
2717.07787	0.00051
2715.14950	0.00061
2713.22112	0.00055
2711.29275	0.00059
2709.36438	0.00037
2707.43600	0.00044
2705.50763	0.00062
2703.57926	0.00057
2701.65088	0.00028
2699.72251	0.00033
2697.79414	0.00035
2695.86576	0.00036
2693.93739	0.00075
2692.00902	0.00091
2690.08064	0.00086
2688.15227	0.00069
2686.22390	0.00049
2684.29552	0.00093
2682.36715	0.00101
2680.43878	0.00076
2678.51040	0.00044
2676.58203	0.00031
2674.65366	0.00039
2672.72528	0.00043
2670.79691	0.00076
2668.86854	0.00111
2666.94016	0.00109
2665.01179	0.00111
2663.08342	0.00121
2661.15505	0.00117
2659.22667	0.00108
2657.29830	0.00087
2655.36993	0.00070
2653.44155	0.00042
2651.51318	0.00078
2649.58481	0.00082
2647.65643	0.00058
2645.72806	0.00042
2643.79969	0.00054
2641.87131	0.00075
2639.94294	0.00108
2638.01457	0.00125
2636.08619	0.00137
2634.15782	0.00127
2632.22945	0.00119
2630.30107	0.00125
2628.37270	0.00120
2626.44433	0.00108
2624.51595	0.00120
2622.58758	0.00147
2620.65921	0.00162
2618.73083	0.00158
2616.80246	0.00168
2614.87409	0.00187
2612.94571	0.00170
2611.01734	0.00136
2609.08897	0.00137
2607.16059	0.00138
2605.23222	0.00137
2603.30385	0.00176
2601.37548	0.00224
2599.44710	0.00224
2597.51873	0.00200
2595.59036	0.00207
2593.66198	0.00246
2591.73361	0.00277
2589.80524	0.00286
2587.87686	0.00285
2585.94849	0.00273
2584.02012	0.00268
2582.09174	0.00290
2580.16337	0.00322
2578.23500	0.00333
2576.30662	0.00334
2574.37825	0.00343
2572.44988	0.00343
2570.52150	0.00335
2568.59313	0.00341
2566.66476	0.00356
2564.73638	0.00377
2562.80801	0.00404
2560.87964	0.00416
2558.95126	0.00402
2557.02289	0.00387
2555.09452	0.00394
2553.16614	0.00428
2551.23777	0.00469
2549.30940	0.00510
2547.38103	0.00543
2545.45265	0.00551
2543.52428	0.00554
2541.59591	0.00576
2539.66753	0.00610
2537.73916	0.00633
2535.81079	0.00624
2533.88241	0.00598
2531.95404	0.00609
2530.02567	0.00678
2528.09729	0.00751
2526.16892	0.00788
2524.24055	0.00803
2522.31217	0.00811
2520.38380	0.00808
2518.45543	0.00806
2516.52705	0.00822
2514.59868	0.00833
2512.67031	0.00829
2510.74193	0.00844
2508.81356	0.00878
2506.88519	0.00903
2504.95681	0.00931
2503.02844	0.00976
2501.10007	0.01014
2499.17169	0.01032
2497.24332	0.01035
2495.31495	0.01036
2493.38657	0.01048
2491.45820	0.01085
2489.52983	0.01133
2487.60146	0.01173
2485.67308	0.01205
2483.74471	0.01229
2481.81634	0.01241
2479.88796	0.01272
2477.95959	0.01319
2476.03122	0.01337
2474.10284	0.01326
2472.17447	0.01335
2470.24610	0.01385
2468.31772	0.01458
2466.38935	0.01517
2464.46098	0.01546
2462.53260	0.01572
2460.60423	0.01612
2458.67586	0.01656
2456.74748	0.01699
2454.81911	0.01750
2452.89074	0.01811
2450.96236	0.01869
2449.03399	0.01926
2447.10562	0.01999
2445.17724	0.02067
2443.24887	0.02107
2441.32050	0.02140
2439.39212	0.02176
2437.46375	0.02212
2435.53538	0.02257
2433.60700	0.02298
2431.67863	0.02325
2429.75026	0.02365
2427.82189	0.02436
2425.89351	0.02509
2423.96514	0.02549
2422.03677	0.02577
2420.10839	0.02624
2418.18002	0.02683
2416.25165	0.02747
2414.32327	0.02809
2412.39490	0.02857
2410.46653	0.02901
2408.53815	0.02964
2406.60978	0.03043
2404.68141	0.03127
2402.75303	0.03203
2400.82466	0.03276
2398.89629	0.03369
2396.96791	0.03471
2395.03954	0.03552
2393.11117	0.03616
2391.18279	0.03682
2389.25442	0.03751
2387.32605	0.03825
2385.39767	0.03904
2383.46930	0.03981
2381.54093	0.04056
2379.61255	0.04131
2377.68418	0.04233
2375.75581	0.04371
2373.82744	0.04500
2371.89906	0.04631
2369.97069	0.04797
2368.04232	0.04938
2366.11394	0.05057
2364.18557	0.05200
2362.25720	0.05279
2360.32882	0.05300
2358.40045	0.05384
2356.47208	0.05497
2354.54370	0.05569
2352.61533	0.05573
2350.68696	0.05523
2348.75858	0.05491
2346.83021	0.05536
2344.90184	0.05673
2342.97346	0.05820
2341.04509	0.05891
2339.11672	0.05914
2337.18834	0.05946
2335.25997	0.06014
2333.33160	0.06093
2331.40322	0.06180
2329.47485	0.06266
2327.54648	0.06304
2325.61810	0.06310
2323.68973	0.06336
2321.76136	0.06387
2319.83298	0.06451
2317.90461	0.06498
2315.97624	0.06529
2314.04787	0.06589
2312.11949	0.06672
2310.19112	0.06745
2308.26275	0.06827
2306.33437	0.06922
2304.40600	0.06992
2302.47763	0.07037
2300.54925	0.07102
2298.62088	0.07186
2296.69251	0.07260
2294.76413	0.07340
2292.83576	0.07432
2290.90739	0.07517
2288.97901	0.07588
2287.05064	0.07659
2285.12227	0.07742
2283.19389	0.07836
2281.26552	0.07928
2279.33715	0.08001
2277.40877	0.08062
2275.48040	0.08145
2273.55203	0.08248
2271.62365	0.08326
2269.69528	0.08379
2267.76691	0.08435
2265.83853	0.08503
2263.91016	0.08577
2261.98179	0.08640
2260.05342	0.08689
2258.12504	0.08753
2256.19667	0.08840
2254.26830	0.08925
2252.33992	0.08989
2250.41155	0.09041
2248.48318	0.09109
2246.55480	0.09193
2244.62643	0.09259
2242.69806	0.09308
2240.76968	0.09373
2238.84131	0.09439
2236.91294	0.09488
2234.98456	0.09546
2233.05619	0.09617
2231.12782	0.09681
2229.19944	0.09729
2227.27107	0.09768
2225.34270	0.09809
2223.41432	0.09862
2221.48595	0.09926
2219.55758	0.09986
2217.62920	0.10038
2215.70083	0.10085
2213.77246	0.10136
2211.84408	0.10199
2209.91571	0.10256
2207.98734	0.10301
2206.05896	0.10353
2204.13059	0.10419
2202.20222	0.10488
2200.27385	0.10533
2198.34547	0.10555
2196.41710	0.10581
2194.48873	0.10619
2192.56035	0.10667
2190.63198	0.10723
2188.70361	0.10784
2186.77523	0.10842
2184.84686	0.10886
2182.91849	0.10917
2180.99011	0.10949
2179.06174	0.10983
2177.13337	0.11010
2175.20499	0.11033
2173.27662	0.11056
2171.34825	0.11075
2169.41987	0.11097
2167.49150	0.11125
2165.56313	0.11154
2163.63475	0.11188
2161.70638	0.11222
2159.77801	0.11243
2157.84963	0.11252
2155.92126	0.11253
2153.99289	0.11262
2152.06451	0.11299
2150.13614	0.11351
2148.20777	0.11388
2146.27940	0.11419
2144.35102	0.11457
2142.42265	0.11502
2140.49428	0.11551
2138.56590	0.11596
2136.63753	0.11634
2134.70916	0.11688
2132.78078	0.11761
2130.85241	0.11825
2128.92404	0.11871
2126.99566	0.11921
2125.06729	0.11983
2123.13892	0.12047
2121.21054	0.12117
2119.28217	0.12197
2117.35380	0.12280
2115.42542	0.12368
2113.49705	0.12459
2111.56868	0.12536
2109.64030	0.12599
2107.71193	0.12647
2105.78356	0.12687
2103.85518	0.12742
2101.92681	0.12823
2099.99844	0.12903
2098.07006	0.12947
2096.14169	0.12963
2094.21332	0.12995
2092.28494	0.13043
2090.35657	0.13076
2088.42820	0.13098
2086.49983	0.13137
2084.57145	0.13180
2082.64308	0.13195
2080.71471	0.13185
2078.78633	0.13180
2076.85796	0.13192
2074.92959	0.13207
2073.00121	0.13205
2071.07284	0.13187
2069.14447	0.13177
2067.21609	0.13188
2065.28772	0.13221
2063.35935	0.13259
2061.43097	0.13284
2059.50260	0.13294
2057.57423	0.13298
2055.64585	0.13314
2053.71748	0.13348
2051.78911	0.13392
2049.86073	0.13436
2047.93236	0.13461
2046.00399	0.13480
2044.07561	0.13522
2042.14724	0.13584
2040.21887	0.13642
2038.29049	0.13704
2036.36212	0.13766
2034.43375	0.13807
2032.50538	0.13834
2030.57700	0.13854
2028.64863	0.13870
2026.72026	0.13874
2024.79188	0.13868
2022.86351	0.13871
2020.93514	0.13892
2019.00676	0.13916
2017.07839	0.13924
2015.15002	0.13912
2013.22164	0.13904
2011.29327	0.13918
2009.36490	0.13946
2007.43652	0.13988
2005.50815	0.14051
2003.57978	0.14109
2001.65140	0.14136
1999.72303	0.14137
1997.79466	0.14138
1995.86628	0.14153
1993.93791	0.14183
1992.00954	0.14223
1990.08116	0.14245
1988.15279	0.14240
1986.22442	0.14234
1984.29604	0.14249
1982.36767	0.14273
1980.43930	0.14290
1978.51092	0.14307
1976.58255	0.14325
1974.65418	0.14330
1972.72581	0.14324
1970.79743	0.14333
1968.86906	0.14372
1966.94069	0.14412
1965.01231	0.14419
1963.08394	0.14402
1961.15557	0.14388
1959.22719	0.14396
1957.29882	0.14428
1955.37045	0.14450
1953.44207	0.14445
1951.51370	0.14453
1949.58533	0.14488
1947.65695	0.14516
1945.72858	0.14541
1943.80021	0.14586
1941.87183	0.14613
1939.94346	0.14579
1938.01509	0.14523
1936.08671	0.14489
1934.15834	0.14468
1932.22997	0.14450
1930.30159	0.14425
1928.37322	0.14383
1926.44485	0.14367
1924.51647	0.14404
1922.58810	0.14434
1920.65973	0.14433
1918.73135	0.14436
1916.80298	0.14427
1914.87461	0.14387
1912.94624	0.14364
1911.01786	0.14372
1909.08949	0.14378
1907.16112	0.14362
1905.23274	0.14327
1903.30437	0.14290
1901.37600	0.14254
1899.44762	0.14226
1897.51925	0.14208
1895.59088	0.14177
1893.66250	0.14138
1891.73413	0.14114
1889.80576	0.14088
1887.87738	0.14022
1885.94901	0.13933
1884.02064	0.13853
1882.09226	0.13779
1880.16389	0.13700
1878.23552	0.13615
1876.30714	0.13520
1874.37877	0.13429
1872.45040	0.13372
1870.52202	0.13353
1868.59365	0.13318
1866.66528	0.13202
1864.73690	0.13034
1862.80853	0.12893
1860.88016	0.12799
1858.95179	0.12720
1857.02341	0.12635
1855.09504	0.12552
1853.16667	0.12486
1851.23829	0.12448
1849.30992	0.12428
1847.38155	0.12397
1845.45317	0.12354
1843.52480	0.12290
1841.59643	0.12203
1839.66805	0.12118
1837.73968	0.12042
1835.81131	0.11964
1833.88293	0.11890
1831.95456	0.11838
1830.02619	0.11780
1828.09781	0.11674
1826.16944	0.11540
1824.24107	0.11381
1822.31269	0.11216
1820.38432	0.11061
1818.45595	0.10890
1816.52757	0.10697
1814.59920	0.10493
1812.67083	0.10289
1810.74245	0.10068
1808.81408	0.09804
1806.88571	0.09513
1804.95733	0.09234
1803.02896	0.08967
1801.10059	0.08676
1799.17222	0.08352
1797.24384	0.08020
1795.31547	0.07700
1793.38710	0.07350
1791.45872	0.06923
1789.53035	0.06509
1787.60198	0.06159
1785.67360	0.05833
1783.74523	0.05521
1781.81686	0.05233
1779.88848	0.04933
1777.96011	0.04634
1776.03174	0.04389
1774.10336	0.04155
1772.17499	0.03835
1770.24662	0.03478
1768.31824	0.03163
1766.38987	0.02863
1764.46150	0.02593
1762.53312	0.02286
1760.60475	0.01896
1758.67638	0.01523
1756.74800	0.01178
1754.81963	0.00877
1752.89126	0.00654
1750.96288	0.00461
1749.03451	0.00283
1747.10614	0.00177
1745.17777	0.00126
1743.24939	0.00072
1741.32102	0.00057
1739.39265	0.00075
1737.46427	0.00083
1735.53590	0.00099
1733.60753	0.00111
1731.67915	0.00103
1729.75078	0.00058
1727.82241	0.00023
1725.89403	0.00038
1723.96566	0.00052
1722.03729	0.00078
1720.10891	0.00097
1718.18054	0.00103
1716.25217	0.00090
1714.32379	0.00099
1712.39542	0.00103
1710.46705	0.00101
1708.53867	0.00108
1706.61030	0.00123
1704.68193	0.00113
1702.75355	0.00082
1700.82518	0.00080
1698.89681	0.00075
1696.96843	0.00070
1695.04006	0.00085
1693.11169	0.00060
1691.18331	0.00048
1689.25494	0.00040
1687.32657	0.00024
1685.39820	0.00088
1683.46982	0.00105
1681.54145	0.00036
1679.61308	0.00062
1677.68470	0.00071
1675.75633	0.00075
1673.82796	0.00092
1671.89958	0.00056
1669.97121	0.00035
1668.04284	0.00058
1666.11446	0.00059
1664.18609	0.00038
1662.25772	0.00030
1660.32934	0.00043
1658.40097	0.00028
1656.47260	0.00038
1654.54422	0.00063
1652.61585	0.00073
1650.68748	0.00082
1648.75910	0.00091
1646.83073	0.00088
1644.90236	0.00086
1642.97398	0.00065
1641.04561	0.00063
1639.11724	0.00089
1637.18886	0.00096
1635.26049	0.00059
1633.33212	0.00042
1631.40375	0.00032
1629.47537	0.00042
1627.54700	0.00054
1625.61863	0.00071
1623.69025	0.00071
1621.76188	0.00076
1619.83351	0.00067
1617.90513	0.00042
1615.97676	0.00042
1614.04839	0.00054
1612.12001	0.00080
1610.19164	0.00085
1608.26327	0.00052
1606.33489	0.00038
1604.40652	0.00061
1602.47815	0.00068
1600.54977	0.00058
1598.62140	0.00032
1596.69303	0.00063
1594.76465	0.00059
1592.83628	0.00049
1590.90791	0.00035
1588.97953	0.00050
1587.05116	0.00088
1585.12279	0.00120
1583.19441	0.00108
1581.26604	0.00071
1579.33767	0.00070
1577.40929	0.00060
1575.48092	0.00035
1573.55255	0.00062
1571.62418	0.00057
1569.69580	0.00056
1567.76743	0.00075
1565.83906	0.00064
1563.91068	0.00039
1561.98231	0.00020
1560.05394	0.00106
1558.12556	0.00176
1556.19719	0.00139
1554.26882	0.00077
1552.34044	0.00056
1550.41207	0.00062
1548.48370	0.00061
1546.55532	0.00077
1544.62695	0.00114
1542.69858	0.00144
1540.77020	0.00125
1538.84183	0.00071
1536.91346	0.00048
1534.98508	0.00036
1533.05671	0.00046
1531.12834	0.00070
1529.19996	0.00071
1527.27159	0.00044
1525.34322	0.00061
1523.41484	0.00074
1521.48647	0.00088
1519.55810	0.00106
1517.62972	0.00099
1515.70135	0.00089
1513.77298	0.00078
1511.84461	0.00092
1509.91623	0.00149
1507.98786	0.00194
1506.05949	0.00135
1504.13111	0.00040
1502.20274	0.00030
1500.27437	0.00033
1498.34599	0.00065
1496.41762	0.00059
1494.48925	0.00033
1492.56087	0.00044
1490.63250	0.00032
1488.70413	0.00025
1486.77575	0.00042
1484.84738	0.00082
1482.91901	0.00068
1480.99063	0.00030
1479.06226	0.00043
1477.13389	0.00075
1475.20551	0.00091
1473.27714	0.00059
1471.34877	0.00034
1469.42039	0.00051
1467.49202	0.00033
1465.56365	0.00039
1463.63527	0.00042
1461.70690	0.00031
1459.77853	0.00038
1457.85016	0.00078
1455.92178	0.00077
1453.99341	0.00059
1452.06504	0.00054
1450.13666	0.00049
1448.20829	0.00058
1446.27992	0.00049
1444.35154	0.00060
1442.42317	0.00049
1440.49480	0.00044
1438.56642	0.00052
1436.63805	0.00026
1434.70968	0.00030
1432.78130	0.00037
1430.85293	0.00071
1428.92456	0.00100
1426.99618	0.00079
1425.06781	0.00055
1423.13944	0.00073
1421.21106	0.00090
1419.28269	0.00070
1417.35432	0.00079
1415.42594	0.00096
1413.49757	0.00107
1411.56920	0.00105
1409.64082	0.00093
1407.71245	0.00098
1405.78408	0.00078
1403.85570	0.00035
1401.92733	0.00036
1399.99896	0.00047
1398.07059	0.00057
1396.14221	0.00055
1394.21384	0.00065
1392.28547	0.00083
1390.35709	0.00087
1388.42872	0.00094
1386.50035	0.00095
1384.57197	0.00092
1382.64360	0.00083
1380.71523	0.00086
1378.78685	0.00080
1376.85848	0.00081
1374.93011	0.00066
1373.00173	0.00061
1371.07336	0.00049
1369.14499	0.00060
1367.21661	0.00058
1365.28824	0.00047
1363.35987	0.00054
1361.43149	0.00072
1359.50312	0.00065
1357.57475	0.00060
1355.64637	0.00062
1353.71800	0.00063
1351.78963	0.00028
1349.86125	0.00059
1347.93288	0.00048
1346.00451	0.00057
1344.07614	0.00044
1342.14776	0.00016
1340.21939	0.00051
1338.29102	0.00059
1336.36264	0.00098
1334.43427	0.00136
1332.50590	0.00119
1330.57752	0.00088
1328.64915	0.00081
1326.72078	0.00070
1324.79240	0.00046
1322.86403	0.00049
1320.93566	0.00098
1319.00728	0.00098
1317.07891	0.00054
1315.15054	0.00017
1313.22216	0.00052
1311.29379	0.00086
1309.36542	0.00107
1307.43704	0.00113
1305.50867	0.00093
1303.58030	0.00106
1301.65192	0.00099
1299.72355	0.00068
1297.79518	0.00043
1295.86680	0.00049
1293.93843	0.00076
1292.01006	0.00050
1290.08168	0.00063
1288.15331	0.00064
1286.22494	0.00059
1284.29657	0.00128
1282.36819	0.00162
1280.43982	0.00150
1278.51145	0.00182
1276.58307	0.00200
1274.65470	0.00145
1272.72633	0.00065
1270.79795	0.00056
1268.86958	0.00127
1266.94121	0.00133
1265.01283	0.00102
1263.08446	0.00068
1261.15609	0.00060
1259.22771	0.00075
1257.29934	0.00095
1255.37097	0.00144
1253.44259	0.00167
1251.51422	0.00110
1249.58585	0.00063
1247.65747	0.00070
1245.72910	0.00098
1243.80073	0.00132
1241.87235	0.00163
1239.94398	0.00144
1238.01561	0.00138
1236.08723	0.00184
1234.15886	0.00184
1232.23049	0.00128
1230.30212	0.00085
1228.37374	0.00062
1226.44537	0.00099
1224.51700	0.00096
1222.58862	0.00063
1220.66025	0.00129
1218.73188	0.00139
1216.80350	0.00097
1214.87513	0.00168
1212.94676	0.00224
1211.01838	0.00286
1209.09001	0.00328
1207.16164	0.00275
1205.23326	0.00176
1203.30489	0.00130
1201.37652	0.00108
1199.44814	0.00116
1197.51977	0.00122
1195.59140	0.00093
1193.66302	0.00111
1191.73465	0.00136
1189.80628	0.00102
1187.87790	0.00150
1185.94953	0.00218
1184.02116	0.00230
1182.09278	0.00190
1180.16441	0.00098
1178.23604	0.00063
1176.30766	0.00088
1174.37929	0.00142
1172.45092	0.00177
1170.52255	0.00140
1168.59417	0.00105
1166.66580	0.00099
1164.73743	0.00118
1162.80905	0.00109
1160.88068	0.00100
1158.95231	0.00150
1157.02393	0.00212
1155.09556	0.00199
1153.16719	0.00114
1151.23881	0.00102
1149.31044	0.00148
1147.38207	0.00152
1145.45369	0.00129
1143.52532	0.00085
1141.59695	0.00075
1139.66857	0.00117
1137.74020	0.00113
1135.81183	0.00147
1133.88345	0.00175
1131.95508	0.00178
1130.02671	0.00169
1128.09833	0.00134
1126.16996	0.00115
1124.24159	0.00063
1122.31321	0.00027
1120.38484	0.00033
1118.45647	0.00060
1116.52809	0.00131
1114.59972	0.00132
1112.67135	0.00063
1110.74298	0.00050
1108.81460	0.00114
1106.88623	0.00112
1104.95786	0.00086
1103.02948	0.00091
1101.10111	0.00109
1099.17274	0.00139
1097.24436	0.00169
1095.31599	0.00168
1093.38762	0.00176
1091.45924	0.00207
1089.53087	0.00230
1087.60250	0.00255
1085.67412	0.00202
1083.74575	0.00110
1081.81738	0.00180
1079.88900	0.00218
1077.96063	0.00221
1076.03226	0.00164
1074.10388	0.00071
1072.17551	0.00188
1070.24714	0.00232
1068.31876	0.00185
1066.39039	0.00138
1064.46202	0.00147
1062.53364	0.00136
1060.60527	0.00148
1058.67690	0.00181
1056.74853	0.00159
1054.82015	0.00097
1052.89178	0.00099
1050.96341	0.00066
1049.03503	0.00090
1047.10666	0.00121
1045.17829	0.00129
1043.24991	0.00113
1041.32154	0.00084
1039.39317	0.00149
1037.46479	0.00179
1035.53642	0.00128
1033.60805	0.00115
1031.67967	0.00166
1029.75130	0.00197
1027.82293	0.00204
1025.89455	0.00176
1023.96618	0.00195
1022.03781	0.00179
1020.10943	0.00116
1018.18106	0.00137
1016.25269	0.00161
1014.32431	0.00138
1012.39594	0.00062
1010.46757	0.00071
1008.53919	0.00129
1006.61082	0.00173
1004.68245	0.00152
1002.75407	0.00154
1000.82570	0.00127
998.89733	0.00120
996.96896	0.00142
995.04058	0.00179
993.11221	0.00172
991.18384	0.00153
989.25546	0.00163
987.32709	0.00207
985.39872	0.00219
983.47034	0.00155
981.54197	0.00077
979.61360	0.00099
977.68522	0.00110
975.75685	0.00156
973.82848	0.00180
971.90010	0.00192
969.97173	0.00230
968.04336	0.00272
966.11498	0.00331
964.18661	0.00409
962.25824	0.00441
960.32986	0.00402
958.40149	0.00328
956.47312	0.00211
954.54474	0.00112
952.61637	0.00123
950.68800	0.00194
948.75962	0.00242
946.83125	0.00269
944.90288	0.00313
942.97451	0.00384
941.04613	0.00495
939.11776	0.00618
937.18939	0.00695
935.26101	0.00724
933.33264	0.00747
931.40427	0.00781
929.47589	0.00790
927.54752	0.00776
925.61915	0.00754
923.69077	0.00715
921.76240	0.00665
919.83403	0.00593
917.90565	0.00527
915.97728	0.00531
914.04891	0.00607
912.12053	0.00679
910.19216	0.00662
908.26379	0.00621
906.33541	0.00571
904.40704	0.00446
902.47867	0.00281
900.55029	0.00171
898.62192	0.00151
896.69355	0.00147
894.76517	0.00155
892.83680	0.00128
890.90843	0.00175
888.98005	0.00291
887.05168	0.00326
885.12331	0.00273
883.19494	0.00252
881.26656	0.00255
879.33819	0.00269
877.40982	0.00305
875.48144	0.00334
873.55307	0.00400
871.62470	0.00471
869.69632	0.00440
867.76795	0.00286
865.83958	0.00147
863.91120	0.00111
861.98283	0.00103
860.05446	0.00074
858.12608	0.00092
856.19771	0.00147
854.26934	0.00238
852.34096	0.00299
850.41259	0.00339
848.48422	0.00345
846.55584	0.00257
844.62747	0.00201
842.69910	0.00196
840.77072	0.00208
838.84235	0.00213
836.91398	0.00128
834.98560	0.00170
833.05723	0.00128
831.12886	0.00094
829.20049	0.00187
827.27211	0.00188
825.34374	0.00189
823.41537	0.00215
821.48699	0.00206
819.55862	0.00238
817.63025	0.00265
815.70187	0.00237
813.77350	0.00149
811.84513	0.00141
809.91675	0.00135
807.98838	0.00198
806.06001	0.00187
804.13163	0.00170
802.20326	0.00226
800.27489	0.00267
798.34651	0.00243
796.41814	0.00241
794.48977	0.00247
792.56139	0.00246
790.63302	0.00307
788.70465	0.00420
786.77627	0.00429
784.84790	0.00334
782.91953	0.00198
780.99115	0.00173
779.06278	0.00146
777.13441	0.00126
775.20603	0.00130
773.27766	0.00149
771.34929	0.00180
769.42092	0.00182
767.49254	0.00220
765.56417	0.00260
763.63580	0.00162
761.70742	0.00118
759.77905	0.00131
757.85068	0.00085
755.92230	0.00135
753.99393	0.00149
752.06556	0.00129
750.13718	0.00179
748.20881	0.00248
746.28044	0.00254
744.35206	0.00232
742.42369	0.00164
740.49532	0.00067
738.56694	0.00094
736.63857	0.00114
734.71020	0.00262
732.78182	0.00253
730.85345	0.00257
728.92508	0.00224
726.99670	0.00272
725.06833	0.00372
723.13996	0.00349
721.21158	0.00157
719.28321	0.00076
717.35484	0.00146
715.42647	0.00117
713.49809	0.00178
711.56972	0.00357
709.64135	0.00382
707.71297	0.00295
705.78460	0.00284
703.85623	0.00378
701.92785	0.00451
699.99948	0.00396
698.07111	0.00322
696.14273	0.00380
694.21436	0.00387
692.28599	0.00196
690.35761	0.00117
688.42924	0.00113
686.50087	0.00255
684.57249	0.00355
682.64412	0.00408
680.71575	0.00477
678.78737	0.00454
676.85900	0.00182
674.93063	0.00285
673.00225	0.00228
671.07388	0.00104
669.14551	0.00489
667.21713	0.00617
665.28876	0.00436
663.36039	0.00457
661.43201	0.00318
659.50364	0.00231
657.57527	0.00224
655.64690	0.00356
653.71852	0.00363
651.79015	0.00352
649.86178	0.00387
647.93340	0.00526
646.00503	0.00674
644.07666	0.00660
642.14828	0.00664
640.21991	0.00831
638.29154	0.00827
636.36316	0.00510
634.43479	0.00209
632.50642	0.00281
630.57804	0.00465
628.64967	0.00669
626.72130	0.00644
624.79292	0.00656
622.86455	0.00930
620.93618	0.01059
619.00780	0.01022
617.07943	0.00872
615.15106	0.00922
613.22268	0.00908
611.29431	0.00926
609.36594	0.00985
607.43756	0.00916
605.50919	0.00764
603.58082	0.00674
601.65244	0.01033
599.72407	0.01276
