3997.51769	0.61742
3995.58931	0.61722
3993.66094	0.61713
3991.73257	0.61730
3989.80419	0.61794
3987.87582	0.61892
3985.94745	0.61958
3984.01907	0.61964
3982.09070	0.61950
3980.16233	0.61951
3978.23396	0.61949
3976.30558	0.61926
3974.37721	0.61925
3972.44884	0.61985
3970.52046	0.62087
3968.59209	0.62240
3966.66372	0.62414
3964.73534	0.62489
3962.80697	0.62443
3960.87860	0.62452
3958.95022	0.62585
3957.02185	0.62742
3955.09348	0.62875
3953.16510	0.62888
3951.23673	0.62693
3949.30836	0.62507
3947.37998	0.62649
3945.45161	0.62841
3943.52324	0.62779
3941.59486	0.62930
3939.66649	0.63437
3937.73812	0.63778
3935.80974	0.63688
3933.88137	0.63240
3931.95300	0.62889
3930.02462	0.63118
3928.09625	0.63538
3926.16788	0.63537
3924.23950	0.63419
3922.31113	0.63606
3920.38276	0.63693
3918.45439	0.63544
3916.52601	0.63761
3914.59764	0.64509
3912.66927	0.65191
3910.74089	0.65473
3908.81252	0.65296
3906.88415	0.64415
3904.95577	0.63064
3903.02740	0.62237
3901.09903	0.62417
3899.17065	0.63369
3897.24228	0.64688
3895.31391	0.65401
3893.38553	0.65054
3891.45716	0.64683
3889.52879	0.65121
3887.60041	0.65256
3885.67204	0.64804
3883.74367	0.64655
3881.81529	0.64593
3879.88692	0.64911
3877.95855	0.65926
3876.03017	0.66175
3874.10180	0.65453
3872.17343	0.64722
3870.24505	0.64434
3868.31668	0.64926
3866.38831	0.65347
3864.45994	0.65190
3862.53156	0.65600
3860.60319	0.66628
3858.67482	0.66948
3856.74644	0.66030
3854.81807	0.64194
3852.88970	0.63328
3850.96132	0.65145
3849.03295	0.67179
3847.10458	0.67992
3845.17620	0.67578
3843.24783	0.66502
3841.31946	0.65334
3839.39108	0.64449
3837.46271	0.64541
3835.53434	0.65514
3833.60596	0.66384
3831.67759	0.67061
3829.74922	0.67587
3827.82084	0.67665
3825.89247	0.67459
3823.96410	0.66828
3822.03572	0.65450
3820.10735	0.64868
3818.17898	0.65604
3816.25060	0.66380
3814.32223	0.67634
3812.39386	0.68913
3810.46548	0.69088
3808.53711	0.68174
3806.60874	0.67235
3804.68037	0.66741
3802.75199	0.65854
3800.82362	0.65441
3798.89525	0.66241
3796.96687	0.67066
3795.03850	0.68041
3793.11013	0.69106
3791.18175	0.69572
3789.25338	0.69487
3787.32501	0.69062
3785.39663	0.68570
3783.46826	0.68409
3781.53989	0.68147
3779.61151	0.67694
3777.68314	0.68009
3775.75477	0.68775
3773.82639	0.68846
3771.89802	0.67982
3769.96965	0.66980
3768.04127	0.66725
3766.11290	0.66934
3764.18453	0.67248
3762.25615	0.67189
3760.32778	0.66334
3758.39941	0.65599
3756.47103	0.65555
3754.54266	0.65054
3752.61429	0.63420
3750.68591	0.61954
3748.75754	0.62216
3746.82917	0.62608
3744.90080	0.62477
3742.97242	0.63155
3741.04405	0.64014
3739.11568	0.63684
3737.18730	0.62088
3735.25893	0.60549
3733.33056	0.60996
3731.40218	0.62883
3729.47381	0.64171
3727.54544	0.64077
3725.61706	0.63310
3723.68869	0.62865
3721.76032	0.62920
3719.83194	0.63267
3717.90357	0.63579
3715.97520	0.63335
3714.04682	0.62081
3712.11845	0.60230
3710.19008	0.59619
3708.26170	0.60663
3706.33333	0.61587
3704.40496	0.61367
3702.47658	0.60398
3700.54821	0.59870
3698.61984	0.59881
3696.69146	0.59554
3694.76309	0.58575
3692.83472	0.56843
3690.90635	0.54540
3688.97797	0.53007
3687.04960	0.53103
3685.12123	0.53406
3683.19285	0.52852
3681.26448	0.51362
3679.33611	0.49224
3677.40773	0.46625
3675.47936	0.44107
3673.55099	0.42903
3671.62261	0.42003
3669.69424	0.40550
3667.76587	0.39667
3665.83749	0.39144
3663.90912	0.38010
3661.98075	0.36334
3660.05237	0.34457
3658.12400	0.32433
3656.19563	0.30322
3654.26725	0.28461
3652.33888	0.26536
3650.41051	0.24023
3648.48213	0.21800
3646.55376	0.20888
3644.62539	0.20385
3642.69701	0.19512
3640.76864	0.18283
3638.84027	0.16985
3636.91189	0.15735
3634.98352	0.14511
3633.05515	0.13331
3631.12678	0.12167
3629.19840	0.10896
3627.27003	0.09891
3625.34166	0.09317
3623.41328	0.08706
3621.48491	0.07924
3619.55654	0.07076
3617.62816	0.06371
3615.69979	0.05859
3613.77142	0.05376
3611.84304	0.04900
3609.91467	0.04464
3607.98630	0.04062
3606.05792	0.03712
3604.12955	0.03401
3602.20118	0.03070
3600.27280	0.02747
3598.34443	0.02468
3596.41606	0.02208
3594.48768	0.01967
3592.55931	0.01776
3590.63094	0.01627
3588.70256	0.01448
3586.77419	0.01243
3584.84582	0.01087
3582.91744	0.00978
3580.98907	0.00888
3579.06070	0.00797
3577.13233	0.00706
3575.20395	0.00626
3573.27558	0.00568
3571.34721	0.00503
3569.41883	0.00406
3567.49046	0.00306
3565.56209	0.00237
3563.63371	0.00210
3561.70534	0.00200
3559.77697	0.00190
3557.84859	0.00159
3555.92022	0.00122
3553.99185	0.00112
3552.06347	0.00097
3550.13510	0.00076
3548.20673	0.00057
3546.27835	0.00047
3544.34998	0.00058
3542.42161	0.00063
3540.49323	0.00061
3538.56486	0.00050
3536.63649	0.00033
3534.70811	0.00035
3532.77974	0.00040
3530.85137	0.00052
3528.92299	0.00052
3526.99462	0.00056
3525.06625	0.00056
3523.13787	0.00038
3521.20950	0.00020
3519.28113	0.00037
3517.35276	0.00047
3515.42438	0.00076
3513.49601	0.00090
3511.56764	0.00090
3509.63926	0.00098
3507.71089	0.00102
3505.78252	0.00090
3503.85414	0.00089
3501.92577	0.00108
3499.99740	0.00117
3498.06902	0.00106
3496.14065	0.00080
3494.21228	0.00068
3492.28390	0.00071
3490.35553	0.00071
3488.42716	0.00087
3486.49878	0.00086
3484.57041	0.00076
3482.64204	0.00068
3480.71366	0.00065
3478.78529	0.00062
3476.85692	0.00057
3474.92854	0.00050
3473.00017	0.00044
3471.07180	0.00054
3469.14342	0.00072
3467.21505	0.00093
3465.28668	0.00088
3463.35831	0.00070
3461.42993	0.00055
3459.50156	0.00046
3457.57319	0.00050
3455.64481	0.00056
3453.71644	0.00066
3451.78807	0.00080
3449.85969	0.00089
3447.93132	0.00096
3446.00295	0.00094
3444.07457	0.00066
3442.14620	0.00041
3440.21783	0.00051
3438.28945	0.00064
3436.36108	0.00057
3434.43271	0.00044
3432.50433	0.00051
3430.57596	0.00060
3428.64759	0.00080
3426.71921	0.00102
3424.79084	0.00102
3422.86247	0.00089
3420.93409	0.00084
3419.00572	0.00083
3417.07735	0.00071
3415.14897	0.00076
3413.22060	0.00102
3411.29223	0.00122
3409.36385	0.00109
3407.43548	0.00067
3405.50711	0.00045
3403.57874	0.00041
3401.65036	0.00034
3399.72199	0.00019
3397.79362	0.00028
3395.86524	0.00060
3393.93687	0.00071
3392.00850	0.00084
3390.08012	0.00081
3388.15175	0.00058
3386.22338	0.00037
3384.29500	0.00036
3382.36663	0.00042
3380.43826	0.00030
3378.50988	0.00016
3376.58151	0.00032
3374.65314	0.00036
3372.72476	0.00042
3370.79639	0.00052
3368.86802	0.00055
3366.93964	0.00067
3365.01127	0.00077
3363.08290	0.00075
3361.15452	0.00065
3359.22615	0.00057
3357.29778	0.00052
3355.36940	0.00051
3353.44103	0.00046
3351.51266	0.00036
3349.58428	0.00042
3347.65591	0.00060
3345.72754	0.00102
3343.79917	0.00127
3341.87079	0.00107
3339.94242	0.00072
3338.01405	0.00048
3336.08567	0.00062
3334.15730	0.00080
3332.22893	0.00071
3330.30055	0.00048
3328.37218	0.00040
3326.44381	0.00050
3324.51543	0.00066
3322.58706	0.00068
3320.65869	0.00060
3318.73031	0.00060
3316.80194	0.00070
3314.87357	0.00079
3312.94519	0.00068
3311.01682	0.00054
3309.08845	0.00050
3307.16007	0.00047
3305.23170	0.00052
3303.30333	0.00061
3301.37495	0.00060
3299.44658	0.00064
3297.51821	0.00065
3295.58983	0.00069
3293.66146	0.00077
3291.73309	0.00077
3289.80472	0.00073
3287.87634	0.00074
3285.94797	0.00077
3284.01960	0.00085
3282.09122	0.00092
3280.16285	0.00087
3278.23448	0.00067
3276.30610	0.00062
3274.37773	0.00063
3272.44936	0.00042
3270.52098	0.00044
3268.59261	0.00057
3266.66424	0.00071
3264.73586	0.00087
3262.80749	0.00090
3260.87912	0.00071
3258.95074	0.00050
3257.02237	0.00047
3255.09400	0.00067
3253.16562	0.00088
3251.23725	0.00085
3249.30888	0.00053
3247.38050	0.00035
3245.45213	0.00047
3243.52376	0.00076
3241.59538	0.00093
3239.66701	0.00091
3237.73864	0.00083
3235.81026	0.00070
3233.88189	0.00056
3231.95352	0.00059
3230.02515	0.00067
3228.09677	0.00058
3226.16840	0.00048
3224.24003	0.00046
3222.31165	0.00048
3220.38328	0.00046
3218.45491	0.00057
3216.52653	0.00074
3214.59816	0.00081
3212.66979	0.00063
3210.74141	0.00049
3208.81304	0.00047
3206.88467	0.00051
3204.95629	0.00072
3203.02792	0.00093
3201.09955	0.00092
3199.17117	0.00083
3197.24280	0.00082
3195.31443	0.00081
3193.38605	0.00086
3191.45768	0.00089
3189.52931	0.00085
3187.60093	0.00083
3185.67256	0.00087
3183.74419	0.00077
3181.81581	0.00061
3179.88744	0.00063
3177.95907	0.00076
3176.03070	0.00078
3174.10232	0.00065
3172.17395	0.00055
3170.24558	0.00058
3168.31720	0.00057
3166.38883	0.00059
3164.46046	0.00071
3162.53208	0.00085
3160.60371	0.00106
3158.67534	0.00108
3156.74696	0.00084
3154.81859	0.00069
3152.89022	0.00075
3150.96184	0.00082
3149.03347	0.00075
3147.10510	0.00060
3145.17672	0.00080
3143.24835	0.00091
3141.31998	0.00067
3139.39160	0.00060
3137.46323	0.00066
3135.53486	0.00051
3133.60648	0.00039
3131.67811	0.00045
3129.74974	0.00052
3127.82136	0.00047
3125.89299	0.00055
3123.96462	0.00070
3122.03624	0.00074
3120.10787	0.00063
3118.17950	0.00051
3116.25113	0.00057
3114.32275	0.00063
3112.39438	0.00063
3110.46601	0.00067
3108.53763	0.00064
3106.60926	0.00064
3104.68089	0.00065
3102.75251	0.00073
3100.82414	0.00088
3098.89577	0.00093
3096.96739	0.00087
3095.03902	0.00069
3093.11065	0.00053
3091.18227	0.00050
3089.25390	0.00052
3087.32553	0.00059
3085.39715	0.00060
3083.46878	0.00088
3081.54041	0.00094
3079.61203	0.00073
3077.68366	0.00058
3075.75529	0.00064
3073.82691	0.00081
3071.89854	0.00085
3069.97017	0.00075
3068.04179	0.00061
3066.11342	0.00059
3064.18505	0.00045
3062.25668	0.00050
3060.32830	0.00046
3058.39993	0.00044
3056.47156	0.00054
3054.54318	0.00060
3052.61481	0.00054
3050.68644	0.00062
3048.75806	0.00086
3046.82969	0.00093
3044.90132	0.00076
3042.97294	0.00067
3041.04457	0.00068
3039.11620	0.00063
3037.18782	0.00052
3035.25945	0.00037
3033.33108	0.00033
3031.40270	0.00055
3029.47433	0.00053
3027.54596	0.00038
3025.61758	0.00045
3023.68921	0.00067
3021.76084	0.00081
3019.83246	0.00076
3017.90409	0.00062
3015.97572	0.00050
3014.04734	0.00055
3012.11897	0.00063
3010.19060	0.00075
3008.26222	0.00082
3006.33385	0.00084
3004.40548	0.00080
3002.47711	0.00068
3000.54873	0.00064
2998.62036	0.00068
2996.69199	0.00072
2994.76361	0.00065
2992.83524	0.00054
2990.90687	0.00059
2988.97849	0.00076
2987.05012	0.00072
2985.12175	0.00072
2983.19337	0.00092
2981.26500	0.00112
2979.33663	0.00113
2977.40825	0.00088
2975.47988	0.00067
2973.55151	0.00059
2971.62313	0.00069
2969.69476	0.00083
2967.76639	0.00084
2965.83801	0.00090
2963.90964	0.00112
2961.98127	0.00114
2960.05289	0.00080
2958.12452	0.00058
2956.19615	0.00081
2954.26777	0.00104
2952.33940	0.00117
2950.41103	0.00135
2948.48266	0.00151
2946.55428	0.00145
2944.62591	0.00128
2942.69754	0.00128
2940.76916	0.00127
2938.84079	0.00109
2936.91242	0.00087
2934.98404	0.00107
2933.05567	0.00127
2931.12730	0.00136
2929.19892	0.00127
2927.27055	0.00104
2925.34218	0.00092
2923.41380	0.00085
2921.48543	0.00072
2919.55706	0.00059
2917.62868	0.00061
2915.70031	0.00074
2913.77194	0.00084
2911.84356	0.00085
2909.91519	0.00083
2907.98682	0.00075
2906.05844	0.00076
2904.13007	0.00092
2902.20170	0.00094
2900.27332	0.00075
2898.34495	0.00067
2896.41658	0.00077
2894.48820	0.00076
2892.55983	0.00071
2890.63146	0.00062
2888.70309	0.00057
2886.77471	0.00067
2884.84634	0.00081
2882.91797	0.00079
2880.98959	0.00067
2879.06122	0.00068
2877.13285	0.00091
2875.20447	0.00105
2873.27610	0.00097
2871.34773	0.00079
2869.41935	0.00065
2867.49098	0.00043
2865.56261	0.00035
2863.63423	0.00042
2861.70586	0.00060
2859.77749	0.00079
2857.84911	0.00085
2855.92074	0.00074
2853.99237	0.00059
2852.06399	0.00065
2850.13562	0.00087
2848.20725	0.00107
2846.27887	0.00114
2844.35050	0.00098
2842.42213	0.00078
2840.49375	0.00071
2838.56538	0.00076
2836.63701	0.00087
2834.70863	0.00089
2832.78026	0.00083
2830.85189	0.00077
2828.92352	0.00074
2826.99514	0.00063
2825.06677	0.00055
2823.13840	0.00055
2821.21002	0.00063
2819.28165	0.00075
2817.35328	0.00086
2815.42490	0.00092
2813.49653	0.00086
2811.56816	0.00069
2809.63978	0.00060
2807.71141	0.00057
2805.78304	0.00049
2803.85466	0.00041
2801.92629	0.00037
2799.99792	0.00047
2798.06954	0.00069
2796.14117	0.00078
2794.21280	0.00059
2792.28442	0.00043
2790.35605	0.00050
2788.42768	0.00058
2786.49930	0.00053
2784.57093	0.00044
2782.64256	0.00035
2780.71418	0.00050
2778.78581	0.00067
2776.85744	0.00062
2774.92907	0.00050
2773.00069	0.00058
2771.07232	0.00080
2769.14395	0.00086
2767.21557	0.00074
2765.28720	0.00061
2763.35883	0.00054
2761.43045	0.00052
2759.50208	0.00055
2757.57371	0.00060
2755.64533	0.00056
2753.71696	0.00038
2751.78859	0.00032
2749.86021	0.00041
2747.93184	0.00037
2746.00347	0.00034
2744.07509	0.00034
2742.14672	0.00040
2740.21835	0.00046
2738.28997	0.00034
2736.36160	0.00023
2734.43323	0.00016
2732.50485	0.00022
2730.57648	0.00034
2728.64811	0.00039
2726.71973	0.00041
2724.79136	0.00038
2722.86299	0.00040
2720.93461	0.00035
2719.00624	0.00026
2717.07787	0.00018
2715.14950	0.00016
2713.22112	0.00017
2711.29275	0.00031
2709.36438	0.00033
2707.43600	0.00022
2705.50763	0.00022
2703.57926	0.00030
2701.65088	0.00037
2699.72251	0.00032
2697.79414	0.00020
2695.86576	0.00016
2693.93739	0.00031
2692.00902	0.00044
2690.08064	0.00039
2688.15227	0.00033
2686.22390	0.00032
2684.29552	0.00015
2682.36715	0.00032
2680.43878	0.00048
2678.51040	0.00043
2676.58203	0.00045
2674.65366	0.00049
2672.72528	0.00040
2670.79691	0.00034
2668.86854	0.00045
2666.94016	0.00062
2665.01179	0.00069
2663.08342	0.00061
2661.15505	0.00051
2659.22667	0.00052
2657.29830	0.00059
2655.36993	0.00065
2653.44155	0.00073
2651.51318	0.00086
2649.58481	0.00093
2647.65643	0.00092
2645.72806	0.00095
2643.79969	0.00104
2641.87131	0.00109
2639.94294	0.00102
2638.01457	0.00095
2636.08619	0.00101
2634.15782	0.00113
2632.22945	0.00121
2630.30107	0.00133
2628.37270	0.00154
2626.44433	0.00174
2624.51595	0.00185
2622.58758	0.00191
2620.65921	0.00197
2618.73083	0.00209
2616.80246	0.00221
2614.87409	0.00227
2612.94571	0.00230
2611.01734	0.00241
2609.08897	0.00261
2607.16059	0.00277
2605.23222	0.00292
2603.30385	0.00318
2601.37548	0.00343
2599.44710	0.00356
2597.51873	0.00367
2595.59036	0.00382
2593.66198	0.00402
2591.73361	0.00417
2589.80524	0.00430
2587.87686	0.00449
2585.94849	0.00466
2584.02012	0.00480
2582.09174	0.00507
2580.16337	0.00544
2578.23500	0.00571
2576.30662	0.00583
2574.37825	0.00595
2572.44988	0.00616
2570.52150	0.00642
2568.59313	0.00670
2566.66476	0.00695
2564.73638	0.00714
2562.80801	0.00735
2560.87964	0.00760
2558.95126	0.00789
2557.02289	0.00825
2555.09452	0.00868
2553.16614	0.00907
2551.23777	0.00930
2549.30940	0.00940
2547.38103	0.00959
2545.45265	0.00991
2543.52428	0.01023
2541.59591	0.01052
2539.66753	0.01086
2537.73916	0.01120
2535.81079	0.01144
2533.88241	0.01168
2531.95404	0.01198
2530.02567	0.01225
2528.09729	0.01244
2526.16892	0.01268
2524.24055	0.01304
2522.31217	0.01346
2520.38380	0.01390
2518.45543	0.01431
2516.52705	0.01473
2514.59868	0.01513
2512.67031	0.01547
2510.74193	0.01586
2508.81356	0.01633
2506.88519	0.01679
2504.95681	0.01716
2503.02844	0.01741
2501.10007	0.01760
2499.17169	0.01786
2497.24332	0.01826
2495.31495	0.01879
2493.38657	0.01935
2491.45820	0.01988
2489.52983	0.02043
2487.60146	0.02100
2485.67308	0.02154
2483.74471	0.02205
2481.81634	0.02250
2479.88796	0.02289
2477.95959	0.02331
2476.03122	0.02385
2474.10284	0.02440
2472.17447	0.02492
2470.24610	0.02547
2468.31772	0.02611
2466.38935	0.02682
2464.46098	0.02756
2462.53260	0.02832
2460.60423	0.02913
2458.67586	0.02995
2456.74748	0.03069
2454.81911	0.03138
2452.89074	0.03220
2450.96236	0.03313
2449.03399	0.03402
2447.10562	0.03483
2445.17724	0.03560
2443.24887	0.03639
2441.32050	0.03730
2439.39212	0.03829
2437.46375	0.03917
2435.53538	0.03993
2433.60700	0.04075
2431.67863	0.04166
2429.75026	0.04254
2427.82189	0.04340
2425.89351	0.04431
2423.96514	0.04518
2422.03677	0.04600
2420.10839	0.04694
2418.18002	0.04800
2416.25165	0.04906
2414.32327	0.05002
2412.39490	0.05096
2410.46653	0.05197
2408.53815	0.05306
2406.60978	0.05419
2404.68141	0.05532
2402.75303	0.05647
2400.82466	0.05763
2398.89629	0.05882
2396.96791	0.06002
2395.03954	0.06122
2393.11117	0.06258
2391.18279	0.06405
2389.25442	0.06539
2387.32605	0.06648
2385.39767	0.06750
2383.46930	0.06857
2381.54093	0.06951
2379.61255	0.07022
2377.68418	0.07090
2375.75581	0.07173
2373.82744	0.07268
2371.89906	0.07364
2369.97069	0.07439
2368.04232	0.07499
2366.11394	0.07574
2364.18557	0.07651
2362.25720	0.07711
2360.32882	0.07779
2358.40045	0.07875
2356.47208	0.08056
2354.54370	0.08328
2352.61533	0.08584
2350.68696	0.08752
2348.75858	0.08836
2346.83021	0.08878
2344.90184	0.08935
2342.97346	0.09047
2341.04509	0.09174
2339.11672	0.09283
2337.18834	0.09369
2335.25997	0.09426
2333.33160	0.09496
2331.40322	0.09640
2329.47485	0.09826
2327.54648	0.09966
2325.61810	0.10042
2323.68973	0.10122
2321.76136	0.10253
2319.83298	0.10409
2317.90461	0.10567
2315.97624	0.10741
2314.04787	0.10937
2312.11949	0.11140
2310.19112	0.11334
2308.26275	0.11509
2306.33437	0.11675
2304.40600	0.11858
2302.47763	0.12058
2300.54925	0.12253
2298.62088	0.12431
2296.69251	0.12605
2294.76413	0.12783
2292.83576	0.12963
2290.90739	0.13136
2288.97901	0.13301
2287.05064	0.13465
2285.12227	0.13623
2283.19389	0.13767
2281.26552	0.13900
2279.33715	0.14033
2277.40877	0.14168
2275.48040	0.14305
2273.55203	0.14434
2271.62365	0.14551
2269.69528	0.14669
2267.76691	0.14793
2265.83853	0.14926
2263.91016	0.15059
2261.98179	0.15179
2260.05342	0.15290
2258.12504	0.15409
2256.19667	0.15543
2254.26830	0.15686
2252.33992	0.15819
2250.41155	0.15940
2248.48318	0.16066
2246.55480	0.16203
2244.62643	0.16330
2242.69806	0.16448
2240.76968	0.16570
2238.84131	0.16696
2236.91294	0.16814
2234.98456	0.16914
2233.05619	0.17001
2231.12782	0.17092
2229.19944	0.17191
2227.27107	0.17291
2225.34270	0.17388
2223.41432	0.17489
2221.48595	0.17587
2219.55758	0.17678
2217.62920	0.17770
2215.70083	0.17865
2213.77246	0.17961
2211.84408	0.18057
2209.91571	0.18154
2207.98734	0.18247
2206.05896	0.18338
2204.13059	0.18428
2202.20222	0.18515
2200.27385	0.18598
2198.34547	0.18685
2196.41710	0.18774
2194.48873	0.18851
2192.56035	0.18914
2190.63198	0.18974
2188.70361	0.19038
2186.77523	0.19104
2184.84686	0.19174
2182.91849	0.19243
2180.99011	0.19309
2179.06174	0.19371
2177.13337	0.19426
2175.20499	0.19467
2173.27662	0.19487
2171.34825	0.19501
2169.41987	0.19527
2167.49150	0.19550
2165.56313	0.19562
2163.63475	0.19582
2161.70638	0.19618
2159.77801	0.19658
2157.84963	0.19692
2155.92126	0.19726
2153.99289	0.19770
2152.06451	0.19822
2150.13614	0.19880
2148.20777	0.19933
2146.27940	0.19984
2144.35102	0.20048
2142.42265	0.20115
2140.49428	0.20169
2138.56590	0.20223
2136.63753	0.20288
2134.70916	0.20364
2132.78078	0.20442
2130.85241	0.20522
2128.92404	0.20607
2126.99566	0.20700
2125.06729	0.20802
2123.13892	0.20912
2121.21054	0.21023
2119.28217	0.21136
2117.35380	0.21244
2115.42542	0.21348
2113.49705	0.21454
2111.56868	0.21560
2109.64030	0.21658
2107.71193	0.21747
2105.78356	0.21826
2103.85518	0.21900
2101.92681	0.21976
2099.99844	0.22052
2098.07006	0.22117
2096.14169	0.22167
2094.21332	0.22206
2092.28494	0.22239
2090.35657	0.22267
2088.42820	0.22301
2086.49983	0.22339
2084.57145	0.22361
2082.64308	0.22359
2080.71471	0.22343
2078.78633	0.22329
2076.85796	0.22316
2074.92959	0.22291
2073.00121	0.22260
2071.07284	0.22236
2069.14447	0.22207
2067.21609	0.22154
2065.28772	0.22100
2063.35935	0.22086
2061.43097	0.22099
2059.50260	0.22118
2057.57423	0.22155
2055.64585	0.22196
2053.71748	0.22225
2051.78911	0.22257
2049.86073	0.22312
2047.93236	0.22382
2046.00399	0.22448
2044.07561	0.22508
2042.14724	0.22570
2040.21887	0.22650
2038.29049	0.22735
2036.36212	0.22801
2034.43375	0.22850
2032.50538	0.22889
2030.57700	0.22924
2028.64863	0.22959
2026.72026	0.22983
2024.79188	0.22983
2022.86351	0.22974
2020.93514	0.22959
2019.00676	0.22921
2017.07839	0.22897
2015.15002	0.22937
2013.22164	0.23009
2011.29327	0.23065
2009.36490	0.23104
2007.43652	0.23147
2005.50815	0.23201
2003.57978	0.23252
2001.65140	0.23293
1999.72303	0.23338
1997.79466	0.23397
1995.86628	0.23425
1993.93791	0.23374
1992.00954	0.23329
1990.08116	0.23393
1988.15279	0.23515
1986.22442	0.23617
1984.29604	0.23685
1982.36767	0.23727
1980.43930	0.23768
1978.51092	0.23811
1976.58255	0.23848
1974.65418	0.23881
1972.72581	0.23908
1970.79743	0.23906
1968.86906	0.23851
1966.94069	0.23824
1965.01231	0.23914
1963.08394	0.24040
1961.15557	0.24116
1959.22719	0.24159
1957.29882	0.24182
1955.37045	0.24204
1953.44207	0.24252
1951.51370	0.24313
1949.58533	0.24351
1947.65695	0.24339
1945.72858	0.24244
1943.80021	0.24107
1941.87183	0.24118
1939.94346	0.24314
1938.01509	0.24478
1936.08671	0.24519
1934.15834	0.24507
1932.22997	0.24498
1930.30159	0.24514
1928.37322	0.24530
1926.44485	0.24470
1924.51647	0.24307
1922.58810	0.24187
1920.65973	0.24159
1918.73135	0.24133
1916.80298	0.24219
1914.87461	0.24411
1912.94624	0.24470
1911.01786	0.24376
1909.08949	0.24307
1907.16112	0.24359
1905.23274	0.24444
1903.30437	0.24483
1901.37600	0.24479
1899.44762	0.24429
1897.51925	0.24313
1895.59088	0.24190
1893.66250	0.24121
1891.73413	0.23987
1889.80576	0.23806
1887.87738	0.23789
1885.94901	0.23852
1884.02064	0.23821
1882.09226	0.23733
1880.16389	0.23630
1878.23552	0.23510
1876.30714	0.23386
1874.37877	0.23235
1872.45040	0.22939
1870.52202	0.22409
1868.59365	0.21952
1866.66528	0.21973
1864.73690	0.22202
1862.80853	0.22244
1860.88016	0.22111
1858.95179	0.21958
1857.02341	0.21839
1855.09504	0.21716
1853.16667	0.21568
1851.23829	0.21380
1849.30992	0.21117
1847.38155	0.20760
1845.45317	0.20364
1843.52480	0.20223
1841.59643	0.20406
1839.66805	0.20518
1837.73968	0.20429
1835.81131	0.20296
1833.88293	0.20111
1831.95456	0.19716
1830.02619	0.19266
1828.09781	0.19072
1826.16944	0.18987
1824.24107	0.18889
1822.31269	0.18845
1820.38432	0.18711
1818.45595	0.18416
1816.52757	0.18066
1814.59920	0.17666
1812.67083	0.17155
1810.74245	0.16616
1808.81408	0.16198
1806.88571	0.15821
1804.95733	0.15329
1803.02896	0.14676
1801.10059	0.13958
1799.17222	0.13346
1797.24384	0.12822
1795.31547	0.12217
1793.38710	0.11472
1791.45872	0.10805
1789.53035	0.10399
1787.60198	0.10014
1785.67360	0.09484
1783.74523	0.08903
1781.81686	0.08353
1779.88848	0.07848
1777.96011	0.07391
1776.03174	0.06898
1774.10336	0.06286
1772.17499	0.05645
1770.24662	0.05173
1768.31824	0.04809
1766.38987	0.04391
1764.46150	0.03910
1762.53312	0.03339
1760.60475	0.02744
1758.67638	0.02226
1756.74800	0.01727
1754.81963	0.01270
1752.89126	0.00888
1750.96288	0.00548
1749.03451	0.00282
1747.10614	0.00120
1745.17777	0.00035
1743.24939	0.00036
1741.32102	0.00057
1739.39265	0.00072
1737.46427	0.00078
1735.53590	0.00080
1733.60753	0.00071
1731.67915	0.00057
1729.75078	0.00047
1727.82241	0.00041
1725.89403	0.00045
1723.96566	0.00052
1722.03729	0.00047
1720.10891	0.00032
1718.18054	0.00028
1716.25217	0.00044
1714.32379	0.00059
1712.39542	0.00067
1710.46705	0.00063
1708.53867	0.00052
1706.61030	0.00042
1704.68193	0.00041
1702.75355	0.00051
1700.82518	0.00064
1698.89681	0.00073
1696.96843	0.00077
1695.04006	0.00084
1693.11169	0.00073
1691.18331	0.00065
1689.25494	0.00063
1687.32657	0.00072
1685.39820	0.00090
1683.46982	0.00090
1681.54145	0.00073
1679.61308	0.00059
1677.68470	0.00053
1675.75633	0.00056
1673.82796	0.00066
1671.89958	0.00079
1669.97121	0.00083
1668.04284	0.00065
1666.11446	0.00042
1664.18609	0.00033
1662.25772	0.00034
1660.32934	0.00041
1658.40097	0.00046
1656.47260	0.00047
1654.54422	0.00056
1652.61585	0.00067
1650.68748	0.00056
1648.75910	0.00053
1646.83073	0.00059
1644.90236	0.00059
1642.97398	0.00046
1641.04561	0.00047
1639.11724	0.00056
1637.18886	0.00072
1635.26049	0.00076
1633.33212	0.00071
1631.40375	0.00070
1629.47537	0.00067
1627.54700	0.00055
1625.61863	0.00046
1623.69025	0.00052
1621.76188	0.00054
1619.83351	0.00056
1617.90513	0.00076
1615.97676	0.00089
1614.04839	0.00069
1612.12001	0.00051
1610.19164	0.00057
1608.26327	0.00070
1606.33489	0.00070
1604.40652	0.00059
1602.47815	0.00056
1600.54977	0.00059
1598.62140	0.00057
1596.69303	0.00055
1594.76465	0.00059
1592.83628	0.00057
1590.90791	0.00050
1588.97953	0.00050
1587.05116	0.00038
1585.12279	0.00022
1583.19441	0.00024
1581.26604	0.00036
1579.33767	0.00049
1577.40929	0.00065
1575.48092	0.00070
1573.55255	0.00063
1571.62418	0.00061
1569.69580	0.00052
1567.76743	0.00047
1565.83906	0.00060
1563.91068	0.00070
1561.98231	0.00092
1560.05394	0.00137
1558.12556	0.00144
1556.19719	0.00098
1554.26882	0.00061
1552.34044	0.00039
1550.41207	0.00033
1548.48370	0.00041
1546.55532	0.00059
1544.62695	0.00076
1542.69858	0.00093
1540.77020	0.00106
1538.84183	0.00094
1536.91346	0.00069
1534.98508	0.00053
1533.05671	0.00047
1531.12834	0.00051
1529.19996	0.00057
1527.27159	0.00060
1525.34322	0.00054
1523.41484	0.00045
1521.48647	0.00037
1519.55810	0.00045
1517.62972	0.00055
1515.70135	0.00061
1513.77298	0.00075
1511.84461	0.00086
1509.91623	0.00101
1507.98786	0.00117
1506.05949	0.00100
1504.13111	0.00064
1502.20274	0.00051
1500.27437	0.00057
1498.34599	0.00065
1496.41762	0.00057
1494.48925	0.00046
1492.56087	0.00051
1490.63250	0.00060
1488.70413	0.00065
1486.77575	0.00064
1484.84738	0.00061
1482.91901	0.00061
1480.99063	0.00063
1479.06226	0.00067
1477.13389	0.00075
1475.20551	0.00082
1473.27714	0.00086
1471.34877	0.00092
1469.42039	0.00089
1467.49202	0.00070
1465.56365	0.00051
1463.63527	0.00056
1461.70690	0.00067
1459.77853	0.00080
1457.85016	0.00086
1455.92178	0.00073
1453.99341	0.00055
1452.06504	0.00050
1450.13666	0.00054
1448.20829	0.00060
1446.27992	0.00061
1444.35154	0.00061
1442.42317	0.00064
1440.49480	0.00063
1438.56642	0.00058
1436.63805	0.00057
1434.70968	0.00060
1432.78130	0.00064
1430.85293	0.00063
1428.92456	0.00058
1426.99618	0.00051
1425.06781	0.00056
1423.13944	0.00087
1421.21106	0.00110
1419.28269	0.00104
1417.35432	0.00089
1415.42594	0.00076
1413.49757	0.00069
1411.56920	0.00074
1409.64082	0.00085
1407.71245	0.00088
1405.78408	0.00084
1403.85570	0.00081
1401.92733	0.00082
1399.99896	0.00086
1398.07059	0.00085
1396.14221	0.00084
1394.21384	0.00091
1392.28547	0.00103
1390.35709	0.00103
1388.42872	0.00094
1386.50035	0.00085
1384.57197	0.00081
1382.64360	0.00083
1380.71523	0.00086
1378.78685	0.00087
1376.85848	0.00084
1374.93011	0.00092
1373.00173	0.00100
1371.07336	0.00095
1369.14499	0.00085
1367.21661	0.00079
1365.28824	0.00079
1363.35987	0.00089
1361.43149	0.00096
1359.50312	0.00087
1357.57475	0.00077
1355.64637	0.00075
1353.71800	0.00069
1351.78963	0.00063
1349.86125	0.00067
1347.93288	0.00074
1346.00451	0.00077
1344.07614	0.00087
1342.14776	0.00105
1340.21939	0.00108
1338.29102	0.00092
1336.36264	0.00076
1334.43427	0.00071
1332.50590	0.00089
1330.57752	0.00107
1328.64915	0.00108
1326.72078	0.00095
1324.79240	0.00089
1322.86403	0.00092
1320.93566	0.00086
1319.00728	0.00076
1317.07891	0.00078
1315.15054	0.00089
1313.22216	0.00095
1311.29379	0.00095
1309.36542	0.00098
1307.43704	0.00103
1305.50867	0.00107
1303.58030	0.00102
1301.65192	0.00090
1299.72355	0.00084
1297.79518	0.00100
1295.86680	0.00122
1293.93843	0.00129
1292.01006	0.00124
1290.08168	0.00114
1288.15331	0.00093
1286.22494	0.00079
1284.29657	0.00084
1282.36819	0.00089
1280.43982	0.00088
1278.51145	0.00098
1276.58307	0.00124
1274.65470	0.00146
1272.72633	0.00152
1270.79795	0.00152
1268.86958	0.00158
1266.94121	0.00163
1265.01283	0.00158
1263.08446	0.00146
1261.15609	0.00138
1259.22771	0.00132
1257.29934	0.00115
1255.37097	0.00110
1253.44259	0.00121
1251.51422	0.00114
1249.58585	0.00096
1247.65747	0.00084
1245.72910	0.00079
1243.80073	0.00091
1241.87235	0.00119
1239.94398	0.00143
1238.01561	0.00141
1236.08723	0.00141
1234.15886	0.00148
1232.23049	0.00162
1230.30212	0.00179
1228.37374	0.00172
1226.44537	0.00145
1224.51700	0.00142
1222.58862	0.00169
1220.66025	0.00199
1218.73188	0.00205
1216.80350	0.00201
1214.87513	0.00204
1212.94676	0.00219
1211.01838	0.00235
1209.09001	0.00240
1207.16164	0.00229
1205.23326	0.00215
1203.30489	0.00210
1201.37652	0.00200
1199.44814	0.00182
1197.51977	0.00169
1195.59140	0.00160
1193.66302	0.00143
1191.73465	0.00126
1189.80628	0.00128
1187.87790	0.00135
1185.94953	0.00148
1184.02116	0.00173
1182.09278	0.00184
1180.16441	0.00168
1178.23604	0.00159
1176.30766	0.00168
1174.37929	0.00176
1172.45092	0.00183
1170.52255	0.00184
1168.59417	0.00185
1166.66580	0.00194
1164.73743	0.00192
1162.80905	0.00174
1160.88068	0.00153
1158.95231	0.00137
1157.02393	0.00142
1155.09556	0.00169
1153.16719	0.00187
1151.23881	0.00184
1149.31044	0.00168
1147.38207	0.00158
1145.45369	0.00174
1143.52532	0.00205
1141.59695	0.00229
1139.66857	0.00242
1137.74020	0.00226
1135.81183	0.00197
1133.88345	0.00187
1131.95508	0.00199
1130.02671	0.00209
1128.09833	0.00205
1126.16996	0.00203
1124.24159	0.00211
1122.31321	0.00215
1120.38484	0.00230
1118.45647	0.00222
1116.52809	0.00179
1114.59972	0.00158
1112.67135	0.00180
1110.74298	0.00202
1108.81460	0.00194
1106.88623	0.00172
1104.95786	0.00171
1103.02948	0.00201
1101.10111	0.00218
1099.17274	0.00209
1097.24436	0.00207
1095.31599	0.00222
1093.38762	0.00232
1091.45924	0.00237
1089.53087	0.00229
1087.60250	0.00228
1085.67412	0.00244
1083.74575	0.00253
1081.81738	0.00241
1079.88900	0.00234
1077.96063	0.00246
1076.03226	0.00261
1074.10388	0.00251
1072.17551	0.00202
1070.24714	0.00161
1068.31876	0.00156
1066.39039	0.00181
1064.46202	0.00189
1062.53364	0.00192
1060.60527	0.00201
1058.67690	0.00186
1056.74853	0.00154
1054.82015	0.00155
1052.89178	0.00200
1050.96341	0.00234
1049.03503	0.00233
1047.10666	0.00206
1045.17829	0.00192
1043.24991	0.00204
1041.32154	0.00195
1039.39317	0.00175
1037.46479	0.00191
1035.53642	0.00202
1033.60805	0.00169
1031.67967	0.00125
1029.75130	0.00101
1027.82293	0.00104
1025.89455	0.00120
1023.96618	0.00142
1022.03781	0.00162
1020.10943	0.00173
1018.18106	0.00187
1016.25269	0.00189
1014.32431	0.00175
1012.39594	0.00171
1010.46757	0.00170
1008.53919	0.00154
1006.61082	0.00132
1004.68245	0.00121
1002.75407	0.00116
1000.82570	0.00120
998.89733	0.00125
996.96896	0.00123
995.04058	0.00131
993.11221	0.00151
991.18384	0.00163
989.25546	0.00176
987.32709	0.00197
985.39872	0.00212
983.47034	0.00204
981.54197	0.00185
979.61360	0.00179
977.68522	0.00179
975.75685	0.00175
973.82848	0.00179
971.90010	0.00215
969.97173	0.00303
968.04336	0.00432
966.11498	0.00550
964.18661	0.00614
962.25824	0.00607
960.32986	0.00515
958.40149	0.00369
956.47312	0.00252
954.54474	0.00210
952.61637	0.00227
950.68800	0.00290
948.75962	0.00392
946.83125	0.00514
944.90288	0.00647
942.97451	0.00782
941.04613	0.00907
939.11776	0.01003
937.18939	0.01066
935.26101	0.01101
933.33264	0.01126
931.40427	0.01166
929.47589	0.01200
927.54752	0.01212
925.61915	0.01200
923.69077	0.01141
921.76240	0.01062
919.83403	0.01047
917.90565	0.01103
915.97728	0.01151
914.04891	0.01140
912.12053	0.01091
910.19216	0.01031
908.26379	0.00949
906.33541	0.00817
904.40704	0.00652
902.47867	0.00517
900.55029	0.00454
898.62192	0.00435
896.69355	0.00399
894.76517	0.00365
892.83680	0.00370
890.90843	0.00389
888.98005	0.00405
887.05168	0.00420
885.12331	0.00425
883.19494	0.00422
881.26656	0.00432
879.33819	0.00444
877.40982	0.00436
875.48144	0.00416
873.55307	0.00378
871.62470	0.00339
869.69632	0.00342
867.76795	0.00341
865.83958	0.00318
863.91120	0.00317
861.98283	0.00340
860.05446	0.00364
858.12608	0.00363
856.19771	0.00339
854.26934	0.00331
852.34096	0.00337
850.41259	0.00314
848.48422	0.00293
846.55584	0.00326
844.62747	0.00370
842.69910	0.00375
840.77072	0.00341
838.84235	0.00297
836.91398	0.00271
834.98560	0.00254
833.05723	0.00239
831.12886	0.00228
829.20049	0.00240
827.27211	0.00285
825.34374	0.00332
823.41537	0.00357
821.48699	0.00345
819.55862	0.00298
817.63025	0.00247
815.70187	0.00222
813.77350	0.00212
811.84513	0.00215
809.91675	0.00254
807.98838	0.00299
806.06001	0.00319
804.13163	0.00323
802.20326	0.00337
800.27489	0.00343
798.34651	0.00344
796.41814	0.00372
794.48977	0.00400
792.56139	0.00392
790.63302	0.00373
788.70465	0.00371
786.77627	0.00369
784.84790	0.00327
782.91953	0.00268
780.99115	0.00250
779.06278	0.00287
777.13441	0.00332
775.20603	0.00343
773.27766	0.00353
771.34929	0.00368
769.42092	0.00352
767.49254	0.00303
765.56417	0.00251
763.63580	0.00233
761.70742	0.00246
759.77905	0.00295
757.85068	0.00330
755.92230	0.00316
753.99393	0.00268
752.06556	0.00244
750.13718	0.00258
748.20881	0.00289
746.28044	0.00319
744.35206	0.00337
742.42369	0.00324
740.49532	0.00300
738.56694	0.00318
736.63857	0.00372
734.71020	0.00399
732.78182	0.00368
730.85345	0.00325
728.92508	0.00307
726.99670	0.00307
725.06833	0.00302
723.13996	0.00305
721.21158	0.00313
719.28321	0.00313
717.35484	0.00323
715.42647	0.00358
713.49809	0.00383
711.56972	0.00380
709.64135	0.00344
707.71297	0.00288
705.78460	0.00279
703.85623	0.00303
701.92785	0.00286
699.99948	0.00282
698.07111	0.00351
696.14273	0.00408
694.21436	0.00417
692.28599	0.00402
690.35761	0.00412
688.42924	0.00449
686.50087	0.00455
684.57249	0.00444
682.64412	0.00474
680.71575	0.00505
678.78737	0.00489
676.85900	0.00445
674.93063	0.00460
673.00225	0.00470
671.07388	0.00537
669.14551	0.00746
667.21713	0.00852
665.28876	0.00751
663.36039	0.00729
661.43201	0.00774
659.50364	0.00735
657.57527	0.00602
655.64690	0.00544
653.71852	0.00590
651.79015	0.00674
649.86178	0.00754
647.93340	0.00786
646.00503	0.00778
644.07666	0.00782
642.14828	0.00728
640.21991	0.00664
638.29154	0.00712
636.36316	0.00761
634.43479	0.00782
632.50642	0.00835
630.57804	0.00903
628.64967	0.00959
626.72130	0.01048
624.79292	0.01113
622.86455	0.01087
620.93618	0.01108
619.00780	0.01203
617.07943	0.01288
615.15106	0.01302
613.22268	0.01341
611.29431	0.01453
609.36594	0.01413
607.43756	0.01115
605.50919	0.01017
603.58082	0.01438
601.65244	0.01877
599.72407	0.01934
