3997.51769	0.14800
3995.58931	0.14846
3993.66094	0.14881
3991.73257	0.14916
3989.80419	0.14920
3987.87582	0.14915
3985.94745	0.14926
3984.01907	0.14942
3982.09070	0.14966
3980.16233	0.14999
3978.23396	0.15019
3976.30558	0.15037
3974.37721	0.15060
3972.44884	0.15049
3970.52046	0.15016
3968.59209	0.15009
3966.66372	0.15018
3964.73534	0.15062
3962.80697	0.15144
3960.87860	0.15182
3958.95022	0.15167
3957.02185	0.15175
3955.09348	0.15213
3953.16510	0.15253
3951.23673	0.15289
3949.30836	0.15315
3947.37998	0.15329
3945.45161	0.15343
3943.52324	0.15361
3941.59486	0.15372
3939.66649	0.15399
3937.73812	0.15442
3935.80974	0.15470
3933.88137	0.15515
3931.95300	0.15614
3930.02462	0.15678
3928.09625	0.15678
3926.16788	0.15709
3924.23950	0.15754
3922.31113	0.15741
3920.38276	0.15735
3918.45439	0.15772
3916.52601	0.15811
3914.59764	0.15833
3912.66927	0.15856
3910.74089	0.15901
3908.81252	0.15984
3906.88415	0.16118
3904.95577	0.16290
3903.02740	0.16413
3901.09903	0.16433
3899.17065	0.16374
3897.24228	0.16285
3895.31391	0.16244
3893.38553	0.16285
3891.45716	0.16342
3889.52879	0.16357
3887.60041	0.16411
3885.67204	0.16547
3883.74367	0.16670
3881.81529	0.16734
3879.88692	0.16745
3877.95855	0.16705
3876.03017	0.16712
3874.10180	0.16773
3872.17343	0.16810
3870.24505	0.16833
3868.31668	0.16868
3866.38831	0.16935
3864.45994	0.17022
3862.53156	0.17041
3860.60319	0.17004
3858.67482	0.16978
3856.74644	0.17003
3854.81807	0.17151
3852.88970	0.17368
3850.96132	0.17312
3849.03295	0.17111
3847.10458	0.16991
3845.17620	0.17009
3843.24783	0.17132
3841.31946	0.17324
3839.39108	0.17522
3837.46271	0.17555
3835.53434	0.17400
3833.60596	0.17270
3831.67759	0.17228
3829.74922	0.17229
3827.82084	0.17261
3825.89247	0.17294
3823.96410	0.17350
3822.03572	0.17498
3820.10735	0.17611
3818.17898	0.17602
3816.25060	0.17556
3814.32223	0.17422
3812.39386	0.17285
3810.46548	0.17259
3808.53711	0.17311
3806.60874	0.17344
3804.68037	0.17356
3802.75199	0.17452
3800.82362	0.17551
3798.89525	0.17518
3796.96687	0.17461
3795.03850	0.17401
3793.11013	0.17330
3791.18175	0.17297
3789.25338	0.17306
3787.32501	0.17328
3785.39663	0.17365
3783.46826	0.17406
3781.53989	0.17401
3779.61151	0.17339
3777.68314	0.17256
3775.75477	0.17207
3773.82639	0.17212
3771.89802	0.17264
3769.96965	0.17326
3768.04127	0.17352
3766.11290	0.17350
3764.18453	0.17310
3762.25615	0.17281
3760.32778	0.17294
3758.39941	0.17261
3756.47103	0.17211
3754.54266	0.17269
3752.61429	0.17455
3750.68591	0.17587
3748.75754	0.17484
3746.82917	0.17401
3744.90080	0.17407
3742.97242	0.17316
3741.04405	0.17177
3739.11568	0.17144
3737.18730	0.17200
3735.25893	0.17185
3733.33056	0.17032
3731.40218	0.16898
3729.47381	0.16850
3727.54544	0.16826
3725.61706	0.16764
3723.68869	0.16686
3721.76032	0.16643
3719.83194	0.16569
3717.90357	0.16414
3715.97520	0.16285
3714.04682	0.16281
3712.11845	0.16352
3710.19008	0.16256
3708.26170	0.15969
3706.33333	0.15711
3704.40496	0.15561
3702.47658	0.15453
3700.54821	0.15289
3698.61984	0.15119
3696.69146	0.14972
3694.76309	0.14809
3692.83472	0.14675
3690.90635	0.14600
3688.97797	0.14419
3687.04960	0.14008
3685.12123	0.13570
3683.19285	0.13218
3681.26448	0.12952
3679.33611	0.12743
3677.40773	0.12537
3675.47936	0.12187
3673.55099	0.11701
3671.62261	0.11288
3669.69424	0.10796
3667.76587	0.10200
3665.83749	0.09702
3663.90912	0.09262
3661.98075	0.08833
3660.05237	0.08445
3658.12400	0.08064
3656.19563	0.07583
3654.26725	0.07104
3652.33888	0.06775
3650.41051	0.06482
3648.48213	0.06002
3646.55376	0.05439
3644.62539	0.05018
3642.69701	0.04673
3640.76864	0.04328
3638.84027	0.03999
3636.91189	0.03689
3634.98352	0.03362
3633.05515	0.03069
3631.12678	0.02894
3629.19840	0.02759
3627.27003	0.02520
3625.34166	0.02274
3623.41328	0.02099
3621.48491	0.01954
3619.55654	0.01754
3617.62816	0.01540
3615.69979	0.01392
3613.77142	0.01277
3611.84304	0.01174
3609.91467	0.01061
3607.98630	0.00930
3606.05792	0.00833
3604.12955	0.00771
3602.20118	0.00706
3600.27280	0.00651
3598.34443	0.00616
3596.41606	0.00563
3594.48768	0.00477
3592.55931	0.00365
3590.63094	0.00266
3588.70256	0.00225
3586.77419	0.00249
3584.84582	0.00264
3582.91744	0.00243
3580.98907	0.00234
3579.06070	0.00233
3577.13233	0.00190
3575.20395	0.00124
3573.27558	0.00083
3571.34721	0.00091
3569.41883	0.00106
3567.49046	0.00098
3565.56209	0.00069
3563.63371	0.00062
3561.70534	0.00022
3559.77697	0.00074
3557.84859	0.00126
3555.92022	0.00106
3553.99185	0.00037
3552.06347	0.00091
3550.13510	0.00116
3548.20673	0.00104
3546.27835	0.00099
3544.34998	0.00072
3542.42161	0.00088
3540.49323	0.00077
3538.56486	0.00040
3536.63649	0.00047
3534.70811	0.00061
3532.77974	0.00105
3530.85137	0.00150
3528.92299	0.00173
3526.99462	0.00170
3525.06625	0.00143
3523.13787	0.00101
3521.20950	0.00074
3519.28113	0.00111
3517.35276	0.00103
3515.42438	0.00089
3513.49601	0.00071
3511.56764	0.00093
3509.63926	0.00183
3507.71089	0.00176
3505.78252	0.00103
3503.85414	0.00067
3501.92577	0.00061
3499.99740	0.00068
3498.06902	0.00092
3496.14065	0.00055
3494.21228	0.00077
3492.28390	0.00095
3490.35553	0.00048
3488.42716	0.00028
3486.49878	0.00080
3484.57041	0.00124
3482.64204	0.00096
3480.71366	0.00080
3478.78529	0.00073
3476.85692	0.00077
3474.92854	0.00078
3473.00017	0.00097
3471.07180	0.00100
3469.14342	0.00063
3467.21505	0.00027
3465.28668	0.00025
3463.35831	0.00052
3461.42993	0.00087
3459.50156	0.00117
3457.57319	0.00082
3455.64481	0.00085
3453.71644	0.00062
3451.78807	0.00050
3449.85969	0.00108
3447.93132	0.00139
3446.00295	0.00099
3444.07457	0.00098
3442.14620	0.00075
3440.21783	0.00087
3438.28945	0.00099
3436.36108	0.00103
3434.43271	0.00118
3432.50433	0.00121
3430.57596	0.00118
3428.64759	0.00110
3426.71921	0.00099
3424.79084	0.00142
3422.86247	0.00153
3420.93409	0.00116
3419.00572	0.00061
3417.07735	0.00063
3415.14897	0.00090
3413.22060	0.00074
3411.29223	0.00047
3409.36385	0.00057
3407.43548	0.00079
3405.50711	0.00083
3403.57874	0.00076
3401.65036	0.00048
3399.72199	0.00049
3397.79362	0.00108
3395.86524	0.00084
3393.93687	0.00038
3392.00850	0.00063
3390.08012	0.00048
3388.15175	0.00058
3386.22338	0.00031
3384.29500	0.00042
3382.36663	0.00111
3380.43826	0.00159
3378.50988	0.00150
3376.58151	0.00101
3374.65314	0.00056
3372.72476	0.00046
3370.79639	0.00088
3368.86802	0.00116
3366.93964	0.00130
3365.01127	0.00103
3363.08290	0.00034
3361.15452	0.00046
3359.22615	0.00070
3357.29778	0.00083
3355.36940	0.00055
3353.44103	0.00072
3351.51266	0.00124
3349.58428	0.00168
3347.65591	0.00127
3345.72754	0.00068
3343.79917	0.00061
3341.87079	0.00050
3339.94242	0.00039
3338.01405	0.00065
3336.08567	0.00085
3334.15730	0.00056
3332.22893	0.00060
3330.30055	0.00114
3328.37218	0.00129
3326.44381	0.00140
3324.51543	0.00156
3322.58706	0.00140
3320.65869	0.00077
3318.73031	0.00074
3316.80194	0.00071
3314.87357	0.00041
3312.94519	0.00018
3311.01682	0.00050
3309.08845	0.00056
3307.16007	0.00093
3305.23170	0.00074
3303.30333	0.00030
3301.37495	0.00032
3299.44658	0.00035
3297.51821	0.00075
3295.58983	0.00060
3293.66146	0.00034
3291.73309	0.00025
3289.80472	0.00027
3287.87634	0.00056
3285.94797	0.00074
3284.01960	0.00064
3282.09122	0.00052
3280.16285	0.00071
3278.23448	0.00088
3276.30610	0.00085
3274.37773	0.00086
3272.44936	0.00086
3270.52098	0.00084
3268.59261	0.00086
3266.66424	0.00093
3264.73586	0.00101
3262.80749	0.00105
3260.87912	0.00101
3258.95074	0.00073
3257.02237	0.00055
3255.09400	0.00087
3253.16562	0.00093
3251.23725	0.00079
3249.30888	0.00033
3247.38050	0.00038
3245.45213	0.00037
3243.52376	0.00056
3241.59538	0.00064
3239.66701	0.00077
3237.73864	0.00059
3235.81026	0.00044
3233.88189	0.00059
3231.95352	0.00063
3230.02515	0.00105
3228.09677	0.00133
3226.16840	0.00102
3224.24003	0.00066
3222.31165	0.00048
3220.38328	0.00066
3218.45491	0.00083
3216.52653	0.00065
3214.59816	0.00042
3212.66979	0.00013
3210.74141	0.00054
3208.81304	0.00061
3206.88467	0.00039
3204.95629	0.00087
3203.02792	0.00102
3201.09955	0.00073
3199.17117	0.00036
3197.24280	0.00017
3195.31443	0.00036
3193.38605	0.00081
3191.45768	0.00110
3189.52931	0.00101
3187.60093	0.00073
3185.67256	0.00064
3183.74419	0.00094
3181.81581	0.00102
3179.88744	0.00068
3177.95907	0.00040
3176.03070	0.00081
3174.10232	0.00092
3172.17395	0.00087
3170.24558	0.00107
3168.31720	0.00106
3166.38883	0.00075
3164.46046	0.00051
3162.53208	0.00042
3160.60371	0.00085
3158.67534	0.00098
3156.74696	0.00071
3154.81859	0.00031
3152.89022	0.00052
3150.96184	0.00053
3149.03347	0.00032
3147.10510	0.00036
3145.17672	0.00076
3143.24835	0.00107
3141.31998	0.00098
3139.39160	0.00105
3137.46323	0.00064
3135.53486	0.00075
3133.60648	0.00081
3131.67811	0.00077
3129.74974	0.00099
3127.82136	0.00079
3125.89299	0.00079
3123.96462	0.00106
3122.03624	0.00091
3120.10787	0.00071
3118.17950	0.00083
3116.25113	0.00092
3114.32275	0.00082
3112.39438	0.00067
3110.46601	0.00069
3108.53763	0.00074
3106.60926	0.00073
3104.68089	0.00072
3102.75251	0.00060
3100.82414	0.00049
3098.89577	0.00071
3096.96739	0.00076
3095.03902	0.00112
3093.11065	0.00108
3091.18227	0.00067
3089.25390	0.00087
3087.32553	0.00140
3085.39715	0.00162
3083.46878	0.00158
3081.54041	0.00159
3079.61203	0.00137
3077.68366	0.00073
3075.75529	0.00043
3073.82691	0.00055
3071.89854	0.00061
3069.97017	0.00051
3068.04179	0.00064
3066.11342	0.00097
3064.18505	0.00092
3062.25668	0.00070
3060.32830	0.00129
3058.39993	0.00166
3056.47156	0.00133
3054.54318	0.00046
3052.61481	0.00090
3050.68644	0.00134
3048.75806	0.00136
3046.82969	0.00124
3044.90132	0.00123
3042.97294	0.00124
3041.04457	0.00078
3039.11620	0.00073
3037.18782	0.00065
3035.25945	0.00068
3033.33108	0.00065
3031.40270	0.00091
3029.47433	0.00096
3027.54596	0.00059
3025.61758	0.00053
3023.68921	0.00080
3021.76084	0.00055
3019.83246	0.00078
3017.90409	0.00115
3015.97572	0.00096
3014.04734	0.00074
3012.11897	0.00070
3010.19060	0.00049
3008.26222	0.00050
3006.33385	0.00057
3004.40548	0.00058
3002.47711	0.00090
3000.54873	0.00128
2998.62036	0.00148
2996.69199	0.00133
2994.76361	0.00111
2992.83524	0.00071
2990.90687	0.00037
2988.97849	0.00061
2987.05012	0.00079
2985.12175	0.00110
2983.19337	0.00124
2981.26500	0.00115
2979.33663	0.00129
2977.40825	0.00104
2975.47988	0.00097
2973.55151	0.00125
2971.62313	0.00151
2969.69476	0.00155
2967.76639	0.00161
2965.83801	0.00122
2963.90964	0.00125
2961.98127	0.00154
2960.05289	0.00121
2958.12452	0.00124
2956.19615	0.00125
2954.26777	0.00107
2952.33940	0.00116
2950.41103	0.00098
2948.48266	0.00070
2946.55428	0.00057
2944.62591	0.00061
2942.69754	0.00088
2940.76916	0.00124
2938.84079	0.00143
2936.91242	0.00121
2934.98404	0.00072
2933.05567	0.00055
2931.12730	0.00061
2929.19892	0.00100
2927.27055	0.00079
2925.34218	0.00030
2923.41380	0.00070
2921.48543	0.00077
2919.55706	0.00106
2917.62868	0.00093
2915.70031	0.00072
2913.77194	0.00053
2911.84356	0.00055
2909.91519	0.00062
2907.98682	0.00080
2906.05844	0.00079
2904.13007	0.00035
2902.20170	0.00080
2900.27332	0.00108
2898.34495	0.00077
2896.41658	0.00089
2894.48820	0.00107
2892.55983	0.00105
2890.63146	0.00113
2888.70309	0.00130
2886.77471	0.00119
2884.84634	0.00068
2882.91797	0.00034
2880.98959	0.00053
2879.06122	0.00106
2877.13285	0.00139
2875.20447	0.00154
2873.27610	0.00103
2871.34773	0.00097
2869.41935	0.00083
2867.49098	0.00090
2865.56261	0.00102
2863.63423	0.00117
2861.70586	0.00129
2859.77749	0.00121
2857.84911	0.00086
2855.92074	0.00097
2853.99237	0.00079
2852.06399	0.00073
2850.13562	0.00083
2848.20725	0.00072
2846.27887	0.00027
2844.35050	0.00042
2842.42213	0.00079
2840.49375	0.00100
2838.56538	0.00090
2836.63701	0.00072
2834.70863	0.00057
2832.78026	0.00064
2830.85189	0.00079
2828.92352	0.00072
2826.99514	0.00082
2825.06677	0.00099
2823.13840	0.00092
2821.21002	0.00088
2819.28165	0.00082
2817.35328	0.00056
2815.42490	0.00046
2813.49653	0.00075
2811.56816	0.00076
2809.63978	0.00070
2807.71141	0.00089
2805.78304	0.00094
2803.85466	0.00060
2801.92629	0.00033
2799.99792	0.00075
2798.06954	0.00099
2796.14117	0.00042
2794.21280	0.00026
2792.28442	0.00055
2790.35605	0.00052
2788.42768	0.00040
2786.49930	0.00067
2784.57093	0.00085
2782.64256	0.00082
2780.71418	0.00080
2778.78581	0.00059
2776.85744	0.00071
2774.92907	0.00088
2773.00069	0.00073
2771.07232	0.00032
2769.14395	0.00029
2767.21557	0.00059
2765.28720	0.00066
2763.35883	0.00043
2761.43045	0.00054
2759.50208	0.00082
2757.57371	0.00096
2755.64533	0.00062
2753.71696	0.00040
2751.78859	0.00037
2749.86021	0.00077
2747.93184	0.00093
2746.00347	0.00051
2744.07509	0.00040
2742.14672	0.00043
2740.21835	0.00038
2738.28997	0.00037
2736.36160	0.00049
2734.43323	0.00069
2732.50485	0.00087
2730.57648	0.00079
2728.64811	0.00081
2726.71973	0.00083
2724.79136	0.00073
2722.86299	0.00055
2720.93461	0.00041
2719.00624	0.00045
2717.07787	0.00063
2715.14950	0.00073
2713.22112	0.00067
2711.29275	0.00045
2709.36438	0.00050
2707.43600	0.00079
2705.50763	0.00066
2703.57926	0.00038
2701.65088	0.00036
2699.72251	0.00010
2697.79414	0.00054
2695.86576	0.00098
2693.93739	0.00082
2692.00902	0.00027
2690.08064	0.00042
2688.15227	0.00058
2686.22390	0.00057
2684.29552	0.00069
2682.36715	0.00080
2680.43878	0.00073
2678.51040	0.00064
2676.58203	0.00046
2674.65366	0.00031
2672.72528	0.00059
2670.79691	0.00072
2668.86854	0.00091
2666.94016	0.00100
2665.01179	0.00099
2663.08342	0.00080
2661.15505	0.00065
2659.22667	0.00088
2657.29830	0.00091
2655.36993	0.00066
2653.44155	0.00038
2651.51318	0.00045
2649.58481	0.00062
2647.65643	0.00069
2645.72806	0.00066
2643.79969	0.00067
2641.87131	0.00084
2639.94294	0.00076
2638.01457	0.00034
2636.08619	0.00030
2634.15782	0.00037
2632.22945	0.00061
2630.30107	0.00066
2628.37270	0.00046
2626.44433	0.00026
2624.51595	0.00044
2622.58758	0.00086
2620.65921	0.00105
2618.73083	0.00093
2616.80246	0.00066
2614.87409	0.00048
2612.94571	0.00059
2611.01734	0.00074
2609.08897	0.00090
2607.16059	0.00115
2605.23222	0.00112
2603.30385	0.00093
2601.37548	0.00109
2599.44710	0.00134
2597.51873	0.00155
2595.59036	0.00131
2593.66198	0.00085
2591.73361	0.00091
2589.80524	0.00115
2587.87686	0.00132
2585.94849	0.00144
2584.02012	0.00142
2582.09174	0.00127
2580.16337	0.00110
2578.23500	0.00110
2576.30662	0.00112
2574.37825	0.00113
2572.44988	0.00130
2570.52150	0.00160
2568.59313	0.00177
2566.66476	0.00165
2564.73638	0.00170
2562.80801	0.00187
2560.87964	0.00193
2558.95126	0.00181
2557.02289	0.00170
2555.09452	0.00194
2553.16614	0.00211
2551.23777	0.00212
2549.30940	0.00220
2547.38103	0.00217
2545.45265	0.00210
2543.52428	0.00217
2541.59591	0.00233
2539.66753	0.00249
2537.73916	0.00272
2535.81079	0.00285
2533.88241	0.00279
2531.95404	0.00277
2530.02567	0.00291
2528.09729	0.00314
2526.16892	0.00340
2524.24055	0.00353
2522.31217	0.00355
2520.38380	0.00364
2518.45543	0.00381
2516.52705	0.00393
2514.59868	0.00405
2512.67031	0.00416
2510.74193	0.00409
2508.81356	0.00403
2506.88519	0.00409
2504.95681	0.00417
2503.02844	0.00416
2501.10007	0.00407
2499.17169	0.00400
2497.24332	0.00416
2495.31495	0.00443
2493.38657	0.00464
2491.45820	0.00477
2489.52983	0.00486
2487.60146	0.00491
2485.67308	0.00483
2483.74471	0.00478
2481.81634	0.00495
2479.88796	0.00518
2477.95959	0.00547
2476.03122	0.00583
2474.10284	0.00609
2472.17447	0.00622
2470.24610	0.00624
2468.31772	0.00608
2466.38935	0.00598
2464.46098	0.00613
2462.53260	0.00643
2460.60423	0.00664
2458.67586	0.00671
2456.74748	0.00683
2454.81911	0.00715
2452.89074	0.00750
2450.96236	0.00775
2449.03399	0.00789
2447.10562	0.00798
2445.17724	0.00818
2443.24887	0.00861
2441.32050	0.00906
2439.39212	0.00940
2437.46375	0.00980
2435.53538	0.01006
2433.60700	0.00995
2431.67863	0.00983
2429.75026	0.01007
2427.82189	0.01040
2425.89351	0.01060
2423.96514	0.01077
2422.03677	0.01098
2420.10839	0.01122
2418.18002	0.01154
2416.25165	0.01187
2414.32327	0.01203
2412.39490	0.01203
2410.46653	0.01209
2408.53815	0.01220
2406.60978	0.01230
2404.68141	0.01258
2402.75303	0.01301
2400.82466	0.01327
2398.89629	0.01341
2396.96791	0.01378
2395.03954	0.01432
2393.11117	0.01476
2391.18279	0.01494
2389.25442	0.01492
2387.32605	0.01509
2385.39767	0.01561
2383.46930	0.01622
2381.54093	0.01673
2379.61255	0.01715
2377.68418	0.01748
2375.75581	0.01757
2373.82744	0.01747
2371.89906	0.01774
2369.97069	0.01899
2368.04232	0.02087
2366.11394	0.02152
2364.18557	0.01987
2362.25720	0.01841
2360.32882	0.01902
2358.40045	0.02011
2356.47208	0.02075
2354.54370	0.02178
2352.61533	0.02311
2350.68696	0.02371
2348.75858	0.02384
2346.83021	0.02405
2344.90184	0.02429
2342.97346	0.02400
2341.04509	0.02368
2339.11672	0.02381
2337.18834	0.02414
2335.25997	0.02474
2333.33160	0.02540
2331.40322	0.02548
2329.47485	0.02522
2327.54648	0.02538
2325.61810	0.02584
2323.68973	0.02637
2321.76136	0.02687
2319.83298	0.02708
2317.90461	0.02704
2315.97624	0.02709
2314.04787	0.02718
2312.11949	0.02716
2310.19112	0.02733
2308.26275	0.02807
2306.33437	0.02901
2304.40600	0.02950
2302.47763	0.02946
2300.54925	0.02946
2298.62088	0.02983
2296.69251	0.03033
2294.76413	0.03070
2292.83576	0.03100
2290.90739	0.03124
2288.97901	0.03149
2287.05064	0.03186
2285.12227	0.03227
2283.19389	0.03263
2281.26552	0.03296
2279.33715	0.03325
2277.40877	0.03357
2275.48040	0.03390
2273.55203	0.03417
2271.62365	0.03455
2269.69528	0.03511
2267.76691	0.03567
2265.83853	0.03610
2263.91016	0.03626
2261.98179	0.03615
2260.05342	0.03624
2258.12504	0.03673
2256.19667	0.03710
2254.26830	0.03715
2252.33992	0.03737
2250.41155	0.03780
2248.48318	0.03819
2246.55480	0.03869
2244.62643	0.03919
2242.69806	0.03950
2240.76968	0.03975
2238.84131	0.04001
2236.91294	0.04017
2234.98456	0.04026
2233.05619	0.04045
2231.12782	0.04076
2229.19944	0.04110
2227.27107	0.04157
2225.34270	0.04205
2223.41432	0.04225
2221.48595	0.04233
2219.55758	0.04254
2217.62920	0.04279
2215.70083	0.04294
2213.77246	0.04303
2211.84408	0.04310
2209.91571	0.04330
2207.98734	0.04373
2206.05896	0.04400
2204.13059	0.04404
2202.20222	0.04431
2200.27385	0.04483
2198.34547	0.04521
2196.41710	0.04535
2194.48873	0.04536
2192.56035	0.04538
2190.63198	0.04560
2188.70361	0.04592
2186.77523	0.04612
2184.84686	0.04637
2182.91849	0.04677
2180.99011	0.04696
2179.06174	0.04685
2177.13337	0.04672
2175.20499	0.04656
2173.27662	0.04638
2171.34825	0.04637
2169.41987	0.04672
2167.49150	0.04725
2165.56313	0.04756
2163.63475	0.04759
2161.70638	0.04761
2159.77801	0.04773
2157.84963	0.04777
2155.92126	0.04767
2153.99289	0.04763
2152.06451	0.04771
2150.13614	0.04789
2148.20777	0.04816
2146.27940	0.04837
2144.35102	0.04860
2142.42265	0.04893
2140.49428	0.04913
2138.56590	0.04903
2136.63753	0.04900
2134.70916	0.04936
2132.78078	0.04992
2130.85241	0.05031
2128.92404	0.05038
2126.99566	0.05029
2125.06729	0.05031
2123.13892	0.05051
2121.21054	0.05083
2119.28217	0.05127
2117.35380	0.05176
2115.42542	0.05212
2113.49705	0.05224
2111.56868	0.05223
2109.64030	0.05232
2107.71193	0.05249
2105.78356	0.05267
2103.85518	0.05294
2101.92681	0.05326
2099.99844	0.05335
2098.07006	0.05323
2096.14169	0.05329
2094.21332	0.05351
2092.28494	0.05358
2090.35657	0.05353
2088.42820	0.05362
2086.49983	0.05369
2084.57145	0.05364
2082.64308	0.05367
2080.71471	0.05386
2078.78633	0.05408
2076.85796	0.05421
2074.92959	0.05407
2073.00121	0.05374
2071.07284	0.05356
2069.14447	0.05366
2067.21609	0.05384
2065.28772	0.05388
2063.35935	0.05381
2061.43097	0.05374
2059.50260	0.05372
2057.57423	0.05382
2055.64585	0.05395
2053.71748	0.05396
2051.78911	0.05396
2049.86073	0.05408
2047.93236	0.05434
2046.00399	0.05472
2044.07561	0.05510
2042.14724	0.05527
2040.21887	0.05524
2038.29049	0.05533
2036.36212	0.05562
2034.43375	0.05583
2032.50538	0.05582
2030.57700	0.05568
2028.64863	0.05556
2026.72026	0.05561
2024.79188	0.05576
2022.86351	0.05589
2020.93514	0.05595
2019.00676	0.05595
2017.07839	0.05586
2015.15002	0.05578
2013.22164	0.05593
2011.29327	0.05609
2009.36490	0.05612
2007.43652	0.05615
2005.50815	0.05614
2003.57978	0.05609
2001.65140	0.05628
1999.72303	0.05669
1997.79466	0.05693
1995.86628	0.05689
1993.93791	0.05699
1992.00954	0.05750
1990.08116	0.05815
1988.15279	0.05845
1986.22442	0.05833
1984.29604	0.05820
1982.36767	0.05832
1980.43930	0.05844
1978.51092	0.05840
1976.58255	0.05848
1974.65418	0.05882
1972.72581	0.05912
1970.79743	0.05914
1968.86906	0.05917
1966.94069	0.05944
1965.01231	0.05969
1963.08394	0.05982
1961.15557	0.05990
1959.22719	0.05987
1957.29882	0.05980
1955.37045	0.05988
1953.44207	0.06002
1951.51370	0.06017
1949.58533	0.06038
1947.65695	0.06062
1945.72858	0.06085
1943.80021	0.06100
1941.87183	0.06101
1939.94346	0.06094
1938.01509	0.06088
1936.08671	0.06086
1934.15834	0.06082
1932.22997	0.06092
1930.30159	0.06124
1928.37322	0.06156
1926.44485	0.06162
1924.51647	0.06159
1922.58810	0.06166
1920.65973	0.06176
1918.73135	0.06179
1916.80298	0.06175
1914.87461	0.06169
1912.94624	0.06168
1911.01786	0.06178
1909.08949	0.06189
1907.16112	0.06193
1905.23274	0.06192
1903.30437	0.06189
1901.37600	0.06179
1899.44762	0.06167
1897.51925	0.06165
1895.59088	0.06164
1893.66250	0.06159
1891.73413	0.06154
1889.80576	0.06148
1887.87738	0.06129
1885.94901	0.06103
1884.02064	0.06078
1882.09226	0.06048
1880.16389	0.06017
1878.23552	0.05988
1876.30714	0.05955
1874.37877	0.05925
1872.45040	0.05906
1870.52202	0.05900
1868.59365	0.05889
1866.66528	0.05846
1864.73690	0.05783
1862.80853	0.05732
1860.88016	0.05701
1858.95179	0.05673
1857.02341	0.05633
1855.09504	0.05575
1853.16667	0.05522
1851.23829	0.05493
1849.30992	0.05484
1847.38155	0.05491
1845.45317	0.05500
1843.52480	0.05473
1841.59643	0.05404
1839.66805	0.05339
1837.73968	0.05304
1835.81131	0.05289
1833.88293	0.05277
1831.95456	0.05261
1830.02619	0.05220
1828.09781	0.05148
1826.16944	0.05082
1824.24107	0.05020
1822.31269	0.04953
1820.38432	0.04895
1818.45595	0.04829
1816.52757	0.04730
1814.59920	0.04625
1812.67083	0.04543
1810.74245	0.04462
1808.81408	0.04349
1806.88571	0.04209
1804.95733	0.04062
1803.02896	0.03914
1801.10059	0.03768
1799.17222	0.03621
1797.24384	0.03471
1795.31547	0.03332
1793.38710	0.03189
1791.45872	0.03005
1789.53035	0.02819
1787.60198	0.02670
1785.67360	0.02552
1783.74523	0.02457
1781.81686	0.02341
1779.88848	0.02180
1777.96011	0.02023
1776.03174	0.01897
1774.10336	0.01780
1772.17499	0.01657
1770.24662	0.01522
1768.31824	0.01373
1766.38987	0.01215
1764.46150	0.01075
1762.53312	0.00920
1760.60475	0.00731
1758.67638	0.00561
1756.74800	0.00427
1754.81963	0.00337
1752.89126	0.00267
1750.96288	0.00169
1749.03451	0.00077
1747.10614	0.00031
1745.17777	0.00023
1743.24939	0.00082
1741.32102	0.00106
1739.39265	0.00089
1737.46427	0.00058
1735.53590	0.00058
1733.60753	0.00096
1731.67915	0.00068
1729.75078	0.00061
1727.82241	0.00030
1725.89403	0.00044
1723.96566	0.00044
1722.03729	0.00048
1720.10891	0.00112
1718.18054	0.00134
1716.25217	0.00051
1714.32379	0.00037
1712.39542	0.00022
1710.46705	0.00038
1708.53867	0.00037
1706.61030	0.00056
1704.68193	0.00080
1702.75355	0.00097
1700.82518	0.00133
1698.89681	0.00119
1696.96843	0.00104
1695.04006	0.00107
1693.11169	0.00093
1691.18331	0.00081
1689.25494	0.00068
1687.32657	0.00052
1685.39820	0.00041
1683.46982	0.00105
1681.54145	0.00117
1679.61308	0.00078
1677.68470	0.00062
1675.75633	0.00065
1673.82796	0.00068
1671.89958	0.00074
1669.97121	0.00080
1668.04284	0.00083
1666.11446	0.00091
1664.18609	0.00111
1662.25772	0.00111
1660.32934	0.00067
1658.40097	0.00029
1656.47260	0.00044
1654.54422	0.00087
1652.61585	0.00156
1650.68748	0.00093
1648.75910	0.00076
1646.83073	0.00079
1644.90236	0.00056
1642.97398	0.00055
1641.04561	0.00057
1639.11724	0.00067
1637.18886	0.00076
1635.26049	0.00087
1633.33212	0.00097
1631.40375	0.00088
1629.47537	0.00070
1627.54700	0.00051
1625.61863	0.00041
1623.69025	0.00059
1621.76188	0.00074
1619.83351	0.00067
1617.90513	0.00074
1615.97676	0.00077
1614.04839	0.00057
1612.12001	0.00072
1610.19164	0.00061
1608.26327	0.00071
1606.33489	0.00108
1604.40652	0.00086
1602.47815	0.00057
1600.54977	0.00044
1598.62140	0.00039
1596.69303	0.00038
1594.76465	0.00037
1592.83628	0.00054
1590.90791	0.00062
1588.97953	0.00065
1587.05116	0.00053
1585.12279	0.00032
1583.19441	0.00049
1581.26604	0.00052
1579.33767	0.00040
1577.40929	0.00038
1575.48092	0.00033
1573.55255	0.00037
1571.62418	0.00074
1569.69580	0.00082
1567.76743	0.00068
1565.83906	0.00062
1563.91068	0.00063
1561.98231	0.00066
1560.05394	0.00099
1558.12556	0.00075
1556.19719	0.00038
1554.26882	0.00050
1552.34044	0.00034
1550.41207	0.00058
1548.48370	0.00085
1546.55532	0.00101
1544.62695	0.00107
1542.69858	0.00094
1540.77020	0.00091
1538.84183	0.00097
1536.91346	0.00084
1534.98508	0.00086
1533.05671	0.00080
1531.12834	0.00046
1529.19996	0.00037
1527.27159	0.00068
1525.34322	0.00074
1523.41484	0.00058
1521.48647	0.00059
1519.55810	0.00072
1517.62972	0.00065
1515.70135	0.00046
1513.77298	0.00063
1511.84461	0.00109
1509.91623	0.00130
1507.98786	0.00099
1506.05949	0.00063
1504.13111	0.00041
1502.20274	0.00027
1500.27437	0.00039
1498.34599	0.00063
1496.41762	0.00045
1494.48925	0.00039
1492.56087	0.00066
1490.63250	0.00054
1488.70413	0.00048
1486.77575	0.00070
1484.84738	0.00067
1482.91901	0.00050
1480.99063	0.00035
1479.06226	0.00050
1477.13389	0.00077
1475.20551	0.00120
1473.27714	0.00151
1471.34877	0.00080
1469.42039	0.00036
1467.49202	0.00066
1465.56365	0.00097
1463.63527	0.00051
1461.70690	0.00037
1459.77853	0.00063
1457.85016	0.00080
1455.92178	0.00088
1453.99341	0.00070
1452.06504	0.00067
1450.13666	0.00056
1448.20829	0.00031
1446.27992	0.00054
1444.35154	0.00071
1442.42317	0.00075
1440.49480	0.00089
1438.56642	0.00111
1436.63805	0.00119
1434.70968	0.00087
1432.78130	0.00064
1430.85293	0.00062
1428.92456	0.00082
1426.99618	0.00060
1425.06781	0.00068
1423.13944	0.00072
1421.21106	0.00043
1419.28269	0.00066
1417.35432	0.00073
1415.42594	0.00064
1413.49757	0.00063
1411.56920	0.00052
1409.64082	0.00041
1407.71245	0.00036
1405.78408	0.00047
1403.85570	0.00060
1401.92733	0.00071
1399.99896	0.00063
1398.07059	0.00042
1396.14221	0.00060
1394.21384	0.00037
1392.28547	0.00053
1390.35709	0.00089
1388.42872	0.00090
1386.50035	0.00049
1384.57197	0.00133
1382.64360	0.00162
1380.71523	0.00121
1378.78685	0.00067
1376.85848	0.00050
1374.93011	0.00049
1373.00173	0.00040
1371.07336	0.00044
1369.14499	0.00079
1367.21661	0.00112
1365.28824	0.00101
1363.35987	0.00065
1361.43149	0.00029
1359.50312	0.00037
1357.57475	0.00056
1355.64637	0.00050
1353.71800	0.00050
1351.78963	0.00069
1349.86125	0.00100
1347.93288	0.00101
1346.00451	0.00095
1344.07614	0.00094
1342.14776	0.00090
1340.21939	0.00081
1338.29102	0.00067
1336.36264	0.00054
1334.43427	0.00061
1332.50590	0.00053
1330.57752	0.00087
1328.64915	0.00083
1326.72078	0.00052
1324.79240	0.00021
1322.86403	0.00045
1320.93566	0.00098
1319.00728	0.00090
1317.07891	0.00071
1315.15054	0.00110
1313.22216	0.00100
1311.29379	0.00030
1309.36542	0.00076
1307.43704	0.00101
1305.50867	0.00067
1303.58030	0.00043
1301.65192	0.00051
1299.72355	0.00080
1297.79518	0.00096
1295.86680	0.00104
1293.93843	0.00084
1292.01006	0.00099
1290.08168	0.00114
1288.15331	0.00120
1286.22494	0.00137
1284.29657	0.00133
1282.36819	0.00121
1280.43982	0.00082
1278.51145	0.00053
1276.58307	0.00053
1274.65470	0.00085
1272.72633	0.00109
1270.79795	0.00106
1268.86958	0.00146
1266.94121	0.00150
1265.01283	0.00108
1263.08446	0.00052
1261.15609	0.00036
1259.22771	0.00068
1257.29934	0.00100
1255.37097	0.00122
1253.44259	0.00116
1251.51422	0.00130
1249.58585	0.00103
1247.65747	0.00145
1245.72910	0.00167
1243.80073	0.00163
1241.87235	0.00148
1239.94398	0.00094
1238.01561	0.00102
1236.08723	0.00074
1234.15886	0.00067
1232.23049	0.00108
1230.30212	0.00095
1228.37374	0.00113
1226.44537	0.00101
1224.51700	0.00083
1222.58862	0.00110
1220.66025	0.00187
1218.73188	0.00222
1216.80350	0.00133
1214.87513	0.00033
1212.94676	0.00115
1211.01838	0.00161
1209.09001	0.00146
1207.16164	0.00118
1205.23326	0.00114
1203.30489	0.00060
1201.37652	0.00056
1199.44814	0.00127
1197.51977	0.00208
1195.59140	0.00205
1193.66302	0.00169
1191.73465	0.00128
1189.80628	0.00017
1187.87790	0.00174
1185.94953	0.00222
1184.02116	0.00189
1182.09278	0.00132
1180.16441	0.00107
1178.23604	0.00112
1176.30766	0.00141
1174.37929	0.00168
1172.45092	0.00162
1170.52255	0.00155
1168.59417	0.00166
1166.66580	0.00209
1164.73743	0.00188
1162.80905	0.00179
1160.88068	0.00197
1158.95231	0.00178
1157.02393	0.00153
1155.09556	0.00108
1153.16719	0.00117
1151.23881	0.00209
1149.31044	0.00215
1147.38207	0.00181
1145.45369	0.00107
1143.52532	0.00147
1141.59695	0.00194
1139.66857	0.00131
1137.74020	0.00128
1135.81183	0.00169
1133.88345	0.00154
1131.95508	0.00105
1130.02671	0.00076
1128.09833	0.00131
1126.16996	0.00086
1124.24159	0.00135
1122.31321	0.00100
1120.38484	0.00031
1118.45647	0.00028
1116.52809	0.00100
1114.59972	0.00207
1112.67135	0.00235
1110.74298	0.00224
1108.81460	0.00191
1106.88623	0.00151
1104.95786	0.00120
1103.02948	0.00078
1101.10111	0.00085
1099.17274	0.00064
1097.24436	0.00141
1095.31599	0.00166
1093.38762	0.00129
1091.45924	0.00134
1089.53087	0.00086
1087.60250	0.00049
1085.67412	0.00140
1083.74575	0.00150
1081.81738	0.00124
1079.88900	0.00115
1077.96063	0.00112
1076.03226	0.00132
1074.10388	0.00149
1072.17551	0.00081
1070.24714	0.00138
1068.31876	0.00175
1066.39039	0.00179
1064.46202	0.00197
1062.53364	0.00173
1060.60527	0.00134
1058.67690	0.00165
1056.74853	0.00130
1054.82015	0.00113
1052.89178	0.00198
1050.96341	0.00234
1049.03503	0.00205
1047.10666	0.00140
1045.17829	0.00116
1043.24991	0.00094
1041.32154	0.00106
1039.39317	0.00128
1037.46479	0.00119
1035.53642	0.00120
1033.60805	0.00150
1031.67967	0.00131
1029.75130	0.00088
1027.82293	0.00043
1025.89455	0.00107
1023.96618	0.00085
1022.03781	0.00057
1020.10943	0.00157
1018.18106	0.00178
1016.25269	0.00117
1014.32431	0.00116
1012.39594	0.00073
1010.46757	0.00074
1008.53919	0.00113
1006.61082	0.00091
1004.68245	0.00054
1002.75407	0.00123
1000.82570	0.00119
998.89733	0.00088
996.96896	0.00089
995.04058	0.00075
993.11221	0.00054
991.18384	0.00047
989.25546	0.00090
987.32709	0.00093
985.39872	0.00034
983.47034	0.00102
981.54197	0.00157
979.61360	0.00174
977.68522	0.00187
975.75685	0.00170
973.82848	0.00142
971.90010	0.00142
969.97173	0.00127
968.04336	0.00152
966.11498	0.00194
964.18661	0.00197
962.25824	0.00193
960.32986	0.00180
958.40149	0.00139
956.47312	0.00080
954.54474	0.00056
952.61637	0.00091
950.68800	0.00091
948.75962	0.00098
946.83125	0.00122
944.90288	0.00150
942.97451	0.00131
941.04613	0.00095
939.11776	0.00187
937.18939	0.00336
935.26101	0.00399
933.33264	0.00308
931.40427	0.00220
929.47589	0.00257
927.54752	0.00312
925.61915	0.00390
923.69077	0.00463
921.76240	0.00420
919.83403	0.00328
917.90565	0.00300
915.97728	0.00309
914.04891	0.00307
912.12053	0.00308
910.19216	0.00343
908.26379	0.00355
906.33541	0.00294
904.40704	0.00170
902.47867	0.00096
900.55029	0.00109
898.62192	0.00143
896.69355	0.00170
894.76517	0.00083
892.83680	0.00116
890.90843	0.00146
888.98005	0.00164
887.05168	0.00159
885.12331	0.00141
883.19494	0.00110
881.26656	0.00149
879.33819	0.00196
877.40982	0.00250
875.48144	0.00252
873.55307	0.00170
871.62470	0.00155
869.69632	0.00232
867.76795	0.00244
865.83958	0.00147
863.91120	0.00133
861.98283	0.00142
860.05446	0.00099
858.12608	0.00117
856.19771	0.00135
854.26934	0.00114
852.34096	0.00135
850.41259	0.00109
848.48422	0.00145
846.55584	0.00201
844.62747	0.00226
842.69910	0.00141
840.77072	0.00067
838.84235	0.00100
836.91398	0.00123
834.98560	0.00128
833.05723	0.00178
831.12886	0.00185
829.20049	0.00256
827.27211	0.00249
825.34374	0.00269
823.41537	0.00323
821.48699	0.00225
819.55862	0.00069
817.63025	0.00106
815.70187	0.00120
813.77350	0.00118
811.84513	0.00165
809.91675	0.00291
807.98838	0.00359
806.06001	0.00320
804.13163	0.00201
802.20326	0.00172
800.27489	0.00182
798.34651	0.00158
796.41814	0.00128
794.48977	0.00110
792.56139	0.00151
790.63302	0.00137
788.70465	0.00094
786.77627	0.00186
784.84790	0.00235
782.91953	0.00153
780.99115	0.00051
779.06278	0.00071
777.13441	0.00143
775.20603	0.00166
773.27766	0.00293
771.34929	0.00366
769.42092	0.00283
767.49254	0.00181
765.56417	0.00105
763.63580	0.00118
761.70742	0.00087
759.77905	0.00065
757.85068	0.00139
755.92230	0.00102
753.99393	0.00153
752.06556	0.00163
750.13718	0.00152
748.20881	0.00191
746.28044	0.00298
744.35206	0.00335
742.42369	0.00227
740.49532	0.00140
738.56694	0.00168
736.63857	0.00244
734.71020	0.00336
732.78182	0.00380
730.85345	0.00375
728.92508	0.00319
726.99670	0.00277
725.06833	0.00283
723.13996	0.00249
721.21158	0.00164
719.28321	0.00173
717.35484	0.00213
715.42647	0.00208
713.49809	0.00213
711.56972	0.00108
709.64135	0.00122
707.71297	0.00260
705.78460	0.00242
703.85623	0.00206
701.92785	0.00326
699.99948	0.00338
698.07111	0.00200
696.14273	0.00203
694.21436	0.00215
692.28599	0.00247
690.35761	0.00266
688.42924	0.00223
686.50087	0.00164
684.57249	0.00193
682.64412	0.00413
680.71575	0.00494
678.78737	0.00337
676.85900	0.00249
674.93063	0.00169
673.00225	0.00229
671.07388	0.00212
669.14551	0.00231
667.21713	0.00484
665.28876	0.00424
663.36039	0.00375
661.43201	0.00332
659.50364	0.00437
657.57527	0.00578
655.64690	0.00563
653.71852	0.00392
651.79015	0.00329
649.86178	0.00352
647.93340	0.00495
646.00503	0.00572
644.07666	0.00379
642.14828	0.00390
640.21991	0.00186
638.29154	0.00405
636.36316	0.00386
634.43479	0.00221
632.50642	0.00553
630.57804	0.01024
628.64967	0.01076
626.72130	0.00873
624.79292	0.00887
622.86455	0.01036
620.93618	0.00998
619.00780	0.00861
617.07943	0.00457
615.15106	0.00525
613.22268	0.00624
611.29431	0.00820
609.36594	0.01008
607.43756	0.01006
605.50919	0.00997
603.58082	0.01035
601.65244	0.00996
599.72407	0.00681
