3997.51769	0.31541
3995.58931	0.31566
3993.66094	0.31605
3991.73257	0.31627
3989.80419	0.31653
3987.87582	0.31688
3985.94745	0.31724
3984.01907	0.31767
3982.09070	0.31791
3980.16233	0.31767
3978.23396	0.31756
3976.30558	0.31811
3974.37721	0.31851
3972.44884	0.31842
3970.52046	0.31852
3968.59209	0.31861
3966.66372	0.31856
3964.73534	0.31889
3962.80697	0.31941
3960.87860	0.31964
3958.95022	0.31999
3957.02185	0.32086
3955.09348	0.32190
3953.16510	0.32275
3951.23673	0.32340
3949.30836	0.32357
3947.37998	0.32329
3945.45161	0.32355
3943.52324	0.32457
3941.59486	0.32519
3939.66649	0.32505
3937.73812	0.32504
3935.80974	0.32564
3933.88137	0.32682
3931.95300	0.32807
3930.02462	0.32862
3928.09625	0.32892
3926.16788	0.32963
3924.23950	0.32985
3922.31113	0.32935
3920.38276	0.32946
3918.45439	0.33035
3916.52601	0.33095
3914.59764	0.33079
3912.66927	0.33039
3910.74089	0.33046
3908.81252	0.33128
3906.88415	0.33316
3904.95577	0.33611
3903.02740	0.33862
3901.09903	0.33949
3899.17065	0.33880
3897.24228	0.33721
3895.31391	0.33673
3893.38553	0.33843
3891.45716	0.34055
3889.52879	0.34071
3887.60041	0.34040
3885.67204	0.34118
3883.74367	0.34249
3881.81529	0.34408
3879.88692	0.34456
3877.95855	0.34328
3876.03017	0.34308
3874.10180	0.34472
3872.17343	0.34683
3870.24505	0.34828
3868.31668	0.34822
3866.38831	0.34837
3864.45994	0.34964
3862.53156	0.34978
3860.60319	0.34870
3858.67482	0.34845
3856.74644	0.34989
3854.81807	0.35375
3852.88970	0.35699
3850.96132	0.35396
3849.03295	0.34981
3847.10458	0.34813
3845.17620	0.34902
3843.24783	0.35110
3841.31946	0.35339
3839.39108	0.35562
3837.46271	0.35620
3835.53434	0.35488
3833.60596	0.35359
3831.67759	0.35249
3829.74922	0.35155
3827.82084	0.35163
3825.89247	0.35257
3823.96410	0.35420
3822.03572	0.35685
3820.10735	0.35795
3818.17898	0.35651
3816.25060	0.35473
3814.32223	0.35252
3812.39386	0.35087
3810.46548	0.35096
3808.53711	0.35266
3806.60874	0.35421
3804.68037	0.35460
3802.75199	0.35551
3800.82362	0.35582
3798.89525	0.35400
3796.96687	0.35216
3795.03850	0.35097
3793.11013	0.35037
3791.18175	0.34997
3789.25338	0.34942
3787.32501	0.34948
3785.39663	0.35016
3783.46826	0.35014
3781.53989	0.34974
3779.61151	0.34969
3777.68314	0.34878
3775.75477	0.34748
3773.82639	0.34758
3771.89802	0.34912
3769.96965	0.35067
3768.04127	0.35060
3766.11290	0.34944
3764.18453	0.34833
3762.25615	0.34809
3760.32778	0.34904
3758.39941	0.34960
3756.47103	0.34906
3754.54266	0.34939
3752.61429	0.35151
3750.68591	0.35300
3748.75754	0.35156
3746.82917	0.35043
3744.90080	0.34970
3742.97242	0.34709
3741.04405	0.34466
3739.11568	0.34439
3737.18730	0.34621
3735.25893	0.34754
3733.33056	0.34473
3731.40218	0.34009
3729.47381	0.33737
3727.54544	0.33668
3725.61706	0.33654
3723.68869	0.33534
3721.76032	0.33280
3719.83194	0.32956
3717.90357	0.32658
3715.97520	0.32489
3714.04682	0.32482
3712.11845	0.32552
3710.19008	0.32382
3708.26170	0.31875
3706.33333	0.31392
3704.40496	0.31150
3702.47658	0.31019
3700.54821	0.30670
3698.61984	0.30170
3696.69146	0.29745
3694.76309	0.29424
3692.83472	0.29165
3690.90635	0.28830
3688.97797	0.28191
3687.04960	0.27300
3685.12123	0.26478
3683.19285	0.25789
3681.26448	0.25173
3679.33611	0.24631
3677.40773	0.24146
3675.47936	0.23345
3673.55099	0.22231
3671.62261	0.21296
3669.69424	0.20197
3667.76587	0.18954
3665.83749	0.17969
3663.90912	0.17086
3661.98075	0.16159
3660.05237	0.15255
3658.12400	0.14414
3656.19563	0.13491
3654.26725	0.12605
3652.33888	0.11912
3650.41051	0.11162
3648.48213	0.10197
3646.55376	0.09302
3644.62539	0.08590
3642.69701	0.07945
3640.76864	0.07308
3638.84027	0.06697
3636.91189	0.06125
3634.98352	0.05576
3633.05515	0.05078
3631.12678	0.04670
3629.19840	0.04264
3627.27003	0.03872
3625.34166	0.03562
3623.41328	0.03243
3621.48491	0.02894
3619.55654	0.02526
3617.62816	0.02224
3615.69979	0.02052
3613.77142	0.01931
3611.84304	0.01815
3609.91467	0.01682
3607.98630	0.01487
3606.05792	0.01268
3604.12955	0.01106
3602.20118	0.00984
3600.27280	0.00869
3598.34443	0.00769
3596.41606	0.00705
3594.48768	0.00647
3592.55931	0.00555
3590.63094	0.00455
3588.70256	0.00385
3586.77419	0.00374
3584.84582	0.00356
3582.91744	0.00299
3580.98907	0.00248
3579.06070	0.00234
3577.13233	0.00260
3575.20395	0.00276
3573.27558	0.00234
3571.34721	0.00187
3569.41883	0.00173
3567.49046	0.00158
3565.56209	0.00080
3563.63371	0.00101
3561.70534	0.00121
3559.77697	0.00113
3557.84859	0.00082
3555.92022	0.00057
3553.99185	0.00057
3552.06347	0.00073
3550.13510	0.00069
3548.20673	0.00060
3546.27835	0.00061
3544.34998	0.00092
3542.42161	0.00101
3540.49323	0.00089
3538.56486	0.00092
3536.63649	0.00086
3534.70811	0.00057
3532.77974	0.00045
3530.85137	0.00083
3528.92299	0.00097
3526.99462	0.00080
3525.06625	0.00054
3523.13787	0.00037
3521.20950	0.00043
3519.28113	0.00058
3517.35276	0.00056
3515.42438	0.00059
3513.49601	0.00089
3511.56764	0.00096
3509.63926	0.00105
3507.71089	0.00082
3505.78252	0.00076
3503.85414	0.00052
3501.92577	0.00062
3499.99740	0.00112
3498.06902	0.00120
3496.14065	0.00091
3494.21228	0.00066
3492.28390	0.00029
3490.35553	0.00041
3488.42716	0.00089
3486.49878	0.00113
3484.57041	0.00122
3482.64204	0.00121
3480.71366	0.00112
3478.78529	0.00093
3476.85692	0.00096
3474.92854	0.00081
3473.00017	0.00070
3471.07180	0.00057
3469.14342	0.00079
3467.21505	0.00098
3465.28668	0.00092
3463.35831	0.00104
3461.42993	0.00140
3459.50156	0.00153
3457.57319	0.00121
3455.64481	0.00086
3453.71644	0.00139
3451.78807	0.00129
3449.85969	0.00069
3447.93132	0.00042
3446.00295	0.00084
3444.07457	0.00091
3442.14620	0.00082
3440.21783	0.00087
3438.28945	0.00104
3436.36108	0.00084
3434.43271	0.00082
3432.50433	0.00115
3430.57596	0.00147
3428.64759	0.00167
3426.71921	0.00146
3424.79084	0.00074
3422.86247	0.00078
3420.93409	0.00053
3419.00572	0.00042
3417.07735	0.00084
3415.14897	0.00101
3413.22060	0.00126
3411.29223	0.00110
3409.36385	0.00088
3407.43548	0.00120
3405.50711	0.00131
3403.57874	0.00059
3401.65036	0.00072
3399.72199	0.00073
3397.79362	0.00044
3395.86524	0.00071
3393.93687	0.00097
3392.00850	0.00090
3390.08012	0.00078
3388.15175	0.00071
3386.22338	0.00086
3384.29500	0.00104
3382.36663	0.00087
3380.43826	0.00078
3378.50988	0.00072
3376.58151	0.00071
3374.65314	0.00066
3372.72476	0.00110
3370.79639	0.00143
3368.86802	0.00130
3366.93964	0.00091
3365.01127	0.00071
3363.08290	0.00059
3361.15452	0.00055
3359.22615	0.00086
3357.29778	0.00089
3355.36940	0.00076
3353.44103	0.00114
3351.51266	0.00130
3349.58428	0.00106
3347.65591	0.00095
3345.72754	0.00095
3343.79917	0.00062
3341.87079	0.00083
3339.94242	0.00072
3338.01405	0.00074
3336.08567	0.00090
3334.15730	0.00106
3332.22893	0.00114
3330.30055	0.00093
3328.37218	0.00089
3326.44381	0.00112
3324.51543	0.00096
3322.58706	0.00070
3320.65869	0.00068
3318.73031	0.00067
3316.80194	0.00042
3314.87357	0.00063
3312.94519	0.00088
3311.01682	0.00067
3309.08845	0.00050
3307.16007	0.00065
3305.23170	0.00083
3303.30333	0.00054
3301.37495	0.00045
3299.44658	0.00098
3297.51821	0.00071
3295.58983	0.00046
3293.66146	0.00082
3291.73309	0.00078
3289.80472	0.00042
3287.87634	0.00067
3285.94797	0.00079
3284.01960	0.00078
3282.09122	0.00079
3280.16285	0.00084
3278.23448	0.00093
3276.30610	0.00103
3274.37773	0.00073
3272.44936	0.00027
3270.52098	0.00083
3268.59261	0.00104
3266.66424	0.00073
3264.73586	0.00075
3262.80749	0.00128
3260.87912	0.00167
3258.95074	0.00153
3257.02237	0.00079
3255.09400	0.00036
3253.16562	0.00029
3251.23725	0.00082
3249.30888	0.00092
3247.38050	0.00058
3245.45213	0.00053
3243.52376	0.00060
3241.59538	0.00069
3239.66701	0.00051
3237.73864	0.00029
3235.81026	0.00053
3233.88189	0.00055
3231.95352	0.00116
3230.02515	0.00145
3228.09677	0.00118
3226.16840	0.00095
3224.24003	0.00069
3222.31165	0.00040
3220.38328	0.00030
3218.45491	0.00059
3216.52653	0.00037
3214.59816	0.00061
3212.66979	0.00077
3210.74141	0.00062
3208.81304	0.00051
3206.88467	0.00059
3204.95629	0.00078
3203.02792	0.00098
3201.09955	0.00091
3199.17117	0.00079
3197.24280	0.00107
3195.31443	0.00100
3193.38605	0.00103
3191.45768	0.00097
3189.52931	0.00098
3187.60093	0.00086
3185.67256	0.00054
3183.74419	0.00058
3181.81581	0.00052
3179.88744	0.00091
3177.95907	0.00114
3176.03070	0.00078
3174.10232	0.00042
3172.17395	0.00034
3170.24558	0.00072
3168.31720	0.00122
3166.38883	0.00100
3164.46046	0.00040
3162.53208	0.00137
3160.60371	0.00142
3158.67534	0.00079
3156.74696	0.00071
3154.81859	0.00054
3152.89022	0.00017
3150.96184	0.00044
3149.03347	0.00081
3147.10510	0.00074
3145.17672	0.00047
3143.24835	0.00045
3141.31998	0.00064
3139.39160	0.00117
3137.46323	0.00161
3135.53486	0.00171
3133.60648	0.00131
3131.67811	0.00047
3129.74974	0.00064
3127.82136	0.00057
3125.89299	0.00034
3123.96462	0.00040
3122.03624	0.00031
3120.10787	0.00040
3118.17950	0.00071
3116.25113	0.00073
3114.32275	0.00065
3112.39438	0.00079
3110.46601	0.00090
3108.53763	0.00107
3106.60926	0.00105
3104.68089	0.00057
3102.75251	0.00052
3100.82414	0.00080
3098.89577	0.00106
3096.96739	0.00134
3095.03902	0.00137
3093.11065	0.00133
3091.18227	0.00093
3089.25390	0.00046
3087.32553	0.00036
3085.39715	0.00066
3083.46878	0.00090
3081.54041	0.00076
3079.61203	0.00081
3077.68366	0.00034
3075.75529	0.00041
3073.82691	0.00048
3071.89854	0.00063
3069.97017	0.00047
3068.04179	0.00026
3066.11342	0.00109
3064.18505	0.00140
3062.25668	0.00128
3060.32830	0.00102
3058.39993	0.00115
3056.47156	0.00112
3054.54318	0.00066
3052.61481	0.00021
3050.68644	0.00088
3048.75806	0.00119
3046.82969	0.00100
3044.90132	0.00088
3042.97294	0.00089
3041.04457	0.00058
3039.11620	0.00067
3037.18782	0.00115
3035.25945	0.00116
3033.33108	0.00119
3031.40270	0.00117
3029.47433	0.00088
3027.54596	0.00075
3025.61758	0.00062
3023.68921	0.00060
3021.76084	0.00072
3019.83246	0.00049
3017.90409	0.00072
3015.97572	0.00090
3014.04734	0.00115
3012.11897	0.00117
3010.19060	0.00084
3008.26222	0.00100
3006.33385	0.00114
3004.40548	0.00100
3002.47711	0.00082
3000.54873	0.00080
2998.62036	0.00046
2996.69199	0.00045
2994.76361	0.00089
2992.83524	0.00103
2990.90687	0.00106
2988.97849	0.00115
2987.05012	0.00127
2985.12175	0.00132
2983.19337	0.00124
2981.26500	0.00103
2979.33663	0.00099
2977.40825	0.00110
2975.47988	0.00127
2973.55151	0.00152
2971.62313	0.00137
2969.69476	0.00067
2967.76639	0.00130
2965.83801	0.00214
2963.90964	0.00203
2961.98127	0.00171
2960.05289	0.00136
2958.12452	0.00084
2956.19615	0.00076
2954.26777	0.00131
2952.33940	0.00134
2950.41103	0.00091
2948.48266	0.00062
2946.55428	0.00085
2944.62591	0.00077
2942.69754	0.00058
2940.76916	0.00075
2938.84079	0.00094
2936.91242	0.00092
2934.98404	0.00125
2933.05567	0.00148
2931.12730	0.00139
2929.19892	0.00129
2927.27055	0.00123
2925.34218	0.00090
2923.41380	0.00039
2921.48543	0.00047
2919.55706	0.00075
2917.62868	0.00063
2915.70031	0.00071
2913.77194	0.00071
2911.84356	0.00062
2909.91519	0.00083
2907.98682	0.00061
2906.05844	0.00033
2904.13007	0.00056
2902.20170	0.00064
2900.27332	0.00090
2898.34495	0.00095
2896.41658	0.00096
2894.48820	0.00091
2892.55983	0.00082
2890.63146	0.00065
2888.70309	0.00064
2886.77471	0.00088
2884.84634	0.00083
2882.91797	0.00090
2880.98959	0.00093
2879.06122	0.00069
2877.13285	0.00087
2875.20447	0.00094
2873.27610	0.00080
2871.34773	0.00049
2869.41935	0.00072
2867.49098	0.00088
2865.56261	0.00083
2863.63423	0.00101
2861.70586	0.00122
2859.77749	0.00090
2857.84911	0.00050
2855.92074	0.00109
2853.99237	0.00143
2852.06399	0.00115
2850.13562	0.00074
2848.20725	0.00051
2846.27887	0.00040
2844.35050	0.00041
2842.42213	0.00043
2840.49375	0.00062
2838.56538	0.00070
2836.63701	0.00069
2834.70863	0.00060
2832.78026	0.00071
2830.85189	0.00081
2828.92352	0.00089
2826.99514	0.00100
2825.06677	0.00086
2823.13840	0.00041
2821.21002	0.00041
2819.28165	0.00048
2817.35328	0.00084
2815.42490	0.00067
2813.49653	0.00061
2811.56816	0.00064
2809.63978	0.00065
2807.71141	0.00071
2805.78304	0.00064
2803.85466	0.00042
2801.92629	0.00045
2799.99792	0.00058
2798.06954	0.00074
2796.14117	0.00052
2794.21280	0.00072
2792.28442	0.00072
2790.35605	0.00034
2788.42768	0.00048
2786.49930	0.00066
2784.57093	0.00057
2782.64256	0.00048
2780.71418	0.00075
2778.78581	0.00067
2776.85744	0.00058
2774.92907	0.00066
2773.00069	0.00081
2771.07232	0.00051
2769.14395	0.00049
2767.21557	0.00058
2765.28720	0.00044
2763.35883	0.00045
2761.43045	0.00060
2759.50208	0.00065
2757.57371	0.00064
2755.64533	0.00047
2753.71696	0.00056
2751.78859	0.00065
2749.86021	0.00065
2747.93184	0.00080
2746.00347	0.00088
2744.07509	0.00058
2742.14672	0.00073
2740.21835	0.00082
2738.28997	0.00074
2736.36160	0.00047
2734.43323	0.00050
2732.50485	0.00040
2730.57648	0.00046
2728.64811	0.00047
2726.71973	0.00018
2724.79136	0.00066
2722.86299	0.00072
2720.93461	0.00072
2719.00624	0.00072
2717.07787	0.00086
2715.14950	0.00117
2713.22112	0.00128
2711.29275	0.00125
2709.36438	0.00129
2707.43600	0.00149
2705.50763	0.00154
2703.57926	0.00140
2701.65088	0.00133
2699.72251	0.00121
2697.79414	0.00095
2695.86576	0.00074
2693.93739	0.00081
2692.00902	0.00120
2690.08064	0.00132
2688.15227	0.00123
2686.22390	0.00115
2684.29552	0.00123
2682.36715	0.00126
2680.43878	0.00131
2678.51040	0.00146
2676.58203	0.00151
2674.65366	0.00141
2672.72528	0.00120
2670.79691	0.00104
2668.86854	0.00133
2666.94016	0.00185
2665.01179	0.00194
2663.08342	0.00168
2661.15505	0.00171
2659.22667	0.00201
2657.29830	0.00198
2655.36993	0.00166
2653.44155	0.00169
2651.51318	0.00212
2649.58481	0.00237
2647.65643	0.00237
2645.72806	0.00246
2643.79969	0.00255
2641.87131	0.00243
2639.94294	0.00243
2638.01457	0.00262
2636.08619	0.00273
2634.15782	0.00288
2632.22945	0.00308
2630.30107	0.00324
2628.37270	0.00340
2626.44433	0.00377
2624.51595	0.00412
2622.58758	0.00419
2620.65921	0.00414
2618.73083	0.00398
2616.80246	0.00376
2614.87409	0.00381
2612.94571	0.00425
2611.01734	0.00465
2609.08897	0.00486
2607.16059	0.00502
2605.23222	0.00532
2603.30385	0.00577
2601.37548	0.00607
2599.44710	0.00612
2597.51873	0.00630
2595.59036	0.00669
2593.66198	0.00696
2591.73361	0.00695
2589.80524	0.00689
2587.87686	0.00697
2585.94849	0.00720
2584.02012	0.00751
2582.09174	0.00785
2580.16337	0.00808
2578.23500	0.00830
2576.30662	0.00880
2574.37825	0.00928
2572.44988	0.00934
2570.52150	0.00938
2568.59313	0.00985
2566.66476	0.01035
2564.73638	0.01055
2562.80801	0.01071
2560.87964	0.01119
2558.95126	0.01192
2557.02289	0.01242
2555.09452	0.01260
2553.16614	0.01277
2551.23777	0.01287
2549.30940	0.01288
2547.38103	0.01309
2545.45265	0.01354
2543.52428	0.01390
2541.59591	0.01407
2539.66753	0.01430
2537.73916	0.01449
2535.81079	0.01455
2533.88241	0.01465
2531.95404	0.01501
2530.02567	0.01561
2528.09729	0.01633
2526.16892	0.01701
2524.24055	0.01754
2522.31217	0.01787
2520.38380	0.01804
2518.45543	0.01819
2516.52705	0.01855
2514.59868	0.01901
2512.67031	0.01935
2510.74193	0.01970
2508.81356	0.02025
2506.88519	0.02087
2504.95681	0.02128
2503.02844	0.02143
2501.10007	0.02158
2499.17169	0.02195
2497.24332	0.02234
2495.31495	0.02257
2493.38657	0.02286
2491.45820	0.02332
2489.52983	0.02378
2487.60146	0.02415
2485.67308	0.02456
2483.74471	0.02489
2481.81634	0.02513
2479.88796	0.02564
2477.95959	0.02634
2476.03122	0.02686
2474.10284	0.02726
2472.17447	0.02781
2470.24610	0.02847
2468.31772	0.02914
2466.38935	0.02978
2464.46098	0.03038
2462.53260	0.03097
2460.60423	0.03159
2458.67586	0.03214
2456.74748	0.03263
2454.81911	0.03324
2452.89074	0.03408
2450.96236	0.03493
2449.03399	0.03552
2447.10562	0.03596
2445.17724	0.03663
2443.24887	0.03756
2441.32050	0.03841
2439.39212	0.03900
2437.46375	0.03954
2435.53538	0.04028
2433.60700	0.04116
2431.67863	0.04200
2429.75026	0.04287
2427.82189	0.04374
2425.89351	0.04431
2423.96514	0.04469
2422.03677	0.04513
2420.10839	0.04569
2418.18002	0.04629
2416.25165	0.04689
2414.32327	0.04759
2412.39490	0.04840
2410.46653	0.04917
2408.53815	0.04982
2406.60978	0.05053
2404.68141	0.05145
2402.75303	0.05243
2400.82466	0.05325
2398.89629	0.05400
2396.96791	0.05488
2395.03954	0.05583
2393.11117	0.05673
2391.18279	0.05762
2389.25442	0.05857
2387.32605	0.05953
2385.39767	0.06047
2383.46930	0.06149
2381.54093	0.06270
2379.61255	0.06407
2377.68418	0.06566
2375.75581	0.06725
2373.82744	0.06833
2371.89906	0.06893
2369.97069	0.06970
2368.04232	0.07073
2366.11394	0.07164
2364.18557	0.07278
2362.25720	0.07468
2360.32882	0.07717
2358.40045	0.07902
2356.47208	0.07951
2354.54370	0.07915
2352.61533	0.07850
2350.68696	0.07824
2348.75858	0.07859
2346.83021	0.07918
2344.90184	0.07972
2342.97346	0.08056
2341.04509	0.08167
2339.11672	0.08226
2337.18834	0.08237
2335.25997	0.08275
2333.33160	0.08355
2331.40322	0.08466
2329.47485	0.08584
2327.54648	0.08639
2325.61810	0.08633
2323.68973	0.08633
2321.76136	0.08665
2319.83298	0.08731
2317.90461	0.08787
2315.97624	0.08828
2314.04787	0.08916
2312.11949	0.09022
2310.19112	0.09100
2308.26275	0.09178
2306.33437	0.09265
2304.40600	0.09344
2302.47763	0.09431
2300.54925	0.09546
2298.62088	0.09673
2296.69251	0.09782
2294.76413	0.09856
2292.83576	0.09917
2290.90739	0.10000
2288.97901	0.10097
2287.05064	0.10190
2285.12227	0.10273
2283.19389	0.10336
2281.26552	0.10390
2279.33715	0.10450
2277.40877	0.10527
2275.48040	0.10614
2273.55203	0.10677
2271.62365	0.10720
2269.69528	0.10784
2267.76691	0.10859
2265.83853	0.10931
2263.91016	0.10999
2261.98179	0.11058
2260.05342	0.11113
2258.12504	0.11172
2256.19667	0.11240
2254.26830	0.11332
2252.33992	0.11425
2250.41155	0.11481
2248.48318	0.11515
2246.55480	0.11582
2244.62643	0.11678
2242.69806	0.11747
2240.76968	0.11790
2238.84131	0.11842
2236.91294	0.11906
2234.98456	0.11975
2233.05619	0.12044
2231.12782	0.12092
2229.19944	0.12132
2227.27107	0.12188
2225.34270	0.12258
2223.41432	0.12314
2221.48595	0.12335
2219.55758	0.12350
2217.62920	0.12396
2215.70083	0.12466
2213.77246	0.12542
2211.84408	0.12610
2209.91571	0.12659
2207.98734	0.12699
2206.05896	0.12742
2204.13059	0.12782
2202.20222	0.12819
2200.27385	0.12867
2198.34547	0.12936
2196.41710	0.13003
2194.48873	0.13045
2192.56035	0.13073
2190.63198	0.13098
2188.70361	0.13129
2186.77523	0.13162
2184.84686	0.13190
2182.91849	0.13230
2180.99011	0.13281
2179.06174	0.13310
2177.13337	0.13311
2175.20499	0.13324
2173.27662	0.13370
2171.34825	0.13424
2169.41987	0.13446
2167.49150	0.13454
2165.56313	0.13469
2163.63475	0.13481
2161.70638	0.13492
2159.77801	0.13529
2157.84963	0.13587
2155.92126	0.13626
2153.99289	0.13637
2152.06451	0.13660
2150.13614	0.13707
2148.20777	0.13749
2146.27940	0.13774
2144.35102	0.13804
2142.42265	0.13868
2140.49428	0.13946
2138.56590	0.14008
2136.63753	0.14053
2134.70916	0.14104
2132.78078	0.14162
2130.85241	0.14213
2128.92404	0.14259
2126.99566	0.14322
2125.06729	0.14411
2123.13892	0.14513
2121.21054	0.14616
2119.28217	0.14718
2117.35380	0.14813
2115.42542	0.14897
2113.49705	0.14964
2111.56868	0.15015
2109.64030	0.15072
2107.71193	0.15159
2105.78356	0.15276
2103.85518	0.15385
2101.92681	0.15451
2099.99844	0.15491
2098.07006	0.15538
2096.14169	0.15587
2094.21332	0.15634
2092.28494	0.15688
2090.35657	0.15737
2088.42820	0.15765
2086.49983	0.15790
2084.57145	0.15817
2082.64308	0.15829
2080.71471	0.15838
2078.78633	0.15869
2076.85796	0.15913
2074.92959	0.15932
2073.00121	0.15915
2071.07284	0.15901
2069.14447	0.15912
2067.21609	0.15932
2065.28772	0.15942
2063.35935	0.15946
2061.43097	0.15962
2059.50260	0.15987
2057.57423	0.16007
2055.64585	0.16047
2053.71748	0.16115
2051.78911	0.16191
2049.86073	0.16287
2047.93236	0.16386
2046.00399	0.16451
2044.07561	0.16503
2042.14724	0.16564
2040.21887	0.16620
2038.29049	0.16690
2036.36212	0.16797
2034.43375	0.16905
2032.50538	0.16976
2030.57700	0.17010
2028.64863	0.17029
2026.72026	0.17059
2024.79188	0.17102
2022.86351	0.17144
2020.93514	0.17191
2019.00676	0.17252
2017.07839	0.17305
2015.15002	0.17326
2013.22164	0.17344
2011.29327	0.17385
2009.36490	0.17440
2007.43652	0.17489
2005.50815	0.17525
2003.57978	0.17567
2001.65140	0.17621
1999.72303	0.17675
1997.79466	0.17741
1995.86628	0.17827
1993.93791	0.17921
1992.00954	0.18004
1990.08116	0.18052
1988.15279	0.18072
1986.22442	0.18099
1984.29604	0.18145
1982.36767	0.18199
1980.43930	0.18249
1978.51092	0.18286
1976.58255	0.18336
1974.65418	0.18416
1972.72581	0.18490
1970.79743	0.18542
1968.86906	0.18597
1966.94069	0.18644
1965.01231	0.18664
1963.08394	0.18687
1961.15557	0.18723
1959.22719	0.18759
1957.29882	0.18795
1955.37045	0.18833
1953.44207	0.18869
1951.51370	0.18902
1949.58533	0.18929
1947.65695	0.18952
1945.72858	0.19000
1943.80021	0.19076
1941.87183	0.19110
1939.94346	0.19080
1938.01509	0.19048
1936.08671	0.19047
1934.15834	0.19061
1932.22997	0.19062
1930.30159	0.19055
1928.37322	0.19073
1926.44485	0.19112
1924.51647	0.19149
1922.58810	0.19159
1920.65973	0.19158
1918.73135	0.19171
1916.80298	0.19161
1914.87461	0.19127
1912.94624	0.19109
1911.01786	0.19100
1909.08949	0.19083
1907.16112	0.19047
1905.23274	0.19008
1903.30437	0.18983
1901.37600	0.18956
1899.44762	0.18918
1897.51925	0.18890
1895.59088	0.18862
1893.66250	0.18800
1891.73413	0.18717
1889.80576	0.18627
1887.87738	0.18524
1885.94901	0.18432
1884.02064	0.18351
1882.09226	0.18261
1880.16389	0.18166
1878.23552	0.18063
1876.30714	0.17956
1874.37877	0.17858
1872.45040	0.17786
1870.52202	0.17741
1868.59365	0.17654
1866.66528	0.17472
1864.73690	0.17266
1862.80853	0.17109
1860.88016	0.16995
1858.95179	0.16874
1857.02341	0.16749
1855.09504	0.16656
1853.16667	0.16583
1851.23829	0.16529
1849.30992	0.16512
1847.38155	0.16501
1845.45317	0.16453
1843.52480	0.16334
1841.59643	0.16173
1839.66805	0.16047
1837.73968	0.15972
1835.81131	0.15910
1833.88293	0.15843
1831.95456	0.15799
1830.02619	0.15753
1828.09781	0.15649
1826.16944	0.15511
1824.24107	0.15323
1822.31269	0.15085
1820.38432	0.14860
1818.45595	0.14648
1816.52757	0.14429
1814.59920	0.14226
1812.67083	0.14032
1810.74245	0.13771
1808.81408	0.13440
1806.88571	0.13116
1804.95733	0.12847
1803.02896	0.12605
1801.10059	0.12314
1799.17222	0.11959
1797.24384	0.11622
1795.31547	0.11330
1793.38710	0.11014
1791.45872	0.10628
1789.53035	0.10260
1787.60198	0.09959
1785.67360	0.09668
1783.74523	0.09344
1781.81686	0.09000
1779.88848	0.08646
1777.96011	0.08313
1776.03174	0.08016
1774.10336	0.07695
1772.17499	0.07258
1770.24662	0.06736
1768.31824	0.06227
1766.38987	0.05739
1764.46150	0.05284
1762.53312	0.04766
1760.60475	0.04162
1758.67638	0.03594
1756.74800	0.03038
1754.81963	0.02518
1752.89126	0.02056
1750.96288	0.01560
1749.03451	0.01081
1747.10614	0.00734
1745.17777	0.00477
1743.24939	0.00264
1741.32102	0.00125
1739.39265	0.00103
1737.46427	0.00094
1735.53590	0.00078
1733.60753	0.00055
1731.67915	0.00054
1729.75078	0.00035
1727.82241	0.00056
1725.89403	0.00046
1723.96566	0.00037
1722.03729	0.00031
1720.10891	0.00042
1718.18054	0.00088
1716.25217	0.00129
1714.32379	0.00080
1712.39542	0.00044
1710.46705	0.00047
1708.53867	0.00072
1706.61030	0.00099
1704.68193	0.00109
1702.75355	0.00118
1700.82518	0.00148
1698.89681	0.00124
1696.96843	0.00052
1695.04006	0.00094
1693.11169	0.00094
1691.18331	0.00072
1689.25494	0.00055
1687.32657	0.00067
1685.39820	0.00148
1683.46982	0.00104
1681.54145	0.00099
1679.61308	0.00100
1677.68470	0.00073
1675.75633	0.00056
1673.82796	0.00069
1671.89958	0.00069
1669.97121	0.00048
1668.04284	0.00037
1666.11446	0.00059
1664.18609	0.00096
1662.25772	0.00085
1660.32934	0.00065
1658.40097	0.00065
1656.47260	0.00073
1654.54422	0.00093
1652.61585	0.00080
1650.68748	0.00049
1648.75910	0.00020
1646.83073	0.00025
1644.90236	0.00063
1642.97398	0.00067
1641.04561	0.00043
1639.11724	0.00047
1637.18886	0.00072
1635.26049	0.00059
1633.33212	0.00061
1631.40375	0.00044
1629.47537	0.00019
1627.54700	0.00030
1625.61863	0.00059
1623.69025	0.00110
1621.76188	0.00137
1619.83351	0.00134
1617.90513	0.00138
1615.97676	0.00114
1614.04839	0.00079
1612.12001	0.00048
1610.19164	0.00018
1608.26327	0.00044
1606.33489	0.00045
1604.40652	0.00042
1602.47815	0.00062
1600.54977	0.00069
1598.62140	0.00057
1596.69303	0.00061
1594.76465	0.00052
1592.83628	0.00042
1590.90791	0.00076
1588.97953	0.00088
1587.05116	0.00073
1585.12279	0.00057
1583.19441	0.00081
1581.26604	0.00083
1579.33767	0.00079
1577.40929	0.00064
1575.48092	0.00013
1573.55255	0.00038
1571.62418	0.00058
1569.69580	0.00057
1567.76743	0.00028
1565.83906	0.00052
1563.91068	0.00077
1561.98231	0.00074
1560.05394	0.00043
1558.12556	0.00087
1556.19719	0.00108
1554.26882	0.00075
1552.34044	0.00049
1550.41207	0.00039
1548.48370	0.00022
1546.55532	0.00040
1544.62695	0.00062
1542.69858	0.00066
1540.77020	0.00108
1538.84183	0.00086
1536.91346	0.00063
1534.98508	0.00047
1533.05671	0.00042
1531.12834	0.00038
1529.19996	0.00061
1527.27159	0.00102
1525.34322	0.00124
1523.41484	0.00136
1521.48647	0.00131
1519.55810	0.00098
1517.62972	0.00097
1515.70135	0.00101
1513.77298	0.00077
1511.84461	0.00055
1509.91623	0.00047
1507.98786	0.00043
1506.05949	0.00023
1504.13111	0.00061
1502.20274	0.00091
1500.27437	0.00107
1498.34599	0.00075
1496.41762	0.00028
1494.48925	0.00035
1492.56087	0.00058
1490.63250	0.00058
1488.70413	0.00075
1486.77575	0.00093
1484.84738	0.00076
1482.91901	0.00055
1480.99063	0.00027
1479.06226	0.00041
1477.13389	0.00033
1475.20551	0.00040
1473.27714	0.00044
1471.34877	0.00063
1469.42039	0.00081
1467.49202	0.00082
1465.56365	0.00079
1463.63527	0.00049
1461.70690	0.00029
1459.77853	0.00047
1457.85016	0.00062
1455.92178	0.00075
1453.99341	0.00042
1452.06504	0.00055
1450.13666	0.00073
1448.20829	0.00056
1446.27992	0.00047
1444.35154	0.00053
1442.42317	0.00057
1440.49480	0.00096
1438.56642	0.00112
1436.63805	0.00085
1434.70968	0.00059
1432.78130	0.00076
1430.85293	0.00047
1428.92456	0.00034
1426.99618	0.00049
1425.06781	0.00074
1423.13944	0.00090
1421.21106	0.00096
1419.28269	0.00071
1417.35432	0.00042
1415.42594	0.00072
1413.49757	0.00116
1411.56920	0.00101
1409.64082	0.00069
1407.71245	0.00050
1405.78408	0.00042
1403.85570	0.00050
1401.92733	0.00055
1399.99896	0.00070
1398.07059	0.00044
1396.14221	0.00091
1394.21384	0.00098
1392.28547	0.00104
1390.35709	0.00078
1388.42872	0.00031
1386.50035	0.00044
1384.57197	0.00104
1382.64360	0.00104
1380.71523	0.00061
1378.78685	0.00038
1376.85848	0.00057
1374.93011	0.00094
1373.00173	0.00089
1371.07336	0.00096
1369.14499	0.00091
1367.21661	0.00077
1365.28824	0.00056
1363.35987	0.00077
1361.43149	0.00098
1359.50312	0.00086
1357.57475	0.00063
1355.64637	0.00057
1353.71800	0.00022
1351.78963	0.00014
1349.86125	0.00018
1347.93288	0.00054
1346.00451	0.00077
1344.07614	0.00088
1342.14776	0.00067
1340.21939	0.00059
1338.29102	0.00057
1336.36264	0.00083
1334.43427	0.00110
1332.50590	0.00103
1330.57752	0.00085
1328.64915	0.00103
1326.72078	0.00124
1324.79240	0.00124
1322.86403	0.00111
1320.93566	0.00094
1319.00728	0.00067
1317.07891	0.00076
1315.15054	0.00071
1313.22216	0.00047
1311.29379	0.00056
1309.36542	0.00074
1307.43704	0.00063
1305.50867	0.00073
1303.58030	0.00089
1301.65192	0.00075
1299.72355	0.00082
1297.79518	0.00059
1295.86680	0.00065
1293.93843	0.00067
1292.01006	0.00038
1290.08168	0.00054
1288.15331	0.00103
1286.22494	0.00095
1284.29657	0.00084
1282.36819	0.00093
1280.43982	0.00092
1278.51145	0.00042
1276.58307	0.00065
1274.65470	0.00066
1272.72633	0.00132
1270.79795	0.00145
1268.86958	0.00085
1266.94121	0.00077
1265.01283	0.00075
1263.08446	0.00062
1261.15609	0.00118
1259.22771	0.00157
1257.29934	0.00142
1255.37097	0.00130
1253.44259	0.00148
1251.51422	0.00168
1249.58585	0.00147
1247.65747	0.00080
1245.72910	0.00063
1243.80073	0.00121
1241.87235	0.00133
1239.94398	0.00097
1238.01561	0.00091
1236.08723	0.00051
1234.15886	0.00070
1232.23049	0.00078
1230.30212	0.00098
1228.37374	0.00122
1226.44537	0.00168
1224.51700	0.00120
1222.58862	0.00061
1220.66025	0.00072
1218.73188	0.00058
1216.80350	0.00116
1214.87513	0.00187
1212.94676	0.00242
1211.01838	0.00221
1209.09001	0.00150
1207.16164	0.00113
1205.23326	0.00119
1203.30489	0.00166
1201.37652	0.00207
1199.44814	0.00181
1197.51977	0.00086
1195.59140	0.00057
1193.66302	0.00071
1191.73465	0.00096
1189.80628	0.00091
1187.87790	0.00141
1185.94953	0.00238
1184.02116	0.00280
1182.09278	0.00241
1180.16441	0.00146
1178.23604	0.00077
1176.30766	0.00122
1174.37929	0.00131
1172.45092	0.00083
1170.52255	0.00132
1168.59417	0.00188
1166.66580	0.00213
1164.73743	0.00198
1162.80905	0.00151
1160.88068	0.00081
1158.95231	0.00114
1157.02393	0.00140
1155.09556	0.00078
1153.16719	0.00086
1151.23881	0.00152
1149.31044	0.00165
1147.38207	0.00146
1145.45369	0.00129
1143.52532	0.00171
1141.59695	0.00203
1139.66857	0.00131
1137.74020	0.00055
1135.81183	0.00129
1133.88345	0.00111
1131.95508	0.00074
1130.02671	0.00153
1128.09833	0.00163
1126.16996	0.00101
1124.24159	0.00097
1122.31321	0.00109
1120.38484	0.00143
1118.45647	0.00162
1116.52809	0.00204
1114.59972	0.00208
1112.67135	0.00153
1110.74298	0.00105
1108.81460	0.00119
1106.88623	0.00174
1104.95786	0.00177
1103.02948	0.00175
1101.10111	0.00182
1099.17274	0.00116
1097.24436	0.00064
1095.31599	0.00123
1093.38762	0.00114
1091.45924	0.00090
1089.53087	0.00128
1087.60250	0.00118
1085.67412	0.00169
1083.74575	0.00234
1081.81738	0.00244
1079.88900	0.00170
1077.96063	0.00118
1076.03226	0.00073
1074.10388	0.00048
1072.17551	0.00141
1070.24714	0.00264
1068.31876	0.00358
1066.39039	0.00320
1064.46202	0.00186
1062.53364	0.00102
1060.60527	0.00151
1058.67690	0.00196
1056.74853	0.00162
1054.82015	0.00095
1052.89178	0.00084
1050.96341	0.00073
1049.03503	0.00120
1047.10666	0.00120
1045.17829	0.00157
1043.24991	0.00139
1041.32154	0.00157
1039.39317	0.00226
1037.46479	0.00195
1035.53642	0.00110
1033.60805	0.00098
1031.67967	0.00065
1029.75130	0.00064
1027.82293	0.00133
1025.89455	0.00184
1023.96618	0.00186
1022.03781	0.00149
1020.10943	0.00112
1018.18106	0.00148
1016.25269	0.00131
1014.32431	0.00111
1012.39594	0.00125
1010.46757	0.00127
1008.53919	0.00119
1006.61082	0.00107
1004.68245	0.00131
1002.75407	0.00125
1000.82570	0.00088
998.89733	0.00054
996.96896	0.00092
995.04058	0.00143
993.11221	0.00172
991.18384	0.00220
989.25546	0.00257
987.32709	0.00280
985.39872	0.00305
983.47034	0.00301
981.54197	0.00253
979.61360	0.00185
977.68522	0.00164
975.75685	0.00205
973.82848	0.00267
971.90010	0.00329
969.97173	0.00442
968.04336	0.00582
966.11498	0.00660
964.18661	0.00716
962.25824	0.00783
960.32986	0.00755
958.40149	0.00566
956.47312	0.00355
954.54474	0.00275
952.61637	0.00336
950.68800	0.00469
948.75962	0.00624
946.83125	0.00784
944.90288	0.00904
942.97451	0.00982
941.04613	0.01079
939.11776	0.01236
937.18939	0.01392
935.26101	0.01489
933.33264	0.01550
931.40427	0.01612
929.47589	0.01636
927.54752	0.01577
925.61915	0.01478
923.69077	0.01343
921.76240	0.01210
919.83403	0.01204
917.90565	0.01262
915.97728	0.01291
914.04891	0.01317
912.12053	0.01291
910.19216	0.01153
908.26379	0.00988
906.33541	0.00888
904.40704	0.00840
902.47867	0.00736
900.55029	0.00587
898.62192	0.00469
896.69355	0.00370
894.76517	0.00347
892.83680	0.00388
890.90843	0.00404
888.98005	0.00384
887.05168	0.00366
885.12331	0.00359
883.19494	0.00355
881.26656	0.00369
879.33819	0.00418
877.40982	0.00447
875.48144	0.00430
873.55307	0.00399
871.62470	0.00359
869.69632	0.00347
867.76795	0.00372
865.83958	0.00370
863.91120	0.00289
861.98283	0.00242
860.05446	0.00226
858.12608	0.00270
856.19771	0.00418
854.26934	0.00491
852.34096	0.00437
850.41259	0.00295
848.48422	0.00184
846.55584	0.00190
844.62747	0.00196
842.69910	0.00228
840.77072	0.00208
838.84235	0.00184
836.91398	0.00216
834.98560	0.00198
833.05723	0.00144
831.12886	0.00088
829.20049	0.00070
827.27211	0.00109
825.34374	0.00207
823.41537	0.00174
821.48699	0.00241
819.55862	0.00292
817.63025	0.00197
815.70187	0.00068
813.77350	0.00153
811.84513	0.00216
809.91675	0.00194
807.98838	0.00136
806.06001	0.00140
804.13163	0.00098
802.20326	0.00085
800.27489	0.00191
798.34651	0.00226
796.41814	0.00230
794.48977	0.00223
792.56139	0.00296
790.63302	0.00320
788.70465	0.00311
786.77627	0.00242
784.84790	0.00144
782.91953	0.00133
780.99115	0.00259
779.06278	0.00318
777.13441	0.00309
775.20603	0.00278
773.27766	0.00217
771.34929	0.00233
769.42092	0.00299
767.49254	0.00212
765.56417	0.00062
763.63580	0.00043
761.70742	0.00068
759.77905	0.00141
757.85068	0.00168
755.92230	0.00197
753.99393	0.00226
752.06556	0.00200
750.13718	0.00120
748.20881	0.00101
746.28044	0.00210
744.35206	0.00178
742.42369	0.00141
740.49532	0.00172
738.56694	0.00190
736.63857	0.00147
734.71020	0.00106
732.78182	0.00155
730.85345	0.00319
728.92508	0.00409
726.99670	0.00336
725.06833	0.00212
723.13996	0.00319
721.21158	0.00335
719.28321	0.00234
717.35484	0.00115
715.42647	0.00172
713.49809	0.00343
711.56972	0.00350
709.64135	0.00236
707.71297	0.00056
705.78460	0.00201
703.85623	0.00222
701.92785	0.00190
699.99948	0.00388
698.07111	0.00444
696.14273	0.00352
694.21436	0.00335
692.28599	0.00277
690.35761	0.00312
688.42924	0.00300
686.50087	0.00262
684.57249	0.00170
682.64412	0.00175
680.71575	0.00244
678.78737	0.00264
676.85900	0.00201
674.93063	0.00214
673.00225	0.00290
671.07388	0.00295
669.14551	0.00398
667.21713	0.00467
665.28876	0.00331
663.36039	0.00243
661.43201	0.00282
659.50364	0.00352
657.57527	0.00397
655.64690	0.00264
653.71852	0.00302
651.79015	0.00364
649.86178	0.00429
647.93340	0.00343
646.00503	0.00341
644.07666	0.00574
642.14828	0.00608
640.21991	0.00537
638.29154	0.00662
636.36316	0.00822
634.43479	0.00705
632.50642	0.00494
630.57804	0.00331
628.64967	0.00383
626.72130	0.00538
624.79292	0.00476
622.86455	0.00226
620.93618	0.00781
619.00780	0.00872
617.07943	0.00561
615.15106	0.00575
613.22268	0.00628
611.29431	0.00555
609.36594	0.00399
607.43756	0.00632
605.50919	0.00327
603.58082	0.00810
601.65244	0.01208
599.72407	0.01062
