3997.51769	0.75442
3995.58931	0.75448
3993.66094	0.75479
3991.73257	0.75523
3989.80419	0.75601
3987.87582	0.75728
3985.94745	0.75828
3984.01907	0.75850
3982.09070	0.75837
3980.16233	0.75824
3978.23396	0.75785
3976.30558	0.75699
3974.37721	0.75636
3972.44884	0.75670
3970.52046	0.75788
3968.59209	0.75979
3966.66372	0.76215
3964.73534	0.76348
3962.80697	0.76312
3960.87860	0.76311
3958.95022	0.76473
3957.02185	0.76684
3955.09348	0.76852
3953.16510	0.76851
3951.23673	0.76576
3949.30836	0.76301
3947.37998	0.76455
3945.45161	0.76714
3943.52324	0.76654
3941.59486	0.76806
3939.66649	0.77398
3937.73812	0.77829
3935.80974	0.77749
3933.88137	0.77211
3931.95300	0.76744
3930.02462	0.76952
3928.09625	0.77413
3926.16788	0.77397
3924.23950	0.77231
3922.31113	0.77440
3920.38276	0.77567
3918.45439	0.77399
3916.52601	0.77617
3914.59764	0.78480
3912.66927	0.79301
3910.74089	0.79615
3908.81252	0.79365
3906.88415	0.78349
3904.95577	0.76793
3903.02740	0.75775
3901.09903	0.75888
3899.17065	0.76931
3897.24228	0.78501
3895.31391	0.79451
3893.38553	0.79112
3891.45716	0.78606
3889.52879	0.79053
3887.60041	0.79240
3885.67204	0.78679
3883.74367	0.78425
3881.81529	0.78371
3879.88692	0.78761
3877.95855	0.79934
3876.03017	0.80234
3874.10180	0.79347
3872.17343	0.78419
3870.24505	0.78031
3868.31668	0.78575
3866.38831	0.79090
3864.45994	0.78899
3862.53156	0.79339
3860.60319	0.80561
3858.67482	0.80980
3856.74644	0.79965
3854.81807	0.77870
3852.88970	0.76724
3850.96132	0.78665
3849.03295	0.81049
3847.10458	0.82102
3845.17620	0.81696
3843.24783	0.80413
3841.31946	0.78989
3839.39108	0.77942
3837.46271	0.78006
3835.53434	0.79088
3833.60596	0.80075
3831.67759	0.80816
3829.74922	0.81407
3827.82084	0.81504
3825.89247	0.81260
3823.96410	0.80587
3822.03572	0.79043
3820.10735	0.78280
3818.17898	0.79107
3816.25060	0.80041
3814.32223	0.81431
3812.39386	0.82903
3810.46548	0.83187
3808.53711	0.82145
3806.60874	0.80948
3804.68037	0.80350
3802.75199	0.79423
3800.82362	0.78926
3798.89525	0.79766
3796.96687	0.80678
3795.03850	0.81740
3793.11013	0.82967
3791.18175	0.83590
3789.25338	0.83572
3787.32501	0.83099
3785.39663	0.82455
3783.46826	0.82169
3781.53989	0.81848
3779.61151	0.81321
3777.68314	0.81665
3775.75477	0.82594
3773.82639	0.82745
3771.89802	0.81751
3769.96965	0.80507
3768.04127	0.80135
3766.11290	0.80374
3764.18453	0.80757
3762.25615	0.80721
3760.32778	0.79749
3758.39941	0.78854
3756.47103	0.78773
3754.54266	0.78229
3752.61429	0.76365
3750.68591	0.74562
3748.75754	0.74746
3746.82917	0.75258
3744.90080	0.75128
3742.97242	0.75765
3741.04405	0.76755
3739.11568	0.76507
3737.18730	0.74725
3735.25893	0.72883
3733.33056	0.73317
3731.40218	0.75488
3729.47381	0.77032
3727.54544	0.76986
3725.61706	0.76093
3723.68869	0.75514
3721.76032	0.75543
3719.83194	0.75963
3717.90357	0.76363
3715.97520	0.76119
3714.04682	0.74676
3712.11845	0.72434
3710.19008	0.71574
3708.26170	0.72776
3706.33333	0.73947
3704.40496	0.73781
3702.47658	0.72676
3700.54821	0.72036
3698.61984	0.72040
3696.69146	0.71671
3694.76309	0.70551
3692.83472	0.68563
3690.90635	0.65888
3688.97797	0.64078
3687.04960	0.64204
3685.12123	0.64633
3683.19285	0.64062
3681.26448	0.62371
3679.33611	0.59905
3677.40773	0.56855
3675.47936	0.53811
3673.55099	0.52351
3671.62261	0.51362
3669.69424	0.49675
3667.76587	0.48629
3665.83749	0.48082
3663.90912	0.46843
3661.98075	0.44948
3660.05237	0.42793
3658.12400	0.40420
3656.19563	0.37900
3654.26725	0.35707
3652.33888	0.33475
3650.41051	0.30481
3648.48213	0.27723
3646.55376	0.26559
3644.62539	0.25982
3642.69701	0.25010
3640.76864	0.23613
3638.84027	0.22068
3636.91189	0.20504
3634.98352	0.18951
3633.05515	0.17477
3631.12678	0.16048
3629.19840	0.14467
3627.27003	0.13212
3625.34166	0.12549
3623.41328	0.11844
3621.48491	0.10865
3619.55654	0.09734
3617.62816	0.08788
3615.69979	0.08118
3613.77142	0.07486
3611.84304	0.06864
3609.91467	0.06293
3607.98630	0.05740
3606.05792	0.05255
3604.12955	0.04865
3602.20118	0.04466
3600.27280	0.04036
3598.34443	0.03629
3596.41606	0.03271
3594.48768	0.02967
3592.55931	0.02694
3590.63094	0.02427
3588.70256	0.02134
3586.77419	0.01868
3584.84582	0.01699
3582.91744	0.01563
3580.98907	0.01409
3579.06070	0.01245
3577.13233	0.01109
3575.20395	0.00989
3573.27558	0.00871
3571.34721	0.00764
3569.41883	0.00670
3567.49046	0.00582
3565.56209	0.00502
3563.63371	0.00455
3561.70534	0.00399
3559.77697	0.00325
3557.84859	0.00269
3555.92022	0.00243
3553.99185	0.00222
3552.06347	0.00180
3550.13510	0.00136
3548.20673	0.00093
3546.27835	0.00055
3544.34998	0.00043
3542.42161	0.00038
3540.49323	0.00031
3538.56486	0.00038
3536.63649	0.00045
3534.70811	0.00048
3532.77974	0.00053
3530.85137	0.00067
3528.92299	0.00075
3526.99462	0.00079
3525.06625	0.00068
3523.13787	0.00062
3521.20950	0.00078
3519.28113	0.00083
3517.35276	0.00091
3515.42438	0.00103
3513.49601	0.00109
3511.56764	0.00111
3509.63926	0.00108
3507.71089	0.00105
3505.78252	0.00108
3503.85414	0.00120
3501.92577	0.00117
3499.99740	0.00113
3498.06902	0.00116
3496.14065	0.00118
3494.21228	0.00129
3492.28390	0.00141
3490.35553	0.00152
3488.42716	0.00148
3486.49878	0.00125
3484.57041	0.00105
3482.64204	0.00098
3480.71366	0.00118
3478.78529	0.00145
3476.85692	0.00164
3474.92854	0.00159
3473.00017	0.00137
3471.07180	0.00123
3469.14342	0.00113
3467.21505	0.00110
3465.28668	0.00113
3463.35831	0.00112
3461.42993	0.00099
3459.50156	0.00096
3457.57319	0.00114
3455.64481	0.00136
3453.71644	0.00152
3451.78807	0.00150
3449.85969	0.00141
3447.93132	0.00142
3446.00295	0.00152
3444.07457	0.00154
3442.14620	0.00147
3440.21783	0.00145
3438.28945	0.00136
3436.36108	0.00116
3434.43271	0.00097
3432.50433	0.00093
3430.57596	0.00107
3428.64759	0.00120
3426.71921	0.00134
3424.79084	0.00140
3422.86247	0.00121
3420.93409	0.00099
3419.00572	0.00102
3417.07735	0.00103
3415.14897	0.00104
3413.22060	0.00094
3411.29223	0.00092
3409.36385	0.00113
3407.43548	0.00120
3405.50711	0.00099
3403.57874	0.00081
3401.65036	0.00072
3399.72199	0.00071
3397.79362	0.00092
3395.86524	0.00118
3393.93687	0.00131
3392.00850	0.00121
3390.08012	0.00106
3388.15175	0.00114
3386.22338	0.00114
3384.29500	0.00104
3382.36663	0.00106
3380.43826	0.00110
3378.50988	0.00094
3376.58151	0.00078
3374.65314	0.00089
3372.72476	0.00120
3370.79639	0.00157
3368.86802	0.00150
3366.93964	0.00118
3365.01127	0.00098
3363.08290	0.00106
3361.15452	0.00125
3359.22615	0.00137
3357.29778	0.00149
3355.36940	0.00147
3353.44103	0.00136
3351.51266	0.00127
3349.58428	0.00120
3347.65591	0.00114
3345.72754	0.00112
3343.79917	0.00102
3341.87079	0.00104
3339.94242	0.00118
3338.01405	0.00127
3336.08567	0.00126
3334.15730	0.00114
3332.22893	0.00106
3330.30055	0.00120
3328.37218	0.00120
3326.44381	0.00107
3324.51543	0.00098
3322.58706	0.00092
3320.65869	0.00086
3318.73031	0.00072
3316.80194	0.00075
3314.87357	0.00093
3312.94519	0.00099
3311.01682	0.00099
3309.08845	0.00088
3307.16007	0.00079
3305.23170	0.00092
3303.30333	0.00114
3301.37495	0.00117
3299.44658	0.00095
3297.51821	0.00080
3295.58983	0.00092
3293.66146	0.00102
3291.73309	0.00117
3289.80472	0.00118
3287.87634	0.00097
3285.94797	0.00079
3284.01960	0.00071
3282.09122	0.00076
3280.16285	0.00091
3278.23448	0.00113
3276.30610	0.00128
3274.37773	0.00124
3272.44936	0.00116
3270.52098	0.00111
3268.59261	0.00106
3266.66424	0.00103
3264.73586	0.00090
3262.80749	0.00072
3260.87912	0.00078
3258.95074	0.00095
3257.02237	0.00088
3255.09400	0.00060
3253.16562	0.00044
3251.23725	0.00057
3249.30888	0.00077
3247.38050	0.00076
3245.45213	0.00074
3243.52376	0.00088
3241.59538	0.00107
3239.66701	0.00107
3237.73864	0.00092
3235.81026	0.00093
3233.88189	0.00111
3231.95352	0.00109
3230.02515	0.00083
3228.09677	0.00060
3226.16840	0.00055
3224.24003	0.00063
3222.31165	0.00070
3220.38328	0.00065
3218.45491	0.00054
3216.52653	0.00052
3214.59816	0.00071
3212.66979	0.00092
3210.74141	0.00098
3208.81304	0.00096
3206.88467	0.00104
3204.95629	0.00113
3203.02792	0.00112
3201.09955	0.00103
3199.17117	0.00090
3197.24280	0.00098
3195.31443	0.00111
3193.38605	0.00108
3191.45768	0.00103
3189.52931	0.00129
3187.60093	0.00131
3185.67256	0.00119
3183.74419	0.00115
3181.81581	0.00111
3179.88744	0.00099
3177.95907	0.00088
3176.03070	0.00091
3174.10232	0.00091
3172.17395	0.00083
3170.24558	0.00083
3168.31720	0.00094
3166.38883	0.00092
3164.46046	0.00072
3162.53208	0.00055
3160.60371	0.00042
3158.67534	0.00055
3156.74696	0.00072
3154.81859	0.00091
3152.89022	0.00113
3150.96184	0.00132
3149.03347	0.00133
3147.10510	0.00124
3145.17672	0.00117
3143.24835	0.00109
3141.31998	0.00104
3139.39160	0.00111
3137.46323	0.00122
3135.53486	0.00131
3133.60648	0.00135
3131.67811	0.00129
3129.74974	0.00135
3127.82136	0.00138
3125.89299	0.00127
3123.96462	0.00119
3122.03624	0.00110
3120.10787	0.00094
3118.17950	0.00082
3116.25113	0.00084
3114.32275	0.00096
3112.39438	0.00106
3110.46601	0.00105
3108.53763	0.00096
3106.60926	0.00086
3104.68089	0.00080
3102.75251	0.00088
3100.82414	0.00096
3098.89577	0.00101
3096.96739	0.00098
3095.03902	0.00089
3093.11065	0.00089
3091.18227	0.00104
3089.25390	0.00119
3087.32553	0.00129
3085.39715	0.00133
3083.46878	0.00117
3081.54041	0.00089
3079.61203	0.00078
3077.68366	0.00090
3075.75529	0.00114
3073.82691	0.00123
3071.89854	0.00101
3069.97017	0.00073
3068.04179	0.00066
3066.11342	0.00073
3064.18505	0.00088
3062.25668	0.00105
3060.32830	0.00108
3058.39993	0.00095
3056.47156	0.00076
3054.54318	0.00072
3052.61481	0.00082
3050.68644	0.00094
3048.75806	0.00096
3046.82969	0.00099
3044.90132	0.00106
3042.97294	0.00116
3041.04457	0.00109
3039.11620	0.00089
3037.18782	0.00082
3035.25945	0.00084
3033.33108	0.00080
3031.40270	0.00075
3029.47433	0.00070
3027.54596	0.00063
3025.61758	0.00072
3023.68921	0.00086
3021.76084	0.00092
3019.83246	0.00091
3017.90409	0.00079
3015.97572	0.00063
3014.04734	0.00065
3012.11897	0.00088
3010.19060	0.00090
3008.26222	0.00077
3006.33385	0.00062
3004.40548	0.00068
3002.47711	0.00105
3000.54873	0.00137
2998.62036	0.00142
2996.69199	0.00135
2994.76361	0.00137
2992.83524	0.00147
2990.90687	0.00159
2988.97849	0.00174
2987.05012	0.00159
2985.12175	0.00127
2983.19337	0.00117
2981.26500	0.00132
2979.33663	0.00142
2977.40825	0.00135
2975.47988	0.00111
2973.55151	0.00091
2971.62313	0.00112
2969.69476	0.00147
2967.76639	0.00151
2965.83801	0.00130
2963.90964	0.00110
2961.98127	0.00100
2960.05289	0.00108
2958.12452	0.00134
2956.19615	0.00157
2954.26777	0.00154
2952.33940	0.00147
2950.41103	0.00149
2948.48266	0.00132
2946.55428	0.00106
2944.62591	0.00104
2942.69754	0.00118
2940.76916	0.00133
2938.84079	0.00148
2936.91242	0.00153
2934.98404	0.00152
2933.05567	0.00158
2931.12730	0.00156
2929.19892	0.00140
2927.27055	0.00131
2925.34218	0.00137
2923.41380	0.00133
2921.48543	0.00116
2919.55706	0.00105
2917.62868	0.00099
2915.70031	0.00108
2913.77194	0.00116
2911.84356	0.00109
2909.91519	0.00089
2907.98682	0.00081
2906.05844	0.00097
2904.13007	0.00113
2902.20170	0.00116
2900.27332	0.00120
2898.34495	0.00132
2896.41658	0.00136
2894.48820	0.00135
2892.55983	0.00134
2890.63146	0.00129
2888.70309	0.00119
2886.77471	0.00125
2884.84634	0.00133
2882.91797	0.00130
2880.98959	0.00121
2879.06122	0.00117
2877.13285	0.00120
2875.20447	0.00124
2873.27610	0.00119
2871.34773	0.00108
2869.41935	0.00111
2867.49098	0.00123
2865.56261	0.00120
2863.63423	0.00117
2861.70586	0.00128
2859.77749	0.00140
2857.84911	0.00132
2855.92074	0.00113
2853.99237	0.00099
2852.06399	0.00095
2850.13562	0.00099
2848.20725	0.00109
2846.27887	0.00112
2844.35050	0.00097
2842.42213	0.00072
2840.49375	0.00054
2838.56538	0.00056
2836.63701	0.00067
2834.70863	0.00083
2832.78026	0.00101
2830.85189	0.00103
2828.92352	0.00088
2826.99514	0.00076
2825.06677	0.00068
2823.13840	0.00062
2821.21002	0.00061
2819.28165	0.00061
2817.35328	0.00071
2815.42490	0.00080
2813.49653	0.00079
2811.56816	0.00065
2809.63978	0.00055
2807.71141	0.00067
2805.78304	0.00078
2803.85466	0.00081
2801.92629	0.00080
2799.99792	0.00087
2798.06954	0.00100
2796.14117	0.00110
2794.21280	0.00107
2792.28442	0.00089
2790.35605	0.00073
2788.42768	0.00073
2786.49930	0.00085
2784.57093	0.00091
2782.64256	0.00080
2780.71418	0.00074
2778.78581	0.00067
2776.85744	0.00060
2774.92907	0.00067
2773.00069	0.00083
2771.07232	0.00092
2769.14395	0.00087
2767.21557	0.00069
2765.28720	0.00064
2763.35883	0.00071
2761.43045	0.00056
2759.50208	0.00031
2757.57371	0.00025
2755.64533	0.00039
2753.71696	0.00043
2751.78859	0.00048
2749.86021	0.00060
2747.93184	0.00067
2746.00347	0.00064
2744.07509	0.00051
2742.14672	0.00037
2740.21835	0.00034
2738.28997	0.00027
2736.36160	0.00024
2734.43323	0.00027
2732.50485	0.00022
2730.57648	0.00015
2728.64811	0.00021
2726.71973	0.00035
2724.79136	0.00046
2722.86299	0.00059
2720.93461	0.00052
2719.00624	0.00033
2717.07787	0.00032
2715.14950	0.00043
2713.22112	0.00052
2711.29275	0.00060
2709.36438	0.00072
2707.43600	0.00084
2705.50763	0.00095
2703.57926	0.00090
2701.65088	0.00081
2699.72251	0.00087
2697.79414	0.00097
2695.86576	0.00098
2693.93739	0.00096
2692.00902	0.00100
2690.08064	0.00113
2688.15227	0.00126
2686.22390	0.00134
2684.29552	0.00140
2682.36715	0.00138
2680.43878	0.00129
2678.51040	0.00130
2676.58203	0.00137
2674.65366	0.00149
2672.72528	0.00162
2670.79691	0.00172
2668.86854	0.00179
2666.94016	0.00185
2665.01179	0.00192
2663.08342	0.00206
2661.15505	0.00225
2659.22667	0.00242
2657.29830	0.00260
2655.36993	0.00277
2653.44155	0.00292
2651.51318	0.00298
2649.58481	0.00286
2647.65643	0.00282
2645.72806	0.00306
2643.79969	0.00337
2641.87131	0.00350
2639.94294	0.00360
2638.01457	0.00387
2636.08619	0.00418
2634.15782	0.00436
2632.22945	0.00444
2630.30107	0.00454
2628.37270	0.00468
2626.44433	0.00483
2624.51595	0.00498
2622.58758	0.00519
2620.65921	0.00553
2618.73083	0.00595
2616.80246	0.00629
2614.87409	0.00651
2612.94571	0.00676
2611.01734	0.00711
2609.08897	0.00747
2607.16059	0.00773
2605.23222	0.00804
2603.30385	0.00844
2601.37548	0.00878
2599.44710	0.00894
2597.51873	0.00905
2595.59036	0.00937
2593.66198	0.00992
2591.73361	0.01049
2589.80524	0.01098
2587.87686	0.01138
2585.94849	0.01176
2584.02012	0.01212
2582.09174	0.01242
2580.16337	0.01281
2578.23500	0.01330
2576.30662	0.01376
2574.37825	0.01420
2572.44988	0.01468
2570.52150	0.01513
2568.59313	0.01561
2566.66476	0.01622
2564.73638	0.01684
2562.80801	0.01726
2560.87964	0.01754
2558.95126	0.01789
2557.02289	0.01848
2555.09452	0.01927
2553.16614	0.01997
2551.23777	0.02047
2549.30940	0.02093
2547.38103	0.02147
2545.45265	0.02203
2543.52428	0.02255
2541.59591	0.02301
2539.66753	0.02346
2537.73916	0.02395
2535.81079	0.02443
2533.88241	0.02489
2531.95404	0.02541
2530.02567	0.02600
2528.09729	0.02659
2526.16892	0.02717
2524.24055	0.02779
2522.31217	0.02843
2520.38380	0.02903
2518.45543	0.02964
2516.52705	0.03039
2514.59868	0.03124
2512.67031	0.03204
2510.74193	0.03281
2508.81356	0.03354
2506.88519	0.03413
2504.95681	0.03470
2503.02844	0.03537
2501.10007	0.03603
2499.17169	0.03669
2497.24332	0.03739
2495.31495	0.03809
2493.38657	0.03877
2491.45820	0.03950
2489.52983	0.04029
2487.60146	0.04110
2485.67308	0.04185
2483.74471	0.04249
2481.81634	0.04318
2479.88796	0.04401
2477.95959	0.04494
2476.03122	0.04589
2474.10284	0.04678
2472.17447	0.04758
2470.24610	0.04847
2468.31772	0.04962
2466.38935	0.05092
2464.46098	0.05215
2462.53260	0.05328
2460.60423	0.05443
2458.67586	0.05561
2456.74748	0.05676
2454.81911	0.05801
2452.89074	0.05944
2450.96236	0.06085
2449.03399	0.06218
2447.10562	0.06349
2445.17724	0.06486
2443.24887	0.06623
2441.32050	0.06752
2439.39212	0.06878
2437.46375	0.07017
2435.53538	0.07165
2433.60700	0.07302
2431.67863	0.07429
2429.75026	0.07557
2427.82189	0.07689
2425.89351	0.07819
2423.96514	0.07946
2422.03677	0.08073
2420.10839	0.08212
2418.18002	0.08359
2416.25165	0.08502
2414.32327	0.08635
2412.39490	0.08771
2410.46653	0.08929
2408.53815	0.09097
2406.60978	0.09250
2404.68141	0.09399
2402.75303	0.09562
2400.82466	0.09740
2398.89629	0.09925
2396.96791	0.10109
2395.03954	0.10295
2393.11117	0.10483
2391.18279	0.10668
2389.25442	0.10846
2387.32605	0.11011
2385.39767	0.11162
2383.46930	0.11308
2381.54093	0.11442
2379.61255	0.11554
2377.68418	0.11652
2375.75581	0.11742
2373.82744	0.11829
2371.89906	0.11925
2369.97069	0.12023
2368.04232	0.12116
2366.11394	0.12213
2364.18557	0.12319
2362.25720	0.12454
2360.32882	0.12652
2358.40045	0.12887
2356.47208	0.13128
2354.54370	0.13375
2352.61533	0.13625
2350.68696	0.13847
2348.75858	0.14002
2346.83021	0.14087
2344.90184	0.14139
2342.97346	0.14220
2341.04509	0.14344
2339.11672	0.14476
2337.18834	0.14608
2335.25997	0.14754
2333.33160	0.14905
2331.40322	0.15034
2329.47485	0.15177
2327.54648	0.15355
2325.61810	0.15507
2323.68973	0.15644
2321.76136	0.15840
2319.83298	0.16084
2317.90461	0.16309
2315.97624	0.16512
2314.04787	0.16727
2312.11949	0.16963
2310.19112	0.17212
2308.26275	0.17474
2306.33437	0.17731
2304.40600	0.17975
2302.47763	0.18219
2300.54925	0.18467
2298.62088	0.18706
2296.69251	0.18932
2294.76413	0.19148
2292.83576	0.19366
2290.90739	0.19593
2288.97901	0.19820
2287.05064	0.20038
2285.12227	0.20243
2283.19389	0.20439
2281.26552	0.20625
2279.33715	0.20800
2277.40877	0.20964
2275.48040	0.21121
2273.55203	0.21277
2271.62365	0.21437
2269.69528	0.21598
2267.76691	0.21752
2265.83853	0.21899
2263.91016	0.22045
2261.98179	0.22194
2260.05342	0.22343
2258.12504	0.22499
2256.19667	0.22670
2254.26830	0.22850
2252.33992	0.23023
2250.41155	0.23192
2248.48318	0.23364
2246.55480	0.23532
2244.62643	0.23693
2242.69806	0.23851
2240.76968	0.24004
2238.84131	0.24152
2236.91294	0.24291
2234.98456	0.24416
2233.05619	0.24536
2231.12782	0.24654
2229.19944	0.24764
2227.27107	0.24878
2225.34270	0.25002
2223.41432	0.25124
2221.48595	0.25243
2219.55758	0.25369
2217.62920	0.25499
2215.70083	0.25626
2213.77246	0.25748
2211.84408	0.25865
2209.91571	0.25985
2207.98734	0.26106
2206.05896	0.26224
2204.13059	0.26338
2202.20222	0.26438
2200.27385	0.26521
2198.34547	0.26605
2196.41710	0.26700
2194.48873	0.26800
2192.56035	0.26891
2190.63198	0.26974
2188.70361	0.27057
2186.77523	0.27146
2184.84686	0.27238
2182.91849	0.27325
2180.99011	0.27400
2179.06174	0.27466
2177.13337	0.27532
2175.20499	0.27590
2173.27662	0.27630
2171.34825	0.27667
2169.41987	0.27708
2167.49150	0.27746
2165.56313	0.27781
2163.63475	0.27817
2161.70638	0.27854
2159.77801	0.27892
2157.84963	0.27934
2155.92126	0.27984
2153.99289	0.28042
2152.06451	0.28100
2150.13614	0.28155
2148.20777	0.28213
2146.27940	0.28283
2144.35102	0.28359
2142.42265	0.28439
2140.49428	0.28516
2138.56590	0.28582
2136.63753	0.28656
2134.70916	0.28756
2132.78078	0.28864
2130.85241	0.28957
2128.92404	0.29045
2126.99566	0.29156
2125.06729	0.29296
2123.13892	0.29446
2121.21054	0.29588
2119.28217	0.29721
2117.35380	0.29848
2115.42542	0.29969
2113.49705	0.30091
2111.56868	0.30227
2109.64030	0.30361
2107.71193	0.30472
2105.78356	0.30564
2103.85518	0.30659
2101.92681	0.30753
2099.99844	0.30835
2098.07006	0.30905
2096.14169	0.30961
2094.21332	0.31002
2092.28494	0.31030
2090.35657	0.31051
2088.42820	0.31077
2086.49983	0.31101
2084.57145	0.31107
2082.64308	0.31099
2080.71471	0.31078
2078.78633	0.31042
2076.85796	0.30998
2074.92959	0.30953
2073.00121	0.30902
2071.07284	0.30843
2069.14447	0.30777
2067.21609	0.30697
2065.28772	0.30616
2063.35935	0.30577
2061.43097	0.30576
2059.50260	0.30580
2057.57423	0.30590
2055.64585	0.30622
2053.71748	0.30676
2051.78911	0.30739
2049.86073	0.30803
2047.93236	0.30871
2046.00399	0.30939
2044.07561	0.31002
2042.14724	0.31066
2040.21887	0.31147
2038.29049	0.31243
2036.36212	0.31322
2034.43375	0.31369
2032.50538	0.31401
2030.57700	0.31423
2028.64863	0.31429
2026.72026	0.31419
2024.79188	0.31404
2022.86351	0.31383
2020.93514	0.31334
2019.00676	0.31250
2017.07839	0.31199
2015.15002	0.31253
2013.22164	0.31341
2011.29327	0.31381
2009.36490	0.31397
2007.43652	0.31428
2005.50815	0.31473
2003.57978	0.31520
2001.65140	0.31566
1999.72303	0.31615
1997.79466	0.31667
1995.86628	0.31677
1993.93791	0.31591
1992.00954	0.31517
1990.08116	0.31589
1988.15279	0.31730
1986.22442	0.31840
1984.29604	0.31909
1982.36767	0.31941
1980.43930	0.31953
1978.51092	0.31964
1976.58255	0.31987
1974.65418	0.32022
1972.72581	0.32049
1970.79743	0.32025
1968.86906	0.31928
1966.94069	0.31883
1965.01231	0.31996
1963.08394	0.32139
1961.15557	0.32204
1959.22719	0.32237
1957.29882	0.32267
1955.37045	0.32301
1953.44207	0.32356
1951.51370	0.32412
1949.58533	0.32433
1947.65695	0.32399
1945.72858	0.32267
1943.80021	0.32076
1941.87183	0.32072
1939.94346	0.32321
1938.01509	0.32530
1936.08671	0.32568
1934.15834	0.32539
1932.22997	0.32528
1930.30159	0.32543
1928.37322	0.32545
1926.44485	0.32468
1924.51647	0.32275
1922.58810	0.32123
1920.65973	0.32085
1918.73135	0.32040
1916.80298	0.32124
1914.87461	0.32364
1912.94624	0.32454
1911.01786	0.32337
1909.08949	0.32240
1907.16112	0.32292
1905.23274	0.32380
1903.30437	0.32403
1901.37600	0.32389
1899.44762	0.32339
1897.51925	0.32204
1895.59088	0.32041
1893.66250	0.31941
1891.73413	0.31769
1889.80576	0.31532
1887.87738	0.31505
1885.94901	0.31596
1884.02064	0.31582
1882.09226	0.31502
1880.16389	0.31398
1878.23552	0.31272
1876.30714	0.31136
1874.37877	0.30959
1872.45040	0.30594
1870.52202	0.29938
1868.59365	0.29380
1866.66528	0.29433
1864.73690	0.29750
1862.80853	0.29841
1860.88016	0.29712
1858.95179	0.29534
1857.02341	0.29386
1855.09504	0.29248
1853.16667	0.29096
1851.23829	0.28887
1849.30992	0.28563
1847.38155	0.28105
1845.45317	0.27605
1843.52480	0.27446
1841.59643	0.27720
1839.66805	0.27892
1837.73968	0.27797
1835.81131	0.27660
1833.88293	0.27457
1831.95456	0.26957
1830.02619	0.26378
1828.09781	0.26163
1826.16944	0.26104
1824.24107	0.26005
1822.31269	0.25982
1820.38432	0.25860
1818.45595	0.25526
1816.52757	0.25116
1814.59920	0.24639
1812.67083	0.24002
1810.74245	0.23325
1808.81408	0.22817
1806.88571	0.22365
1804.95733	0.21745
1803.02896	0.20899
1801.10059	0.19970
1799.17222	0.19198
1797.24384	0.18543
1795.31547	0.17753
1793.38710	0.16739
1791.45872	0.15843
1789.53035	0.15353
1787.60198	0.14905
1785.67360	0.14232
1783.74523	0.13464
1781.81686	0.12725
1779.88848	0.12033
1777.96011	0.11400
1776.03174	0.10721
1774.10336	0.09879
1772.17499	0.08968
1770.24662	0.08270
1768.31824	0.07736
1766.38987	0.07154
1764.46150	0.06468
1762.53312	0.05614
1760.60475	0.04702
1758.67638	0.03891
1756.74800	0.03073
1754.81963	0.02297
1752.89126	0.01638
1750.96288	0.01039
1749.03451	0.00569
1747.10614	0.00301
1745.17777	0.00152
1743.24939	0.00066
1741.32102	0.00058
1739.39265	0.00073
1737.46427	0.00102
1735.53590	0.00137
1733.60753	0.00150
1731.67915	0.00128
1729.75078	0.00106
1727.82241	0.00096
1725.89403	0.00096
1723.96566	0.00096
1722.03729	0.00107
1720.10891	0.00121
1718.18054	0.00124
1716.25217	0.00112
1714.32379	0.00096
1712.39542	0.00093
1710.46705	0.00094
1708.53867	0.00092
1706.61030	0.00091
1704.68193	0.00095
1702.75355	0.00110
1700.82518	0.00139
1698.89681	0.00154
1696.96843	0.00132
1695.04006	0.00105
1693.11169	0.00093
1691.18331	0.00090
1689.25494	0.00084
1687.32657	0.00092
1685.39820	0.00126
1683.46982	0.00147
1681.54145	0.00144
1679.61308	0.00132
1677.68470	0.00113
1675.75633	0.00090
1673.82796	0.00072
1671.89958	0.00062
1669.97121	0.00063
1668.04284	0.00064
1666.11446	0.00058
1664.18609	0.00052
1662.25772	0.00055
1660.32934	0.00063
1658.40097	0.00079
1656.47260	0.00099
1654.54422	0.00128
1652.61585	0.00134
1650.68748	0.00108
1648.75910	0.00089
1646.83073	0.00069
1644.90236	0.00053
1642.97398	0.00045
1641.04561	0.00046
1639.11724	0.00054
1637.18886	0.00064
1635.26049	0.00067
1633.33212	0.00075
1631.40375	0.00086
1629.47537	0.00094
1627.54700	0.00105
1625.61863	0.00109
1623.69025	0.00094
1621.76188	0.00085
1619.83351	0.00097
1617.90513	0.00121
1615.97676	0.00132
1614.04839	0.00118
1612.12001	0.00100
1610.19164	0.00096
1608.26327	0.00101
1606.33489	0.00094
1604.40652	0.00081
1602.47815	0.00077
1600.54977	0.00077
1598.62140	0.00071
1596.69303	0.00065
1594.76465	0.00063
1592.83628	0.00059
1590.90791	0.00058
1588.97953	0.00063
1587.05116	0.00066
1585.12279	0.00065
1583.19441	0.00063
1581.26604	0.00064
1579.33767	0.00065
1577.40929	0.00068
1575.48092	0.00074
1573.55255	0.00078
1571.62418	0.00082
1569.69580	0.00084
1567.76743	0.00084
1565.83906	0.00079
1563.91068	0.00065
1561.98231	0.00057
1560.05394	0.00075
1558.12556	0.00090
1556.19719	0.00081
1554.26882	0.00081
1552.34044	0.00089
1550.41207	0.00096
1548.48370	0.00096
1546.55532	0.00087
1544.62695	0.00081
1542.69858	0.00102
1540.77020	0.00128
1538.84183	0.00113
1536.91346	0.00086
1534.98508	0.00085
1533.05671	0.00091
1531.12834	0.00082
1529.19996	0.00077
1527.27159	0.00077
1525.34322	0.00074
1523.41484	0.00077
1521.48647	0.00083
1519.55810	0.00087
1517.62972	0.00088
1515.70135	0.00087
1513.77298	0.00082
1511.84461	0.00071
1509.91623	0.00067
1507.98786	0.00086
1506.05949	0.00104
1504.13111	0.00093
1502.20274	0.00088
1500.27437	0.00099
1498.34599	0.00107
1496.41762	0.00101
1494.48925	0.00091
1492.56087	0.00087
1490.63250	0.00090
1488.70413	0.00090
1486.77575	0.00082
1484.84738	0.00074
1482.91901	0.00069
1480.99063	0.00065
1479.06226	0.00066
1477.13389	0.00075
1475.20551	0.00092
1473.27714	0.00115
1471.34877	0.00115
1469.42039	0.00097
1467.49202	0.00094
1465.56365	0.00106
1463.63527	0.00110
1461.70690	0.00107
1459.77853	0.00114
1457.85016	0.00143
1455.92178	0.00149
1453.99341	0.00114
1452.06504	0.00089
1450.13666	0.00087
1448.20829	0.00097
1446.27992	0.00099
1444.35154	0.00097
1442.42317	0.00101
1440.49480	0.00105
1438.56642	0.00105
1436.63805	0.00098
1434.70968	0.00090
1432.78130	0.00088
1430.85293	0.00089
1428.92456	0.00088
1426.99618	0.00082
1425.06781	0.00081
1423.13944	0.00087
1421.21106	0.00093
1419.28269	0.00091
1417.35432	0.00090
1415.42594	0.00111
1413.49757	0.00135
1411.56920	0.00133
1409.64082	0.00108
1407.71245	0.00094
1405.78408	0.00101
1403.85570	0.00107
1401.92733	0.00102
1399.99896	0.00092
1398.07059	0.00100
1396.14221	0.00129
1394.21384	0.00145
1392.28547	0.00133
1390.35709	0.00122
1388.42872	0.00125
1386.50035	0.00129
1384.57197	0.00125
1382.64360	0.00126
1380.71523	0.00134
1378.78685	0.00140
1376.85848	0.00144
1374.93011	0.00139
1373.00173	0.00133
1371.07336	0.00143
1369.14499	0.00156
1367.21661	0.00153
1365.28824	0.00140
1363.35987	0.00129
1361.43149	0.00112
1359.50312	0.00099
1357.57475	0.00107
1355.64637	0.00123
1353.71800	0.00130
1351.78963	0.00129
1349.86125	0.00117
1347.93288	0.00099
1346.00451	0.00096
1344.07614	0.00109
1342.14776	0.00121
1340.21939	0.00122
1338.29102	0.00118
1336.36264	0.00121
1334.43427	0.00128
1332.50590	0.00124
1330.57752	0.00108
1328.64915	0.00101
1326.72078	0.00115
1324.79240	0.00124
1322.86403	0.00120
1320.93566	0.00124
1319.00728	0.00147
1317.07891	0.00165
1315.15054	0.00158
1313.22216	0.00147
1311.29379	0.00140
1309.36542	0.00134
1307.43704	0.00130
1305.50867	0.00133
1303.58030	0.00144
1301.65192	0.00149
1299.72355	0.00147
1297.79518	0.00145
1295.86680	0.00149
1293.93843	0.00158
1292.01006	0.00166
1290.08168	0.00174
1288.15331	0.00179
1286.22494	0.00179
1284.29657	0.00176
1282.36819	0.00161
1280.43982	0.00143
1278.51145	0.00143
1276.58307	0.00156
1274.65470	0.00168
1272.72633	0.00176
1270.79795	0.00182
1268.86958	0.00189
1266.94121	0.00194
1265.01283	0.00195
1263.08446	0.00193
1261.15609	0.00194
1259.22771	0.00193
1257.29934	0.00192
1255.37097	0.00203
1253.44259	0.00224
1251.51422	0.00244
1249.58585	0.00259
1247.65747	0.00268
1245.72910	0.00269
1243.80073	0.00259
1241.87235	0.00252
1239.94398	0.00239
1238.01561	0.00219
1236.08723	0.00227
1234.15886	0.00253
1232.23049	0.00262
1230.30212	0.00259
1228.37374	0.00255
1226.44537	0.00255
1224.51700	0.00271
1222.58862	0.00301
1220.66025	0.00308
1218.73188	0.00291
1216.80350	0.00277
1214.87513	0.00274
1212.94676	0.00289
1211.01838	0.00325
1209.09001	0.00337
1207.16164	0.00303
1205.23326	0.00268
1203.30489	0.00261
1201.37652	0.00258
1199.44814	0.00250
1197.51977	0.00252
1195.59140	0.00277
1193.66302	0.00299
1191.73465	0.00286
1189.80628	0.00263
1187.87790	0.00261
1185.94953	0.00266
1184.02116	0.00270
1182.09278	0.00268
1180.16441	0.00267
1178.23604	0.00271
1176.30766	0.00269
1174.37929	0.00259
1172.45092	0.00251
1170.52255	0.00257
1168.59417	0.00273
1166.66580	0.00288
1164.73743	0.00298
1162.80905	0.00308
1160.88068	0.00316
1158.95231	0.00313
1157.02393	0.00314
1155.09556	0.00329
1153.16719	0.00342
1151.23881	0.00344
1149.31044	0.00338
1147.38207	0.00318
1145.45369	0.00295
1143.52532	0.00285
1141.59695	0.00285
1139.66857	0.00281
1137.74020	0.00271
1135.81183	0.00289
1133.88345	0.00343
1131.95508	0.00375
1130.02671	0.00357
1128.09833	0.00321
1126.16996	0.00301
1124.24159	0.00307
1122.31321	0.00315
1120.38484	0.00314
1118.45647	0.00328
1116.52809	0.00348
1114.59972	0.00341
1112.67135	0.00323
1110.74298	0.00310
1108.81460	0.00294
1106.88623	0.00290
1104.95786	0.00304
1103.02948	0.00313
1101.10111	0.00304
1099.17274	0.00292
1097.24436	0.00288
1095.31599	0.00307
1093.38762	0.00333
1091.45924	0.00330
1089.53087	0.00309
1087.60250	0.00301
1085.67412	0.00304
1083.74575	0.00310
1081.81738	0.00321
1079.88900	0.00332
1077.96063	0.00325
1076.03226	0.00318
1074.10388	0.00321
1072.17551	0.00323
1070.24714	0.00322
1068.31876	0.00328
1066.39039	0.00333
1064.46202	0.00321
1062.53364	0.00312
1060.60527	0.00326
1058.67690	0.00343
1056.74853	0.00344
1054.82015	0.00331
1052.89178	0.00301
1050.96341	0.00264
1049.03503	0.00256
1047.10666	0.00281
1045.17829	0.00308
1043.24991	0.00319
1041.32154	0.00319
1039.39317	0.00313
1037.46479	0.00293
1035.53642	0.00261
1033.60805	0.00259
1031.67967	0.00294
1029.75130	0.00337
1027.82293	0.00355
1025.89455	0.00341
1023.96618	0.00317
1022.03781	0.00310
1020.10943	0.00314
1018.18106	0.00309
1016.25269	0.00282
1014.32431	0.00247
1012.39594	0.00228
1010.46757	0.00221
1008.53919	0.00232
1006.61082	0.00266
1004.68245	0.00281
1002.75407	0.00268
1000.82570	0.00265
998.89733	0.00268
996.96896	0.00255
995.04058	0.00249
993.11221	0.00268
991.18384	0.00294
989.25546	0.00325
987.32709	0.00373
985.39872	0.00407
983.47034	0.00406
981.54197	0.00396
979.61360	0.00405
977.68522	0.00415
975.75685	0.00416
973.82848	0.00422
971.90010	0.00459
969.97173	0.00572
968.04336	0.00767
966.11498	0.00981
964.18661	0.01132
962.25824	0.01143
960.32986	0.00976
958.40149	0.00691
956.47312	0.00452
954.54474	0.00357
952.61637	0.00387
950.68800	0.00533
948.75962	0.00761
946.83125	0.01029
944.90288	0.01291
942.97451	0.01501
941.04613	0.01682
939.11776	0.01870
937.18939	0.02041
935.26101	0.02147
933.33264	0.02190
931.40427	0.02210
929.47589	0.02221
927.54752	0.02210
925.61915	0.02165
923.69077	0.02085
921.76240	0.01992
919.83403	0.01938
917.90565	0.01944
915.97728	0.01971
914.04891	0.01983
912.12053	0.01963
910.19216	0.01872
908.26379	0.01677
906.33541	0.01410
904.40704	0.01170
902.47867	0.01011
900.55029	0.00901
898.62192	0.00804
896.69355	0.00722
894.76517	0.00652
892.83680	0.00599
890.90843	0.00578
888.98005	0.00577
887.05168	0.00586
885.12331	0.00619
883.19494	0.00659
881.26656	0.00668
879.33819	0.00653
877.40982	0.00641
875.48144	0.00643
873.55307	0.00651
871.62470	0.00664
869.69632	0.00684
867.76795	0.00689
865.83958	0.00650
863.91120	0.00601
861.98283	0.00593
860.05446	0.00595
858.12608	0.00594
856.19771	0.00604
854.26934	0.00600
852.34096	0.00576
850.41259	0.00567
848.48422	0.00576
846.55584	0.00573
844.62747	0.00561
842.69910	0.00527
840.77072	0.00475
838.84235	0.00443
836.91398	0.00460
834.98560	0.00511
833.05723	0.00532
831.12886	0.00500
829.20049	0.00480
827.27211	0.00511
825.34374	0.00552
823.41537	0.00543
821.48699	0.00509
819.55862	0.00510
817.63025	0.00535
815.70187	0.00536
813.77350	0.00491
811.84513	0.00432
809.91675	0.00433
807.98838	0.00498
806.06001	0.00547
804.13163	0.00516
802.20326	0.00452
800.27489	0.00429
798.34651	0.00448
796.41814	0.00453
794.48977	0.00453
792.56139	0.00506
790.63302	0.00562
788.70465	0.00567
786.77627	0.00543
784.84790	0.00504
782.91953	0.00454
780.99115	0.00439
779.06278	0.00480
777.13441	0.00534
775.20603	0.00554
773.27766	0.00518
771.34929	0.00464
769.42092	0.00423
767.49254	0.00396
765.56417	0.00380
763.63580	0.00390
761.70742	0.00428
759.77905	0.00464
757.85068	0.00479
755.92230	0.00507
753.99393	0.00542
752.06556	0.00531
750.13718	0.00497
748.20881	0.00491
746.28044	0.00521
744.35206	0.00549
742.42369	0.00567
740.49532	0.00581
738.56694	0.00565
736.63857	0.00493
734.71020	0.00418
732.78182	0.00411
730.85345	0.00455
728.92508	0.00514
726.99670	0.00574
725.06833	0.00593
723.13996	0.00559
721.21158	0.00516
719.28321	0.00503
717.35484	0.00537
715.42647	0.00571
713.49809	0.00555
711.56972	0.00535
709.64135	0.00583
707.71297	0.00631
705.78460	0.00645
703.85623	0.00646
701.92785	0.00650
699.99948	0.00684
698.07111	0.00725
696.14273	0.00723
694.21436	0.00702
692.28599	0.00696
690.35761	0.00731
688.42924	0.00779
686.50087	0.00806
684.57249	0.00846
682.64412	0.00880
680.71575	0.00922
678.78737	0.01004
676.85900	0.01047
674.93063	0.00994
673.00225	0.00935
671.07388	0.01055
669.14551	0.01420
667.21713	0.01501
665.28876	0.01190
663.36039	0.01032
661.43201	0.01039
659.50364	0.01104
657.57527	0.01174
655.64690	0.01214
653.71852	0.01197
651.79015	0.01154
649.86178	0.01156
647.93340	0.01204
646.00503	0.01211
644.07666	0.01125
642.14828	0.01112
640.21991	0.01257
638.29154	0.01384
636.36316	0.01394
634.43479	0.01385
632.50642	0.01394
630.57804	0.01386
628.64967	0.01360
626.72130	0.01394
624.79292	0.01544
622.86455	0.01778
620.93618	0.01914
619.00780	0.01865
617.07943	0.01733
615.15106	0.01601
613.22268	0.01610
611.29431	0.01854
609.36594	0.02144
607.43756	0.02193
605.50919	0.02110
603.58082	0.02355
601.65244	0.02946
599.72407	0.03429
