3997.51769	0.31340
3995.58931	0.31406
3993.66094	0.31496
3991.73257	0.31597
3989.80419	0.31620
3987.87582	0.31578
3985.94745	0.31583
3984.01907	0.31617
3982.09070	0.31624
3980.16233	0.31662
3978.23396	0.31727
3976.30558	0.31744
3974.37721	0.31729
3972.44884	0.31749
3970.52046	0.31794
3968.59209	0.31816
3966.66372	0.31841
3964.73534	0.31919
3962.80697	0.32016
3960.87860	0.32081
3958.95022	0.32136
3957.02185	0.32212
3955.09348	0.32302
3953.16510	0.32393
3951.23673	0.32470
3949.30836	0.32507
3947.37998	0.32516
3945.45161	0.32565
3943.52324	0.32667
3941.59486	0.32732
3939.66649	0.32758
3937.73812	0.32811
3935.80974	0.32880
3933.88137	0.32966
3931.95300	0.33063
3930.02462	0.33102
3928.09625	0.33109
3926.16788	0.33178
3924.23950	0.33284
3922.31113	0.33337
3920.38276	0.33375
3918.45439	0.33457
3916.52601	0.33497
3914.59764	0.33453
3912.66927	0.33425
3910.74089	0.33474
3908.81252	0.33575
3906.88415	0.33738
3904.95577	0.33995
3903.02740	0.34253
3901.09903	0.34401
3899.17065	0.34405
3897.24228	0.34313
3895.31391	0.34301
3893.38553	0.34425
3891.45716	0.34536
3889.52879	0.34543
3887.60041	0.34608
3885.67204	0.34749
3883.74367	0.34837
3881.81529	0.34933
3879.88692	0.34991
3877.95855	0.34922
3876.03017	0.34948
3874.10180	0.35153
3872.17343	0.35396
3870.24505	0.35556
3868.31668	0.35534
3866.38831	0.35496
3864.45994	0.35590
3862.53156	0.35630
3860.60319	0.35564
3858.67482	0.35587
3856.74644	0.35794
3854.81807	0.36227
3852.88970	0.36520
3850.96132	0.36176
3849.03295	0.35792
3847.10458	0.35666
3845.17620	0.35761
3843.24783	0.35961
3841.31946	0.36149
3839.39108	0.36293
3837.46271	0.36320
3835.53434	0.36220
3833.60596	0.36145
3831.67759	0.36088
3829.74922	0.36022
3827.82084	0.36019
3825.89247	0.36067
3823.96410	0.36201
3822.03572	0.36499
3820.10735	0.36659
3818.17898	0.36550
3816.25060	0.36395
3814.32223	0.36130
3812.39386	0.35882
3810.46548	0.35840
3808.53711	0.36022
3806.60874	0.36253
3804.68037	0.36373
3802.75199	0.36532
3800.82362	0.36621
3798.89525	0.36453
3796.96687	0.36247
3795.03850	0.36052
3793.11013	0.35900
3791.18175	0.35858
3789.25338	0.35871
3787.32501	0.35861
3785.39663	0.35836
3783.46826	0.35837
3781.53989	0.35878
3779.61151	0.35893
3777.68314	0.35796
3775.75477	0.35671
3773.82639	0.35624
3771.89802	0.35660
3769.96965	0.35737
3768.04127	0.35756
3766.11290	0.35709
3764.18453	0.35645
3762.25615	0.35647
3760.32778	0.35741
3758.39941	0.35729
3756.47103	0.35588
3754.54266	0.35615
3752.61429	0.35920
3750.68591	0.36181
3748.75754	0.36035
3746.82917	0.35803
3744.90080	0.35605
3742.97242	0.35347
3741.04405	0.35165
3739.11568	0.35179
3737.18730	0.35382
3735.25893	0.35552
3733.33056	0.35352
3731.40218	0.34895
3729.47381	0.34509
3727.54544	0.34299
3725.61706	0.34223
3723.68869	0.34142
3721.76032	0.33969
3719.83194	0.33750
3717.90357	0.33545
3715.97520	0.33392
3714.04682	0.33344
3712.11845	0.33386
3710.19008	0.33179
3708.26170	0.32629
3706.33333	0.32109
3704.40496	0.31780
3702.47658	0.31523
3700.54821	0.31107
3698.61984	0.30623
3696.69146	0.30251
3694.76309	0.29990
3692.83472	0.29801
3690.90635	0.29561
3688.97797	0.28943
3687.04960	0.27974
3685.12123	0.27164
3683.19285	0.26545
3681.26448	0.25929
3679.33611	0.25318
3677.40773	0.24752
3675.47936	0.23941
3673.55099	0.22922
3671.62261	0.22063
3669.69424	0.21024
3667.76587	0.19839
3665.83749	0.18856
3663.90912	0.17947
3661.98075	0.17040
3660.05237	0.16200
3658.12400	0.15407
3656.19563	0.14477
3654.26725	0.13573
3652.33888	0.12923
3650.41051	0.12245
3648.48213	0.11254
3646.55376	0.10241
3644.62539	0.09429
3642.69701	0.08713
3640.76864	0.08060
3638.84027	0.07502
3636.91189	0.06980
3634.98352	0.06435
3633.05515	0.05928
3631.12678	0.05492
3629.19840	0.04953
3627.27003	0.04367
3625.34166	0.03999
3623.41328	0.03732
3621.48491	0.03479
3619.55654	0.03203
3617.62816	0.02892
3615.69979	0.02597
3613.77142	0.02325
3611.84304	0.02101
3609.91467	0.01930
3607.98630	0.01760
3606.05792	0.01584
3604.12955	0.01437
3602.20118	0.01320
3600.27280	0.01222
3598.34443	0.01125
3596.41606	0.01004
3594.48768	0.00857
3592.55931	0.00714
3590.63094	0.00625
3588.70256	0.00608
3586.77419	0.00632
3584.84582	0.00610
3582.91744	0.00540
3580.98907	0.00468
3579.06070	0.00407
3577.13233	0.00350
3575.20395	0.00283
3573.27558	0.00214
3571.34721	0.00180
3569.41883	0.00173
3567.49046	0.00147
3565.56209	0.00119
3563.63371	0.00099
3561.70534	0.00087
3559.77697	0.00100
3557.84859	0.00105
3555.92022	0.00074
3553.99185	0.00031
3552.06347	0.00050
3550.13510	0.00059
3548.20673	0.00094
3546.27835	0.00120
3544.34998	0.00095
3542.42161	0.00045
3540.49323	0.00044
3538.56486	0.00062
3536.63649	0.00039
3534.70811	0.00037
3532.77974	0.00074
3530.85137	0.00087
3528.92299	0.00098
3526.99462	0.00121
3525.06625	0.00136
3523.13787	0.00128
3521.20950	0.00123
3519.28113	0.00113
3517.35276	0.00079
3515.42438	0.00056
3513.49601	0.00058
3511.56764	0.00037
3509.63926	0.00069
3507.71089	0.00093
3505.78252	0.00104
3503.85414	0.00134
3501.92577	0.00138
3499.99740	0.00109
3498.06902	0.00088
3496.14065	0.00099
3494.21228	0.00105
3492.28390	0.00108
3490.35553	0.00102
3488.42716	0.00075
3486.49878	0.00069
3484.57041	0.00091
3482.64204	0.00118
3480.71366	0.00122
3478.78529	0.00136
3476.85692	0.00135
3474.92854	0.00078
3473.00017	0.00036
3471.07180	0.00067
3469.14342	0.00092
3467.21505	0.00065
3465.28668	0.00061
3463.35831	0.00057
3461.42993	0.00043
3459.50156	0.00053
3457.57319	0.00069
3455.64481	0.00059
3453.71644	0.00054
3451.78807	0.00039
3449.85969	0.00090
3447.93132	0.00131
3446.00295	0.00104
3444.07457	0.00048
3442.14620	0.00060
3440.21783	0.00103
3438.28945	0.00066
3436.36108	0.00048
3434.43271	0.00051
3432.50433	0.00045
3430.57596	0.00102
3428.64759	0.00097
3426.71921	0.00056
3424.79084	0.00057
3422.86247	0.00086
3420.93409	0.00088
3419.00572	0.00058
3417.07735	0.00041
3415.14897	0.00089
3413.22060	0.00112
3411.29223	0.00084
3409.36385	0.00070
3407.43548	0.00104
3405.50711	0.00147
3403.57874	0.00138
3401.65036	0.00126
3399.72199	0.00104
3397.79362	0.00067
3395.86524	0.00082
3393.93687	0.00104
3392.00850	0.00081
3390.08012	0.00030
3388.15175	0.00033
3386.22338	0.00035
3384.29500	0.00067
3382.36663	0.00085
3380.43826	0.00069
3378.50988	0.00054
3376.58151	0.00046
3374.65314	0.00080
3372.72476	0.00078
3370.79639	0.00066
3368.86802	0.00051
3366.93964	0.00036
3365.01127	0.00045
3363.08290	0.00082
3361.15452	0.00109
3359.22615	0.00115
3357.29778	0.00088
3355.36940	0.00080
3353.44103	0.00085
3351.51266	0.00062
3349.58428	0.00047
3347.65591	0.00069
3345.72754	0.00095
3343.79917	0.00103
3341.87079	0.00086
3339.94242	0.00095
3338.01405	0.00100
3336.08567	0.00088
3334.15730	0.00117
3332.22893	0.00104
3330.30055	0.00057
3328.37218	0.00051
3326.44381	0.00046
3324.51543	0.00054
3322.58706	0.00041
3320.65869	0.00087
3318.73031	0.00098
3316.80194	0.00126
3314.87357	0.00138
3312.94519	0.00113
3311.01682	0.00079
3309.08845	0.00061
3307.16007	0.00064
3305.23170	0.00057
3303.30333	0.00069
3301.37495	0.00132
3299.44658	0.00125
3297.51821	0.00082
3295.58983	0.00052
3293.66146	0.00035
3291.73309	0.00074
3289.80472	0.00091
3287.87634	0.00061
3285.94797	0.00029
3284.01960	0.00043
3282.09122	0.00047
3280.16285	0.00085
3278.23448	0.00099
3276.30610	0.00079
3274.37773	0.00087
3272.44936	0.00124
3270.52098	0.00098
3268.59261	0.00043
3266.66424	0.00053
3264.73586	0.00065
3262.80749	0.00098
3260.87912	0.00080
3258.95074	0.00094
3257.02237	0.00094
3255.09400	0.00096
3253.16562	0.00075
3251.23725	0.00052
3249.30888	0.00043
3247.38050	0.00061
3245.45213	0.00067
3243.52376	0.00072
3241.59538	0.00073
3239.66701	0.00083
3237.73864	0.00064
3235.81026	0.00083
3233.88189	0.00070
3231.95352	0.00077
3230.02515	0.00101
3228.09677	0.00123
3226.16840	0.00117
3224.24003	0.00089
3222.31165	0.00056
3220.38328	0.00046
3218.45491	0.00045
3216.52653	0.00075
3214.59816	0.00101
3212.66979	0.00079
3210.74141	0.00063
3208.81304	0.00093
3206.88467	0.00099
3204.95629	0.00069
3203.02792	0.00078
3201.09955	0.00084
3199.17117	0.00064
3197.24280	0.00061
3195.31443	0.00045
3193.38605	0.00061
3191.45768	0.00047
3189.52931	0.00083
3187.60093	0.00097
3185.67256	0.00140
3183.74419	0.00089
3181.81581	0.00090
3179.88744	0.00095
3177.95907	0.00064
3176.03070	0.00050
3174.10232	0.00068
3172.17395	0.00044
3170.24558	0.00053
3168.31720	0.00078
3166.38883	0.00074
3164.46046	0.00096
3162.53208	0.00104
3160.60371	0.00090
3158.67534	0.00068
3156.74696	0.00086
3154.81859	0.00130
3152.89022	0.00125
3150.96184	0.00097
3149.03347	0.00032
3147.10510	0.00052
3145.17672	0.00100
3143.24835	0.00143
3141.31998	0.00139
3139.39160	0.00108
3137.46323	0.00054
3135.53486	0.00030
3133.60648	0.00054
3131.67811	0.00059
3129.74974	0.00055
3127.82136	0.00080
3125.89299	0.00103
3123.96462	0.00098
3122.03624	0.00092
3120.10787	0.00085
3118.17950	0.00090
3116.25113	0.00094
3114.32275	0.00087
3112.39438	0.00058
3110.46601	0.00043
3108.53763	0.00046
3106.60926	0.00045
3104.68089	0.00035
3102.75251	0.00041
3100.82414	0.00059
3098.89577	0.00053
3096.96739	0.00068
3095.03902	0.00078
3093.11065	0.00055
3091.18227	0.00080
3089.25390	0.00079
3087.32553	0.00082
3085.39715	0.00061
3083.46878	0.00053
3081.54041	0.00095
3079.61203	0.00108
3077.68366	0.00087
3075.75529	0.00077
3073.82691	0.00108
3071.89854	0.00110
3069.97017	0.00074
3068.04179	0.00021
3066.11342	0.00061
3064.18505	0.00100
3062.25668	0.00104
3060.32830	0.00069
3058.39993	0.00054
3056.47156	0.00065
3054.54318	0.00064
3052.61481	0.00053
3050.68644	0.00035
3048.75806	0.00024
3046.82969	0.00055
3044.90132	0.00055
3042.97294	0.00018
3041.04457	0.00059
3039.11620	0.00071
3037.18782	0.00072
3035.25945	0.00058
3033.33108	0.00065
3031.40270	0.00076
3029.47433	0.00045
3027.54596	0.00064
3025.61758	0.00084
3023.68921	0.00058
3021.76084	0.00072
3019.83246	0.00089
3017.90409	0.00041
3015.97572	0.00054
3014.04734	0.00045
3012.11897	0.00079
3010.19060	0.00114
3008.26222	0.00096
3006.33385	0.00068
3004.40548	0.00041
3002.47711	0.00039
3000.54873	0.00086
2998.62036	0.00146
2996.69199	0.00148
2994.76361	0.00087
2992.83524	0.00045
2990.90687	0.00071
2988.97849	0.00049
2987.05012	0.00077
2985.12175	0.00066
2983.19337	0.00075
2981.26500	0.00076
2979.33663	0.00095
2977.40825	0.00075
2975.47988	0.00052
2973.55151	0.00097
2971.62313	0.00086
2969.69476	0.00064
2967.76639	0.00086
2965.83801	0.00121
2963.90964	0.00091
2961.98127	0.00107
2960.05289	0.00146
2958.12452	0.00152
2956.19615	0.00120
2954.26777	0.00099
2952.33940	0.00095
2950.41103	0.00103
2948.48266	0.00112
2946.55428	0.00079
2944.62591	0.00081
2942.69754	0.00141
2940.76916	0.00119
2938.84079	0.00073
2936.91242	0.00079
2934.98404	0.00122
2933.05567	0.00129
2931.12730	0.00117
2929.19892	0.00118
2927.27055	0.00080
2925.34218	0.00052
2923.41380	0.00075
2921.48543	0.00099
2919.55706	0.00134
2917.62868	0.00142
2915.70031	0.00126
2913.77194	0.00111
2911.84356	0.00102
2909.91519	0.00070
2907.98682	0.00088
2906.05844	0.00070
2904.13007	0.00062
2902.20170	0.00085
2900.27332	0.00051
2898.34495	0.00029
2896.41658	0.00033
2894.48820	0.00056
2892.55983	0.00087
2890.63146	0.00118
2888.70309	0.00112
2886.77471	0.00104
2884.84634	0.00074
2882.91797	0.00053
2880.98959	0.00088
2879.06122	0.00112
2877.13285	0.00103
2875.20447	0.00084
2873.27610	0.00062
2871.34773	0.00028
2869.41935	0.00047
2867.49098	0.00068
2865.56261	0.00052
2863.63423	0.00049
2861.70586	0.00073
2859.77749	0.00072
2857.84911	0.00049
2855.92074	0.00068
2853.99237	0.00086
2852.06399	0.00080
2850.13562	0.00075
2848.20725	0.00068
2846.27887	0.00041
2844.35050	0.00057
2842.42213	0.00083
2840.49375	0.00067
2838.56538	0.00072
2836.63701	0.00058
2834.70863	0.00035
2832.78026	0.00050
2830.85189	0.00048
2828.92352	0.00050
2826.99514	0.00070
2825.06677	0.00081
2823.13840	0.00077
2821.21002	0.00087
2819.28165	0.00092
2817.35328	0.00091
2815.42490	0.00056
2813.49653	0.00056
2811.56816	0.00096
2809.63978	0.00068
2807.71141	0.00060
2805.78304	0.00057
2803.85466	0.00075
2801.92629	0.00101
2799.99792	0.00109
2798.06954	0.00109
2796.14117	0.00097
2794.21280	0.00063
2792.28442	0.00023
2790.35605	0.00045
2788.42768	0.00083
2786.49930	0.00095
2784.57093	0.00081
2782.64256	0.00064
2780.71418	0.00064
2778.78581	0.00024
2776.85744	0.00029
2774.92907	0.00063
2773.00069	0.00069
2771.07232	0.00061
2769.14395	0.00062
2767.21557	0.00058
2765.28720	0.00034
2763.35883	0.00032
2761.43045	0.00025
2759.50208	0.00050
2757.57371	0.00092
2755.64533	0.00130
2753.71696	0.00153
2751.78859	0.00138
2749.86021	0.00109
2747.93184	0.00099
2746.00347	0.00116
2744.07509	0.00155
2742.14672	0.00148
2740.21835	0.00129
2738.28997	0.00124
2736.36160	0.00128
2734.43323	0.00145
2732.50485	0.00155
2730.57648	0.00153
2728.64811	0.00141
2726.71973	0.00118
2724.79136	0.00107
2722.86299	0.00115
2720.93461	0.00150
2719.00624	0.00183
2717.07787	0.00188
2715.14950	0.00180
2713.22112	0.00179
2711.29275	0.00183
2709.36438	0.00198
2707.43600	0.00217
2705.50763	0.00229
2703.57926	0.00234
2701.65088	0.00240
2699.72251	0.00238
2697.79414	0.00224
2695.86576	0.00231
2693.93739	0.00234
2692.00902	0.00238
2690.08064	0.00239
2688.15227	0.00223
2686.22390	0.00212
2684.29552	0.00226
2682.36715	0.00254
2680.43878	0.00291
2678.51040	0.00317
2676.58203	0.00307
2674.65366	0.00289
2672.72528	0.00294
2670.79691	0.00310
2668.86854	0.00310
2666.94016	0.00295
2665.01179	0.00307
2663.08342	0.00333
2661.15505	0.00329
2659.22667	0.00313
2657.29830	0.00310
2655.36993	0.00309
2653.44155	0.00324
2651.51318	0.00373
2649.58481	0.00426
2647.65643	0.00433
2645.72806	0.00400
2643.79969	0.00400
2641.87131	0.00455
2639.94294	0.00514
2638.01457	0.00545
2636.08619	0.00562
2634.15782	0.00571
2632.22945	0.00559
2630.30107	0.00534
2628.37270	0.00518
2626.44433	0.00544
2624.51595	0.00612
2622.58758	0.00658
2620.65921	0.00663
2618.73083	0.00665
2616.80246	0.00669
2614.87409	0.00667
2612.94571	0.00668
2611.01734	0.00681
2609.08897	0.00717
2607.16059	0.00753
2605.23222	0.00778
2603.30385	0.00823
2601.37548	0.00876
2599.44710	0.00907
2597.51873	0.00921
2595.59036	0.00932
2593.66198	0.00950
2591.73361	0.00978
2589.80524	0.01008
2587.87686	0.01043
2585.94849	0.01091
2584.02012	0.01143
2582.09174	0.01179
2580.16337	0.01194
2578.23500	0.01198
2576.30662	0.01210
2574.37825	0.01232
2572.44988	0.01259
2570.52150	0.01302
2568.59313	0.01343
2566.66476	0.01358
2564.73638	0.01358
2562.80801	0.01382
2560.87964	0.01449
2558.95126	0.01529
2557.02289	0.01580
2555.09452	0.01593
2553.16614	0.01593
2551.23777	0.01601
2549.30940	0.01621
2547.38103	0.01662
2545.45265	0.01718
2543.52428	0.01765
2541.59591	0.01802
2539.66753	0.01829
2537.73916	0.01839
2535.81079	0.01854
2533.88241	0.01892
2531.95404	0.01948
2530.02567	0.02010
2528.09729	0.02054
2526.16892	0.02082
2524.24055	0.02124
2522.31217	0.02174
2520.38380	0.02231
2518.45543	0.02307
2516.52705	0.02381
2514.59868	0.02414
2512.67031	0.02412
2510.74193	0.02444
2508.81356	0.02524
2506.88519	0.02586
2504.95681	0.02614
2503.02844	0.02642
2501.10007	0.02683
2499.17169	0.02719
2497.24332	0.02741
2495.31495	0.02769
2493.38657	0.02820
2491.45820	0.02876
2489.52983	0.02915
2487.60146	0.02945
2485.67308	0.02982
2483.74471	0.03029
2481.81634	0.03085
2479.88796	0.03141
2477.95959	0.03188
2476.03122	0.03215
2474.10284	0.03225
2472.17447	0.03253
2470.24610	0.03338
2468.31772	0.03445
2466.38935	0.03530
2464.46098	0.03605
2462.53260	0.03678
2460.60423	0.03742
2458.67586	0.03805
2456.74748	0.03874
2454.81911	0.03948
2452.89074	0.04030
2450.96236	0.04122
2449.03399	0.04205
2447.10562	0.04271
2445.17724	0.04335
2443.24887	0.04398
2441.32050	0.04451
2439.39212	0.04521
2437.46375	0.04612
2435.53538	0.04684
2433.60700	0.04732
2431.67863	0.04782
2429.75026	0.04843
2427.82189	0.04920
2425.89351	0.04995
2423.96514	0.05058
2422.03677	0.05135
2420.10839	0.05227
2418.18002	0.05309
2416.25165	0.05375
2414.32327	0.05438
2412.39490	0.05511
2410.46653	0.05596
2408.53815	0.05673
2406.60978	0.05736
2404.68141	0.05808
2402.75303	0.05907
2400.82466	0.06021
2398.89629	0.06129
2396.96791	0.06221
2395.03954	0.06300
2393.11117	0.06377
2391.18279	0.06458
2389.25442	0.06549
2387.32605	0.06651
2385.39767	0.06766
2383.46930	0.06881
2381.54093	0.06997
2379.61255	0.07134
2377.68418	0.07270
2375.75581	0.07372
2373.82744	0.07480
2371.89906	0.07612
2369.97069	0.07700
2368.04232	0.07753
2366.11394	0.07885
2364.18557	0.08128
2362.25720	0.08464
2360.32882	0.08764
2358.40045	0.08811
2356.47208	0.08713
2354.54370	0.08663
2352.61533	0.08664
2350.68696	0.08712
2348.75858	0.08799
2346.83021	0.08883
2344.90184	0.08916
2342.97346	0.08947
2341.04509	0.09024
2339.11672	0.09116
2337.18834	0.09274
2335.25997	0.09463
2333.33160	0.09554
2331.40322	0.09505
2329.47485	0.09421
2327.54648	0.09424
2325.61810	0.09467
2323.68973	0.09492
2321.76136	0.09541
2319.83298	0.09611
2317.90461	0.09691
2315.97624	0.09800
2314.04787	0.09925
2312.11949	0.10034
2310.19112	0.10108
2308.26275	0.10166
2306.33437	0.10251
2304.40600	0.10365
2302.47763	0.10479
2300.54925	0.10567
2298.62088	0.10636
2296.69251	0.10731
2294.76413	0.10854
2292.83576	0.10974
2290.90739	0.11083
2288.97901	0.11173
2287.05064	0.11230
2285.12227	0.11290
2283.19389	0.11392
2281.26552	0.11507
2279.33715	0.11594
2277.40877	0.11652
2275.48040	0.11713
2273.55203	0.11793
2271.62365	0.11878
2269.69528	0.11963
2267.76691	0.12035
2265.83853	0.12078
2263.91016	0.12123
2261.98179	0.12189
2260.05342	0.12264
2258.12504	0.12339
2256.19667	0.12402
2254.26830	0.12465
2252.33992	0.12547
2250.41155	0.12643
2248.48318	0.12733
2246.55480	0.12810
2244.62643	0.12870
2242.69806	0.12917
2240.76968	0.12964
2238.84131	0.13017
2236.91294	0.13080
2234.98456	0.13153
2233.05619	0.13213
2231.12782	0.13256
2229.19944	0.13303
2227.27107	0.13357
2225.34270	0.13413
2223.41432	0.13467
2221.48595	0.13509
2219.55758	0.13538
2217.62920	0.13585
2215.70083	0.13644
2213.77246	0.13681
2211.84408	0.13705
2209.91571	0.13741
2207.98734	0.13791
2206.05896	0.13838
2204.13059	0.13885
2202.20222	0.13942
2200.27385	0.13993
2198.34547	0.14030
2196.41710	0.14076
2194.48873	0.14126
2192.56035	0.14155
2190.63198	0.14169
2188.70361	0.14187
2186.77523	0.14212
2184.84686	0.14243
2182.91849	0.14275
2180.99011	0.14311
2179.06174	0.14357
2177.13337	0.14399
2175.20499	0.14414
2173.27662	0.14400
2171.34825	0.14394
2169.41987	0.14412
2167.49150	0.14424
2165.56313	0.14422
2163.63475	0.14430
2161.70638	0.14464
2159.77801	0.14509
2157.84963	0.14532
2155.92126	0.14519
2153.99289	0.14504
2152.06451	0.14532
2150.13614	0.14594
2148.20777	0.14642
2146.27940	0.14662
2144.35102	0.14671
2142.42265	0.14687
2140.49428	0.14717
2138.56590	0.14745
2136.63753	0.14764
2134.70916	0.14789
2132.78078	0.14836
2130.85241	0.14906
2128.92404	0.14981
2126.99566	0.15038
2125.06729	0.15084
2123.13892	0.15131
2121.21054	0.15185
2119.28217	0.15262
2117.35380	0.15355
2115.42542	0.15437
2113.49705	0.15503
2111.56868	0.15559
2109.64030	0.15615
2107.71193	0.15682
2105.78356	0.15749
2103.85518	0.15799
2101.92681	0.15834
2099.99844	0.15867
2098.07006	0.15904
2096.14169	0.15947
2094.21332	0.15999
2092.28494	0.16055
2090.35657	0.16085
2088.42820	0.16075
2086.49983	0.16066
2084.57145	0.16088
2082.64308	0.16108
2080.71471	0.16109
2078.78633	0.16108
2076.85796	0.16121
2074.92959	0.16143
2073.00121	0.16144
2071.07284	0.16116
2069.14447	0.16088
2067.21609	0.16077
2065.28772	0.16064
2063.35935	0.16055
2061.43097	0.16078
2059.50260	0.16107
2057.57423	0.16107
2055.64585	0.16111
2053.71748	0.16152
2051.78911	0.16208
2049.86073	0.16267
2047.93236	0.16326
2046.00399	0.16373
2044.07561	0.16419
2042.14724	0.16480
2040.21887	0.16550
2038.29049	0.16614
2036.36212	0.16665
2034.43375	0.16696
2032.50538	0.16715
2030.57700	0.16740
2028.64863	0.16768
2026.72026	0.16792
2024.79188	0.16820
2022.86351	0.16846
2020.93514	0.16855
2019.00676	0.16858
2017.07839	0.16875
2015.15002	0.16894
2013.22164	0.16903
2011.29327	0.16920
2009.36490	0.16956
2007.43652	0.16992
2005.50815	0.17037
2003.57978	0.17097
2001.65140	0.17141
1999.72303	0.17174
1997.79466	0.17226
1995.86628	0.17277
1993.93791	0.17315
1992.00954	0.17350
1990.08116	0.17378
1988.15279	0.17394
1986.22442	0.17414
1984.29604	0.17451
1982.36767	0.17484
1980.43930	0.17494
1978.51092	0.17505
1976.58255	0.17537
1974.65418	0.17577
1972.72581	0.17614
1970.79743	0.17662
1968.86906	0.17731
1966.94069	0.17773
1965.01231	0.17771
1963.08394	0.17777
1961.15557	0.17797
1959.22719	0.17804
1957.29882	0.17828
1955.37045	0.17874
1953.44207	0.17910
1951.51370	0.17928
1949.58533	0.17947
1947.65695	0.17970
1945.72858	0.17985
1943.80021	0.18013
1941.87183	0.18035
1939.94346	0.18028
1938.01509	0.18026
1936.08671	0.18031
1934.15834	0.18016
1932.22997	0.17994
1930.30159	0.17982
1928.37322	0.17977
1926.44485	0.17989
1924.51647	0.18034
1922.58810	0.18073
1920.65973	0.18072
1918.73135	0.18065
1916.80298	0.18058
1914.87461	0.18036
1912.94624	0.18023
1911.01786	0.18025
1909.08949	0.18010
1907.16112	0.17969
1905.23274	0.17938
1903.30437	0.17940
1901.37600	0.17940
1899.44762	0.17914
1897.51925	0.17879
1895.59088	0.17850
1893.66250	0.17827
1891.73413	0.17813
1889.80576	0.17779
1887.87738	0.17700
1885.94901	0.17614
1884.02064	0.17547
1882.09226	0.17485
1880.16389	0.17423
1878.23552	0.17359
1876.30714	0.17303
1874.37877	0.17248
1872.45040	0.17195
1870.52202	0.17174
1868.59365	0.17143
1866.66528	0.17010
1864.73690	0.16829
1862.80853	0.16699
1860.88016	0.16625
1858.95179	0.16560
1857.02341	0.16484
1855.09504	0.16402
1853.16667	0.16330
1851.23829	0.16283
1849.30992	0.16265
1847.38155	0.16258
1845.45317	0.16245
1843.52480	0.16162
1841.59643	0.16014
1839.66805	0.15915
1837.73968	0.15884
1835.81131	0.15858
1833.88293	0.15819
1831.95456	0.15797
1830.02619	0.15778
1828.09781	0.15716
1826.16944	0.15622
1824.24107	0.15484
1822.31269	0.15305
1820.38432	0.15125
1818.45595	0.14958
1816.52757	0.14792
1814.59920	0.14639
1812.67083	0.14490
1810.74245	0.14278
1808.81408	0.14011
1806.88571	0.13749
1804.95733	0.13504
1803.02896	0.13282
1801.10059	0.13046
1799.17222	0.12756
1797.24384	0.12465
1795.31547	0.12234
1793.38710	0.12014
1791.45872	0.11700
1789.53035	0.11336
1787.60198	0.11013
1785.67360	0.10711
1783.74523	0.10415
1781.81686	0.10137
1779.88848	0.09854
1777.96011	0.09564
1776.03174	0.09293
1774.10336	0.09008
1772.17499	0.08617
1770.24662	0.08121
1768.31824	0.07603
1766.38987	0.07103
1764.46150	0.06661
1762.53312	0.06172
1760.60475	0.05574
1758.67638	0.04983
1756.74800	0.04376
1754.81963	0.03791
1752.89126	0.03273
1750.96288	0.02709
1749.03451	0.02088
1747.10614	0.01551
1745.17777	0.01123
1743.24939	0.00788
1741.32102	0.00561
1739.39265	0.00416
1737.46427	0.00285
1735.53590	0.00139
1733.60753	0.00079
1731.67915	0.00119
1729.75078	0.00122
1727.82241	0.00073
1725.89403	0.00091
1723.96566	0.00109
1722.03729	0.00120
1720.10891	0.00125
1718.18054	0.00129
1716.25217	0.00104
1714.32379	0.00063
1712.39542	0.00067
1710.46705	0.00070
1708.53867	0.00059
1706.61030	0.00076
1704.68193	0.00061
1702.75355	0.00042
1700.82518	0.00044
1698.89681	0.00063
1696.96843	0.00069
1695.04006	0.00069
1693.11169	0.00041
1691.18331	0.00032
1689.25494	0.00061
1687.32657	0.00062
1685.39820	0.00044
1683.46982	0.00063
1681.54145	0.00098
1679.61308	0.00112
1677.68470	0.00084
1675.75633	0.00094
1673.82796	0.00107
1671.89958	0.00105
1669.97121	0.00072
1668.04284	0.00033
1666.11446	0.00018
1664.18609	0.00043
1662.25772	0.00051
1660.32934	0.00054
1658.40097	0.00065
1656.47260	0.00069
1654.54422	0.00085
1652.61585	0.00120
1650.68748	0.00099
1648.75910	0.00068
1646.83073	0.00087
1644.90236	0.00099
1642.97398	0.00077
1641.04561	0.00070
1639.11724	0.00084
1637.18886	0.00088
1635.26049	0.00076
1633.33212	0.00069
1631.40375	0.00055
1629.47537	0.00071
1627.54700	0.00083
1625.61863	0.00029
1623.69025	0.00047
1621.76188	0.00050
1619.83351	0.00032
1617.90513	0.00042
1615.97676	0.00062
1614.04839	0.00050
1612.12001	0.00047
1610.19164	0.00073
1608.26327	0.00068
1606.33489	0.00069
1604.40652	0.00064
1602.47815	0.00053
1600.54977	0.00053
1598.62140	0.00050
1596.69303	0.00042
1594.76465	0.00039
1592.83628	0.00033
1590.90791	0.00041
1588.97953	0.00044
1587.05116	0.00027
1585.12279	0.00018
1583.19441	0.00069
1581.26604	0.00105
1579.33767	0.00102
1577.40929	0.00093
1575.48092	0.00066
1573.55255	0.00025
1571.62418	0.00032
1569.69580	0.00036
1567.76743	0.00033
1565.83906	0.00032
1563.91068	0.00036
1561.98231	0.00046
1560.05394	0.00055
1558.12556	0.00092
1556.19719	0.00070
1554.26882	0.00064
1552.34044	0.00071
1550.41207	0.00049
1548.48370	0.00038
1546.55532	0.00050
1544.62695	0.00082
1542.69858	0.00144
1540.77020	0.00136
1538.84183	0.00070
1536.91346	0.00059
1534.98508	0.00052
1533.05671	0.00058
1531.12834	0.00045
1529.19996	0.00053
1527.27159	0.00052
1525.34322	0.00036
1523.41484	0.00067
1521.48647	0.00093
1519.55810	0.00062
1517.62972	0.00068
1515.70135	0.00099
1513.77298	0.00108
1511.84461	0.00122
1509.91623	0.00105
1507.98786	0.00066
1506.05949	0.00087
1504.13111	0.00132
1502.20274	0.00129
1500.27437	0.00101
1498.34599	0.00053
1496.41762	0.00054
1494.48925	0.00065
1492.56087	0.00048
1490.63250	0.00044
1488.70413	0.00051
1486.77575	0.00041
1484.84738	0.00057
1482.91901	0.00081
1480.99063	0.00068
1479.06226	0.00057
1477.13389	0.00085
1475.20551	0.00135
1473.27714	0.00129
1471.34877	0.00094
1469.42039	0.00067
1467.49202	0.00064
1465.56365	0.00089
1463.63527	0.00070
1461.70690	0.00069
1459.77853	0.00108
1457.85016	0.00072
1455.92178	0.00108
1453.99341	0.00087
1452.06504	0.00043
1450.13666	0.00028
1448.20829	0.00066
1446.27992	0.00089
1444.35154	0.00057
1442.42317	0.00047
1440.49480	0.00063
1438.56642	0.00058
1436.63805	0.00059
1434.70968	0.00044
1432.78130	0.00050
1430.85293	0.00060
1428.92456	0.00037
1426.99618	0.00051
1425.06781	0.00085
1423.13944	0.00083
1421.21106	0.00082
1419.28269	0.00101
1417.35432	0.00084
1415.42594	0.00030
1413.49757	0.00036
1411.56920	0.00060
1409.64082	0.00050
1407.71245	0.00057
1405.78408	0.00070
1403.85570	0.00060
1401.92733	0.00129
1399.99896	0.00163
1398.07059	0.00155
1396.14221	0.00117
1394.21384	0.00084
1392.28547	0.00070
1390.35709	0.00059
1388.42872	0.00050
1386.50035	0.00062
1384.57197	0.00097
1382.64360	0.00080
1380.71523	0.00029
1378.78685	0.00047
1376.85848	0.00081
1374.93011	0.00078
1373.00173	0.00047
1371.07336	0.00062
1369.14499	0.00065
1367.21661	0.00062
1365.28824	0.00067
1363.35987	0.00059
1361.43149	0.00060
1359.50312	0.00065
1357.57475	0.00073
1355.64637	0.00062
1353.71800	0.00022
1351.78963	0.00074
1349.86125	0.00090
1347.93288	0.00049
1346.00451	0.00023
1344.07614	0.00037
1342.14776	0.00062
1340.21939	0.00088
1338.29102	0.00074
1336.36264	0.00070
1334.43427	0.00081
1332.50590	0.00096
1330.57752	0.00082
1328.64915	0.00043
1326.72078	0.00067
1324.79240	0.00049
1322.86403	0.00037
1320.93566	0.00080
1319.00728	0.00097
1317.07891	0.00066
1315.15054	0.00064
1313.22216	0.00063
1311.29379	0.00057
1309.36542	0.00084
1307.43704	0.00064
1305.50867	0.00055
1303.58030	0.00071
1301.65192	0.00073
1299.72355	0.00071
1297.79518	0.00072
1295.86680	0.00058
1293.93843	0.00064
1292.01006	0.00068
1290.08168	0.00098
1288.15331	0.00084
1286.22494	0.00055
1284.29657	0.00074
1282.36819	0.00095
1280.43982	0.00104
1278.51145	0.00096
1276.58307	0.00112
1274.65470	0.00124
1272.72633	0.00124
1270.79795	0.00136
1268.86958	0.00110
1266.94121	0.00100
1265.01283	0.00106
1263.08446	0.00123
1261.15609	0.00157
1259.22771	0.00129
1257.29934	0.00092
1255.37097	0.00094
1253.44259	0.00154
1251.51422	0.00146
1249.58585	0.00090
1247.65747	0.00093
1245.72910	0.00108
1243.80073	0.00095
1241.87235	0.00097
1239.94398	0.00112
1238.01561	0.00116
1236.08723	0.00145
1234.15886	0.00155
1232.23049	0.00095
1230.30212	0.00117
1228.37374	0.00079
1226.44537	0.00033
1224.51700	0.00150
1222.58862	0.00293
1220.66025	0.00258
1218.73188	0.00133
1216.80350	0.00174
1214.87513	0.00139
1212.94676	0.00134
1211.01838	0.00149
1209.09001	0.00095
1207.16164	0.00059
1205.23326	0.00126
1203.30489	0.00176
1201.37652	0.00125
1199.44814	0.00148
1197.51977	0.00224
1195.59140	0.00241
1193.66302	0.00242
1191.73465	0.00301
1189.80628	0.00350
1187.87790	0.00334
1185.94953	0.00287
1184.02116	0.00265
1182.09278	0.00303
1180.16441	0.00290
1178.23604	0.00194
1176.30766	0.00116
1174.37929	0.00123
1172.45092	0.00174
1170.52255	0.00155
1168.59417	0.00129
1166.66580	0.00130
1164.73743	0.00110
1162.80905	0.00105
1160.88068	0.00135
1158.95231	0.00185
1157.02393	0.00178
1155.09556	0.00114
1153.16719	0.00163
1151.23881	0.00172
1149.31044	0.00159
1147.38207	0.00177
1145.45369	0.00192
1143.52532	0.00229
1141.59695	0.00223
1139.66857	0.00210
1137.74020	0.00166
1135.81183	0.00141
1133.88345	0.00145
1131.95508	0.00170
1130.02671	0.00156
1128.09833	0.00135
1126.16996	0.00165
1124.24159	0.00115
1122.31321	0.00066
1120.38484	0.00101
1118.45647	0.00096
1116.52809	0.00113
1114.59972	0.00211
1112.67135	0.00245
1110.74298	0.00163
1108.81460	0.00123
1106.88623	0.00084
1104.95786	0.00143
1103.02948	0.00148
1101.10111	0.00091
1099.17274	0.00086
1097.24436	0.00066
1095.31599	0.00119
1093.38762	0.00086
1091.45924	0.00116
1089.53087	0.00138
1087.60250	0.00113
1085.67412	0.00161
1083.74575	0.00210
1081.81738	0.00195
1079.88900	0.00171
1077.96063	0.00094
1076.03226	0.00052
1074.10388	0.00178
1072.17551	0.00212
1070.24714	0.00140
1068.31876	0.00177
1066.39039	0.00239
1064.46202	0.00239
1062.53364	0.00176
1060.60527	0.00119
1058.67690	0.00119
1056.74853	0.00130
1054.82015	0.00143
1052.89178	0.00122
1050.96341	0.00094
1049.03503	0.00090
1047.10666	0.00174
1045.17829	0.00215
1043.24991	0.00207
1041.32154	0.00163
1039.39317	0.00125
1037.46479	0.00156
1035.53642	0.00163
1033.60805	0.00136
1031.67967	0.00149
1029.75130	0.00159
1027.82293	0.00160
1025.89455	0.00170
1023.96618	0.00226
1022.03781	0.00175
1020.10943	0.00115
1018.18106	0.00077
1016.25269	0.00100
1014.32431	0.00200
1012.39594	0.00170
1010.46757	0.00113
1008.53919	0.00150
1006.61082	0.00159
1004.68245	0.00134
1002.75407	0.00085
1000.82570	0.00092
998.89733	0.00154
996.96896	0.00107
995.04058	0.00032
993.11221	0.00130
991.18384	0.00176
989.25546	0.00202
987.32709	0.00251
985.39872	0.00306
983.47034	0.00366
981.54197	0.00413
979.61360	0.00428
977.68522	0.00423
975.75685	0.00417
973.82848	0.00424
971.90010	0.00502
969.97173	0.00671
968.04336	0.00855
966.11498	0.01019
964.18661	0.01124
962.25824	0.01123
960.32986	0.01003
958.40149	0.00778
956.47312	0.00520
954.54474	0.00337
952.61637	0.00316
950.68800	0.00456
948.75962	0.00660
946.83125	0.00834
944.90288	0.00989
942.97451	0.01174
941.04613	0.01344
939.11776	0.01459
937.18939	0.01547
935.26101	0.01608
933.33264	0.01673
931.40427	0.01763
929.47589	0.01815
927.54752	0.01770
925.61915	0.01668
923.69077	0.01574
921.76240	0.01484
919.83403	0.01437
917.90565	0.01473
915.97728	0.01530
914.04891	0.01537
912.12053	0.01477
910.19216	0.01367
908.26379	0.01227
906.33541	0.01067
904.40704	0.00967
902.47867	0.00946
900.55029	0.00889
898.62192	0.00761
896.69355	0.00640
894.76517	0.00573
892.83680	0.00556
890.90843	0.00508
888.98005	0.00504
887.05168	0.00581
885.12331	0.00663
883.19494	0.00743
881.26656	0.00836
879.33819	0.00865
877.40982	0.00783
875.48144	0.00671
873.55307	0.00608
871.62470	0.00606
869.69632	0.00692
867.76795	0.00838
865.83958	0.00938
863.91120	0.00914
861.98283	0.00758
860.05446	0.00573
858.12608	0.00536
856.19771	0.00576
854.26934	0.00555
852.34096	0.00483
850.41259	0.00496
848.48422	0.00565
846.55584	0.00572
844.62747	0.00558
842.69910	0.00533
840.77072	0.00423
838.84235	0.00341
836.91398	0.00288
834.98560	0.00278
833.05723	0.00353
831.12886	0.00395
829.20049	0.00442
827.27211	0.00491
825.34374	0.00492
823.41537	0.00395
821.48699	0.00227
819.55862	0.00206
817.63025	0.00235
815.70187	0.00196
813.77350	0.00139
811.84513	0.00158
809.91675	0.00191
807.98838	0.00297
806.06001	0.00260
804.13163	0.00186
802.20326	0.00165
800.27489	0.00077
798.34651	0.00128
796.41814	0.00236
794.48977	0.00263
792.56139	0.00173
790.63302	0.00150
788.70465	0.00210
786.77627	0.00217
784.84790	0.00146
782.91953	0.00096
780.99115	0.00169
779.06278	0.00127
777.13441	0.00073
775.20603	0.00206
773.27766	0.00257
771.34929	0.00256
769.42092	0.00278
767.49254	0.00293
765.56417	0.00254
763.63580	0.00165
761.70742	0.00135
759.77905	0.00207
757.85068	0.00238
755.92230	0.00276
753.99393	0.00266
752.06556	0.00213
750.13718	0.00232
748.20881	0.00215
746.28044	0.00134
744.35206	0.00091
742.42369	0.00097
740.49532	0.00245
738.56694	0.00235
736.63857	0.00137
734.71020	0.00166
732.78182	0.00253
730.85345	0.00209
728.92508	0.00193
726.99670	0.00174
725.06833	0.00148
723.13996	0.00158
721.21158	0.00161
719.28321	0.00232
717.35484	0.00247
715.42647	0.00246
713.49809	0.00268
711.56972	0.00225
709.64135	0.00147
707.71297	0.00170
705.78460	0.00177
703.85623	0.00261
701.92785	0.00331
699.99948	0.00329
698.07111	0.00213
696.14273	0.00206
694.21436	0.00259
692.28599	0.00333
690.35761	0.00302
688.42924	0.00232
686.50087	0.00175
684.57249	0.00236
682.64412	0.00413
680.71575	0.00594
678.78737	0.00645
676.85900	0.00558
674.93063	0.00354
673.00225	0.00662
671.07388	0.00951
669.14551	0.00967
667.21713	0.00674
665.28876	0.00447
663.36039	0.00424
661.43201	0.00400
659.50364	0.00476
657.57527	0.00364
655.64690	0.00178
653.71852	0.00191
651.79015	0.00376
649.86178	0.00615
647.93340	0.00613
646.00503	0.00396
644.07666	0.00502
642.14828	0.00414
640.21991	0.00318
638.29154	0.00401
636.36316	0.00517
634.43479	0.00496
632.50642	0.00449
630.57804	0.00252
628.64967	0.00399
626.72130	0.00514
624.79292	0.00731
622.86455	0.00643
620.93618	0.00390
619.00780	0.00353
617.07943	0.00661
615.15106	0.01061
613.22268	0.01179
611.29431	0.01334
609.36594	0.01063
607.43756	0.00624
605.50919	0.00869
603.58082	0.01132
601.65244	0.01434
599.72407	0.01451
