3997.51769	0.30547
3995.58931	0.30531
3993.66094	0.30530
3991.73257	0.30573
3989.80419	0.30616
3987.87582	0.30645
3985.94745	0.30703
3984.01907	0.30756
3982.09070	0.30768
3980.16233	0.30768
3978.23396	0.30770
3976.30558	0.30774
3974.37721	0.30782
3972.44884	0.30801
3970.52046	0.30826
3968.59209	0.30847
3966.66372	0.30888
3964.73534	0.30982
3962.80697	0.31117
3960.87860	0.31233
3958.95022	0.31287
3957.02185	0.31308
3955.09348	0.31329
3953.16510	0.31376
3951.23673	0.31485
3949.30836	0.31613
3947.37998	0.31675
3945.45161	0.31706
3943.52324	0.31765
3941.59486	0.31823
3939.66649	0.31833
3937.73812	0.31824
3935.80974	0.31882
3933.88137	0.32036
3931.95300	0.32183
3930.02462	0.32216
3928.09625	0.32193
3926.16788	0.32232
3924.23950	0.32307
3922.31113	0.32355
3920.38276	0.32406
3918.45439	0.32466
3916.52601	0.32519
3914.59764	0.32545
3912.66927	0.32515
3910.74089	0.32504
3908.81252	0.32623
3906.88415	0.32910
3904.95577	0.33274
3903.02740	0.33502
3901.09903	0.33518
3899.17065	0.33406
3897.24228	0.33282
3895.31391	0.33309
3893.38553	0.33539
3891.45716	0.33759
3889.52879	0.33726
3887.60041	0.33667
3885.67204	0.33761
3883.74367	0.33895
3881.81529	0.34019
3879.88692	0.34042
3877.95855	0.33928
3876.03017	0.33939
3874.10180	0.34176
3872.17343	0.34494
3870.24505	0.34660
3868.31668	0.34591
3866.38831	0.34589
3864.45994	0.34724
3862.53156	0.34700
3860.60319	0.34545
3858.67482	0.34510
3856.74644	0.34676
3854.81807	0.35071
3852.88970	0.35311
3850.96132	0.34984
3849.03295	0.34725
3847.10458	0.34754
3845.17620	0.34958
3843.24783	0.35199
3841.31946	0.35379
3839.39108	0.35461
3837.46271	0.35387
3835.53434	0.35241
3833.60596	0.35198
3831.67759	0.35181
3829.74922	0.35095
3827.82084	0.35044
3825.89247	0.35109
3823.96410	0.35296
3822.03572	0.35572
3820.10735	0.35679
3818.17898	0.35601
3816.25060	0.35528
3814.32223	0.35352
3812.39386	0.35165
3810.46548	0.35138
3808.53711	0.35272
3806.60874	0.35411
3804.68037	0.35474
3802.75199	0.35597
3800.82362	0.35641
3798.89525	0.35527
3796.96687	0.35451
3795.03850	0.35314
3793.11013	0.35101
3791.18175	0.34963
3789.25338	0.34939
3787.32501	0.34991
3785.39663	0.35045
3783.46826	0.35079
3781.53989	0.35151
3779.61151	0.35167
3777.68314	0.34985
3775.75477	0.34802
3773.82639	0.34805
3771.89802	0.34948
3769.96965	0.35092
3768.04127	0.35131
3766.11290	0.35084
3764.18453	0.34983
3762.25615	0.34924
3760.32778	0.34998
3758.39941	0.35065
3756.47103	0.35026
3754.54266	0.35059
3752.61429	0.35299
3750.68591	0.35507
3748.75754	0.35376
3746.82917	0.35258
3744.90080	0.35198
3742.97242	0.34952
3741.04405	0.34747
3739.11568	0.34774
3737.18730	0.34976
3735.25893	0.35093
3733.33056	0.34810
3731.40218	0.34350
3729.47381	0.34065
3727.54544	0.33973
3725.61706	0.33949
3723.68869	0.33866
3721.76032	0.33678
3719.83194	0.33391
3717.90357	0.33083
3715.97520	0.32887
3714.04682	0.32900
3712.11845	0.33088
3710.19008	0.33022
3708.26170	0.32547
3706.33333	0.32112
3704.40496	0.31902
3702.47658	0.31764
3700.54821	0.31450
3698.61984	0.31033
3696.69146	0.30693
3694.76309	0.30456
3692.83472	0.30322
3690.90635	0.30200
3688.97797	0.29740
3687.04960	0.28879
3685.12123	0.28087
3683.19285	0.27482
3681.26448	0.26980
3679.33611	0.26562
3677.40773	0.26197
3675.47936	0.25556
3673.55099	0.24640
3671.62261	0.23896
3669.69424	0.22987
3667.76587	0.21860
3665.83749	0.20908
3663.90912	0.20065
3661.98075	0.19250
3660.05237	0.18490
3658.12400	0.17732
3656.19563	0.16791
3654.26725	0.15879
3652.33888	0.15281
3650.41051	0.14710
3648.48213	0.13737
3646.55376	0.12579
3644.62539	0.11658
3642.69701	0.10946
3640.76864	0.10312
3638.84027	0.09694
3636.91189	0.09080
3634.98352	0.08454
3633.05515	0.07855
3631.12678	0.07361
3629.19840	0.06817
3627.27003	0.06174
3625.34166	0.05677
3623.41328	0.05278
3621.48491	0.04919
3619.55654	0.04548
3617.62816	0.04156
3615.69979	0.03819
3613.77142	0.03514
3611.84304	0.03231
3609.91467	0.02975
3607.98630	0.02705
3606.05792	0.02457
3604.12955	0.02267
3602.20118	0.02095
3600.27280	0.01919
3598.34443	0.01747
3596.41606	0.01590
3594.48768	0.01455
3592.55931	0.01324
3590.63094	0.01176
3588.70256	0.01009
3586.77419	0.00880
3584.84582	0.00799
3582.91744	0.00738
3580.98907	0.00718
3579.06070	0.00723
3577.13233	0.00676
3575.20395	0.00563
3573.27558	0.00457
3571.34721	0.00396
3569.41883	0.00364
3567.49046	0.00358
3565.56209	0.00335
3563.63371	0.00287
3561.70534	0.00257
3559.77697	0.00246
3557.84859	0.00228
3555.92022	0.00197
3553.99185	0.00165
3552.06347	0.00140
3550.13510	0.00115
3548.20673	0.00114
3546.27835	0.00130
3544.34998	0.00150
3542.42161	0.00199
3540.49323	0.00239
3538.56486	0.00200
3536.63649	0.00124
3534.70811	0.00110
3532.77974	0.00122
3530.85137	0.00128
3528.92299	0.00116
3526.99462	0.00096
3525.06625	0.00066
3523.13787	0.00071
3521.20950	0.00084
3519.28113	0.00052
3517.35276	0.00067
3515.42438	0.00133
3513.49601	0.00129
3511.56764	0.00088
3509.63926	0.00094
3507.71089	0.00102
3505.78252	0.00053
3503.85414	0.00031
3501.92577	0.00046
3499.99740	0.00090
3498.06902	0.00110
3496.14065	0.00090
3494.21228	0.00144
3492.28390	0.00161
3490.35553	0.00114
3488.42716	0.00069
3486.49878	0.00085
3484.57041	0.00066
3482.64204	0.00062
3480.71366	0.00048
3478.78529	0.00087
3476.85692	0.00106
3474.92854	0.00079
3473.00017	0.00070
3471.07180	0.00073
3469.14342	0.00067
3467.21505	0.00072
3465.28668	0.00109
3463.35831	0.00094
3461.42993	0.00029
3459.50156	0.00031
3457.57319	0.00036
3455.64481	0.00052
3453.71644	0.00079
3451.78807	0.00121
3449.85969	0.00128
3447.93132	0.00126
3446.00295	0.00117
3444.07457	0.00052
3442.14620	0.00060
3440.21783	0.00099
3438.28945	0.00085
3436.36108	0.00072
3434.43271	0.00095
3432.50433	0.00110
3430.57596	0.00115
3428.64759	0.00093
3426.71921	0.00037
3424.79084	0.00100
3422.86247	0.00114
3420.93409	0.00084
3419.00572	0.00086
3417.07735	0.00093
3415.14897	0.00084
3413.22060	0.00068
3411.29223	0.00133
3409.36385	0.00161
3407.43548	0.00100
3405.50711	0.00068
3403.57874	0.00053
3401.65036	0.00049
3399.72199	0.00025
3397.79362	0.00110
3395.86524	0.00137
3393.93687	0.00106
3392.00850	0.00060
3390.08012	0.00064
3388.15175	0.00083
3386.22338	0.00100
3384.29500	0.00095
3382.36663	0.00092
3380.43826	0.00104
3378.50988	0.00101
3376.58151	0.00091
3374.65314	0.00096
3372.72476	0.00104
3370.79639	0.00088
3368.86802	0.00094
3366.93964	0.00154
3365.01127	0.00132
3363.08290	0.00098
3361.15452	0.00110
3359.22615	0.00113
3357.29778	0.00085
3355.36940	0.00088
3353.44103	0.00055
3351.51266	0.00049
3349.58428	0.00141
3347.65591	0.00148
3345.72754	0.00082
3343.79917	0.00039
3341.87079	0.00081
3339.94242	0.00107
3338.01405	0.00091
3336.08567	0.00066
3334.15730	0.00061
3332.22893	0.00071
3330.30055	0.00068
3328.37218	0.00055
3326.44381	0.00079
3324.51543	0.00089
3322.58706	0.00088
3320.65869	0.00078
3318.73031	0.00103
3316.80194	0.00081
3314.87357	0.00049
3312.94519	0.00094
3311.01682	0.00082
3309.08845	0.00071
3307.16007	0.00092
3305.23170	0.00064
3303.30333	0.00033
3301.37495	0.00022
3299.44658	0.00042
3297.51821	0.00046
3295.58983	0.00065
3293.66146	0.00091
3291.73309	0.00055
3289.80472	0.00090
3287.87634	0.00131
3285.94797	0.00142
3284.01960	0.00106
3282.09122	0.00054
3280.16285	0.00061
3278.23448	0.00105
3276.30610	0.00089
3274.37773	0.00061
3272.44936	0.00063
3270.52098	0.00048
3268.59261	0.00032
3266.66424	0.00028
3264.73586	0.00028
3262.80749	0.00047
3260.87912	0.00059
3258.95074	0.00036
3257.02237	0.00081
3255.09400	0.00094
3253.16562	0.00060
3251.23725	0.00044
3249.30888	0.00042
3247.38050	0.00055
3245.45213	0.00044
3243.52376	0.00016
3241.59538	0.00057
3239.66701	0.00072
3237.73864	0.00046
3235.81026	0.00034
3233.88189	0.00040
3231.95352	0.00050
3230.02515	0.00085
3228.09677	0.00105
3226.16840	0.00100
3224.24003	0.00114
3222.31165	0.00089
3220.38328	0.00070
3218.45491	0.00084
3216.52653	0.00079
3214.59816	0.00069
3212.66979	0.00084
3210.74141	0.00101
3208.81304	0.00049
3206.88467	0.00092
3204.95629	0.00105
3203.02792	0.00095
3201.09955	0.00064
3199.17117	0.00054
3197.24280	0.00055
3195.31443	0.00073
3193.38605	0.00089
3191.45768	0.00070
3189.52931	0.00079
3187.60093	0.00103
3185.67256	0.00084
3183.74419	0.00027
3181.81581	0.00071
3179.88744	0.00092
3177.95907	0.00069
3176.03070	0.00061
3174.10232	0.00072
3172.17395	0.00084
3170.24558	0.00078
3168.31720	0.00058
3166.38883	0.00087
3164.46046	0.00104
3162.53208	0.00075
3160.60371	0.00045
3158.67534	0.00098
3156.74696	0.00101
3154.81859	0.00059
3152.89022	0.00067
3150.96184	0.00063
3149.03347	0.00037
3147.10510	0.00080
3145.17672	0.00092
3143.24835	0.00075
3141.31998	0.00079
3139.39160	0.00101
3137.46323	0.00096
3135.53486	0.00067
3133.60648	0.00065
3131.67811	0.00054
3129.74974	0.00049
3127.82136	0.00045
3125.89299	0.00035
3123.96462	0.00076
3122.03624	0.00071
3120.10787	0.00060
3118.17950	0.00060
3116.25113	0.00084
3114.32275	0.00084
3112.39438	0.00103
3110.46601	0.00089
3108.53763	0.00051
3106.60926	0.00046
3104.68089	0.00028
3102.75251	0.00007
3100.82414	0.00043
3098.89577	0.00076
3096.96739	0.00069
3095.03902	0.00072
3093.11065	0.00088
3091.18227	0.00091
3089.25390	0.00068
3087.32553	0.00054
3085.39715	0.00061
3083.46878	0.00059
3081.54041	0.00051
3079.61203	0.00048
3077.68366	0.00078
3075.75529	0.00090
3073.82691	0.00077
3071.89854	0.00070
3069.97017	0.00068
3068.04179	0.00051
3066.11342	0.00034
3064.18505	0.00091
3062.25668	0.00130
3060.32830	0.00102
3058.39993	0.00020
3056.47156	0.00055
3054.54318	0.00102
3052.61481	0.00116
3050.68644	0.00081
3048.75806	0.00060
3046.82969	0.00083
3044.90132	0.00091
3042.97294	0.00068
3041.04457	0.00073
3039.11620	0.00083
3037.18782	0.00071
3035.25945	0.00075
3033.33108	0.00092
3031.40270	0.00115
3029.47433	0.00101
3027.54596	0.00055
3025.61758	0.00050
3023.68921	0.00076
3021.76084	0.00082
3019.83246	0.00099
3017.90409	0.00105
3015.97572	0.00102
3014.04734	0.00069
3012.11897	0.00046
3010.19060	0.00085
3008.26222	0.00080
3006.33385	0.00052
3004.40548	0.00020
3002.47711	0.00059
3000.54873	0.00086
2998.62036	0.00066
2996.69199	0.00045
2994.76361	0.00062
2992.83524	0.00074
2990.90687	0.00078
2988.97849	0.00097
2987.05012	0.00156
2985.12175	0.00175
2983.19337	0.00151
2981.26500	0.00122
2979.33663	0.00086
2977.40825	0.00055
2975.47988	0.00042
2973.55151	0.00070
2971.62313	0.00087
2969.69476	0.00098
2967.76639	0.00092
2965.83801	0.00094
2963.90964	0.00107
2961.98127	0.00107
2960.05289	0.00114
2958.12452	0.00108
2956.19615	0.00081
2954.26777	0.00078
2952.33940	0.00105
2950.41103	0.00112
2948.48266	0.00079
2946.55428	0.00067
2944.62591	0.00067
2942.69754	0.00098
2940.76916	0.00104
2938.84079	0.00049
2936.91242	0.00146
2934.98404	0.00169
2933.05567	0.00141
2931.12730	0.00094
2929.19892	0.00091
2927.27055	0.00115
2925.34218	0.00089
2923.41380	0.00049
2921.48543	0.00016
2919.55706	0.00047
2917.62868	0.00110
2915.70031	0.00142
2913.77194	0.00142
2911.84356	0.00115
2909.91519	0.00083
2907.98682	0.00083
2906.05844	0.00078
2904.13007	0.00126
2902.20170	0.00117
2900.27332	0.00102
2898.34495	0.00105
2896.41658	0.00079
2894.48820	0.00056
2892.55983	0.00118
2890.63146	0.00125
2888.70309	0.00065
2886.77471	0.00116
2884.84634	0.00126
2882.91797	0.00114
2880.98959	0.00076
2879.06122	0.00081
2877.13285	0.00116
2875.20447	0.00144
2873.27610	0.00130
2871.34773	0.00105
2869.41935	0.00057
2867.49098	0.00060
2865.56261	0.00088
2863.63423	0.00137
2861.70586	0.00180
2859.77749	0.00170
2857.84911	0.00098
2855.92074	0.00047
2853.99237	0.00078
2852.06399	0.00080
2850.13562	0.00076
2848.20725	0.00071
2846.27887	0.00042
2844.35050	0.00037
2842.42213	0.00043
2840.49375	0.00051
2838.56538	0.00061
2836.63701	0.00059
2834.70863	0.00040
2832.78026	0.00051
2830.85189	0.00040
2828.92352	0.00049
2826.99514	0.00077
2825.06677	0.00062
2823.13840	0.00058
2821.21002	0.00088
2819.28165	0.00095
2817.35328	0.00057
2815.42490	0.00017
2813.49653	0.00046
2811.56816	0.00056
2809.63978	0.00031
2807.71141	0.00044
2805.78304	0.00056
2803.85466	0.00063
2801.92629	0.00064
2799.99792	0.00044
2798.06954	0.00027
2796.14117	0.00041
2794.21280	0.00062
2792.28442	0.00057
2790.35605	0.00093
2788.42768	0.00093
2786.49930	0.00074
2784.57093	0.00067
2782.64256	0.00070
2780.71418	0.00063
2778.78581	0.00051
2776.85744	0.00106
2774.92907	0.00139
2773.00069	0.00133
2771.07232	0.00091
2769.14395	0.00043
2767.21557	0.00035
2765.28720	0.00060
2763.35883	0.00055
2761.43045	0.00036
2759.50208	0.00042
2757.57371	0.00030
2755.64533	0.00048
2753.71696	0.00031
2751.78859	0.00042
2749.86021	0.00080
2747.93184	0.00096
2746.00347	0.00072
2744.07509	0.00032
2742.14672	0.00072
2740.21835	0.00103
2738.28997	0.00103
2736.36160	0.00074
2734.43323	0.00047
2732.50485	0.00062
2730.57648	0.00080
2728.64811	0.00078
2726.71973	0.00084
2724.79136	0.00101
2722.86299	0.00127
2720.93461	0.00133
2719.00624	0.00096
2717.07787	0.00056
2715.14950	0.00101
2713.22112	0.00129
2711.29275	0.00129
2709.36438	0.00109
2707.43600	0.00106
2705.50763	0.00112
2703.57926	0.00107
2701.65088	0.00118
2699.72251	0.00131
2697.79414	0.00136
2695.86576	0.00136
2693.93739	0.00139
2692.00902	0.00122
2690.08064	0.00077
2688.15227	0.00056
2686.22390	0.00095
2684.29552	0.00135
2682.36715	0.00155
2680.43878	0.00169
2678.51040	0.00152
2676.58203	0.00114
2674.65366	0.00110
2672.72528	0.00125
2670.79691	0.00142
2668.86854	0.00154
2666.94016	0.00153
2665.01179	0.00150
2663.08342	0.00160
2661.15505	0.00180
2659.22667	0.00188
2657.29830	0.00192
2655.36993	0.00191
2653.44155	0.00168
2651.51318	0.00153
2649.58481	0.00166
2647.65643	0.00175
2645.72806	0.00187
2643.79969	0.00216
2641.87131	0.00215
2639.94294	0.00189
2638.01457	0.00196
2636.08619	0.00221
2634.15782	0.00218
2632.22945	0.00200
2630.30107	0.00194
2628.37270	0.00204
2626.44433	0.00227
2624.51595	0.00250
2622.58758	0.00266
2620.65921	0.00286
2618.73083	0.00302
2616.80246	0.00296
2614.87409	0.00305
2612.94571	0.00360
2611.01734	0.00417
2609.08897	0.00411
2607.16059	0.00364
2605.23222	0.00343
2603.30385	0.00352
2601.37548	0.00365
2599.44710	0.00392
2597.51873	0.00425
2595.59036	0.00447
2593.66198	0.00476
2591.73361	0.00506
2589.80524	0.00512
2587.87686	0.00503
2585.94849	0.00500
2584.02012	0.00514
2582.09174	0.00554
2580.16337	0.00605
2578.23500	0.00635
2576.30662	0.00639
2574.37825	0.00651
2572.44988	0.00687
2570.52150	0.00733
2568.59313	0.00768
2566.66476	0.00767
2564.73638	0.00740
2562.80801	0.00730
2560.87964	0.00752
2558.95126	0.00790
2557.02289	0.00832
2555.09452	0.00859
2553.16614	0.00859
2551.23777	0.00861
2549.30940	0.00906
2547.38103	0.00970
2545.45265	0.00998
2543.52428	0.01002
2541.59591	0.01014
2539.66753	0.01031
2537.73916	0.01043
2535.81079	0.01053
2533.88241	0.01061
2531.95404	0.01067
2530.02567	0.01087
2528.09729	0.01126
2526.16892	0.01172
2524.24055	0.01204
2522.31217	0.01215
2520.38380	0.01240
2518.45543	0.01289
2516.52705	0.01320
2514.59868	0.01338
2512.67031	0.01378
2510.74193	0.01422
2508.81356	0.01448
2506.88519	0.01480
2504.95681	0.01514
2503.02844	0.01515
2501.10007	0.01501
2499.17169	0.01533
2497.24332	0.01598
2495.31495	0.01639
2493.38657	0.01666
2491.45820	0.01701
2489.52983	0.01715
2487.60146	0.01719
2485.67308	0.01753
2483.74471	0.01811
2481.81634	0.01866
2479.88796	0.01906
2477.95959	0.01934
2476.03122	0.01964
2474.10284	0.02000
2472.17447	0.02047
2470.24610	0.02094
2468.31772	0.02127
2466.38935	0.02155
2464.46098	0.02198
2462.53260	0.02263
2460.60423	0.02336
2458.67586	0.02404
2456.74748	0.02465
2454.81911	0.02518
2452.89074	0.02565
2450.96236	0.02617
2449.03399	0.02677
2447.10562	0.02750
2445.17724	0.02834
2443.24887	0.02900
2441.32050	0.02938
2439.39212	0.02976
2437.46375	0.03026
2435.53538	0.03072
2433.60700	0.03119
2431.67863	0.03185
2429.75026	0.03256
2427.82189	0.03318
2425.89351	0.03380
2423.96514	0.03441
2422.03677	0.03504
2420.10839	0.03575
2418.18002	0.03643
2416.25165	0.03698
2414.32327	0.03761
2412.39490	0.03828
2410.46653	0.03876
2408.53815	0.03929
2406.60978	0.04013
2404.68141	0.04105
2402.75303	0.04186
2400.82466	0.04264
2398.89629	0.04350
2396.96791	0.04446
2395.03954	0.04535
2393.11117	0.04617
2391.18279	0.04688
2389.25442	0.04744
2387.32605	0.04807
2385.39767	0.04878
2383.46930	0.04954
2381.54093	0.05048
2379.61255	0.05148
2377.68418	0.05235
2375.75581	0.05320
2373.82744	0.05425
2371.89906	0.05571
2369.97069	0.05710
2368.04232	0.05771
2366.11394	0.05797
2364.18557	0.05875
2362.25720	0.06047
2360.32882	0.06297
2358.40045	0.06512
2356.47208	0.06581
2354.54370	0.06567
2352.61533	0.06556
2350.68696	0.06530
2348.75858	0.06496
2346.83021	0.06498
2344.90184	0.06616
2342.97346	0.06845
2341.04509	0.07003
2339.11672	0.07050
2337.18834	0.07090
2335.25997	0.07136
2333.33160	0.07172
2331.40322	0.07224
2329.47485	0.07291
2327.54648	0.07355
2325.61810	0.07397
2323.68973	0.07421
2321.76136	0.07460
2319.83298	0.07513
2317.90461	0.07536
2315.97624	0.07532
2314.04787	0.07571
2312.11949	0.07667
2310.19112	0.07753
2308.26275	0.07810
2306.33437	0.07882
2304.40600	0.07982
2302.47763	0.08103
2300.54925	0.08220
2298.62088	0.08305
2296.69251	0.08357
2294.76413	0.08398
2292.83576	0.08472
2290.90739	0.08575
2288.97901	0.08671
2287.05064	0.08760
2285.12227	0.08857
2283.19389	0.08953
2281.26552	0.09029
2279.33715	0.09088
2277.40877	0.09155
2275.48040	0.09237
2273.55203	0.09308
2271.62365	0.09353
2269.69528	0.09392
2267.76691	0.09463
2265.83853	0.09554
2263.91016	0.09634
2261.98179	0.09700
2260.05342	0.09761
2258.12504	0.09812
2256.19667	0.09862
2254.26830	0.09923
2252.33992	0.09988
2250.41155	0.10046
2248.48318	0.10111
2246.55480	0.10196
2244.62643	0.10280
2242.69806	0.10343
2240.76968	0.10396
2238.84131	0.10452
2236.91294	0.10508
2234.98456	0.10561
2233.05619	0.10615
2231.12782	0.10668
2229.19944	0.10717
2227.27107	0.10754
2225.34270	0.10777
2223.41432	0.10791
2221.48595	0.10813
2219.55758	0.10850
2217.62920	0.10902
2215.70083	0.10971
2213.77246	0.11041
2211.84408	0.11101
2209.91571	0.11157
2207.98734	0.11198
2206.05896	0.11221
2204.13059	0.11245
2202.20222	0.11274
2200.27385	0.11299
2198.34547	0.11327
2196.41710	0.11362
2194.48873	0.11397
2192.56035	0.11443
2190.63198	0.11510
2188.70361	0.11586
2186.77523	0.11646
2184.84686	0.11672
2182.91849	0.11672
2180.99011	0.11670
2179.06174	0.11686
2177.13337	0.11717
2175.20499	0.11750
2173.27662	0.11767
2171.34825	0.11770
2169.41987	0.11778
2167.49150	0.11791
2165.56313	0.11791
2163.63475	0.11778
2161.70638	0.11792
2159.77801	0.11839
2157.84963	0.11874
2155.92126	0.11880
2153.99289	0.11888
2152.06451	0.11918
2150.13614	0.11964
2148.20777	0.11996
2146.27940	0.12007
2144.35102	0.12031
2142.42265	0.12074
2140.49428	0.12109
2138.56590	0.12134
2136.63753	0.12151
2134.70916	0.12159
2132.78078	0.12175
2130.85241	0.12222
2128.92404	0.12296
2126.99566	0.12364
2125.06729	0.12422
2123.13892	0.12485
2121.21054	0.12541
2119.28217	0.12587
2117.35380	0.12644
2115.42542	0.12708
2113.49705	0.12755
2111.56868	0.12789
2109.64030	0.12824
2107.71193	0.12871
2105.78356	0.12936
2103.85518	0.13014
2101.92681	0.13086
2099.99844	0.13131
2098.07006	0.13152
2096.14169	0.13170
2094.21332	0.13196
2092.28494	0.13233
2090.35657	0.13257
2088.42820	0.13253
2086.49983	0.13240
2084.57145	0.13229
2082.64308	0.13227
2080.71471	0.13230
2078.78633	0.13235
2076.85796	0.13236
2074.92959	0.13230
2073.00121	0.13217
2071.07284	0.13200
2069.14447	0.13181
2067.21609	0.13163
2065.28772	0.13155
2063.35935	0.13152
2061.43097	0.13148
2059.50260	0.13153
2057.57423	0.13171
2055.64585	0.13206
2053.71748	0.13247
2051.78911	0.13274
2049.86073	0.13288
2047.93236	0.13308
2046.00399	0.13350
2044.07561	0.13418
2042.14724	0.13490
2040.21887	0.13540
2038.29049	0.13570
2036.36212	0.13594
2034.43375	0.13613
2032.50538	0.13622
2030.57700	0.13615
2028.64863	0.13613
2026.72026	0.13633
2024.79188	0.13661
2022.86351	0.13680
2020.93514	0.13691
2019.00676	0.13705
2017.07839	0.13717
2015.15002	0.13728
2013.22164	0.13747
2011.29327	0.13766
2009.36490	0.13777
2007.43652	0.13778
2005.50815	0.13773
2003.57978	0.13788
2001.65140	0.13840
1999.72303	0.13895
1997.79466	0.13914
1995.86628	0.13919
1993.93791	0.13949
1992.00954	0.13985
1990.08116	0.14004
1988.15279	0.14018
1986.22442	0.14032
1984.29604	0.14040
1982.36767	0.14041
1980.43930	0.14052
1978.51092	0.14085
1976.58255	0.14121
1974.65418	0.14140
1972.72581	0.14159
1970.79743	0.14185
1968.86906	0.14212
1966.94069	0.14241
1965.01231	0.14258
1963.08394	0.14248
1961.15557	0.14232
1959.22719	0.14236
1957.29882	0.14281
1955.37045	0.14346
1953.44207	0.14384
1951.51370	0.14388
1949.58533	0.14386
1947.65695	0.14382
1945.72858	0.14391
1943.80021	0.14434
1941.87183	0.14480
1939.94346	0.14481
1938.01509	0.14450
1936.08671	0.14435
1934.15834	0.14453
1932.22997	0.14473
1930.30159	0.14474
1928.37322	0.14458
1926.44485	0.14438
1924.51647	0.14435
1922.58810	0.14452
1920.65973	0.14479
1918.73135	0.14488
1916.80298	0.14449
1914.87461	0.14395
1912.94624	0.14371
1911.01786	0.14366
1909.08949	0.14368
1907.16112	0.14370
1905.23274	0.14356
1903.30437	0.14333
1901.37600	0.14323
1899.44762	0.14318
1897.51925	0.14300
1895.59088	0.14267
1893.66250	0.14223
1891.73413	0.14190
1889.80576	0.14167
1887.87738	0.14116
1885.94901	0.14042
1884.02064	0.13975
1882.09226	0.13904
1880.16389	0.13816
1878.23552	0.13725
1876.30714	0.13651
1874.37877	0.13594
1872.45040	0.13554
1870.52202	0.13543
1868.59365	0.13510
1866.66528	0.13379
1864.73690	0.13207
1862.80853	0.13073
1860.88016	0.12978
1858.95179	0.12907
1857.02341	0.12843
1855.09504	0.12766
1853.16667	0.12682
1851.23829	0.12619
1849.30992	0.12586
1847.38155	0.12561
1845.45317	0.12507
1843.52480	0.12399
1841.59643	0.12279
1839.66805	0.12189
1837.73968	0.12117
1835.81131	0.12052
1833.88293	0.11982
1831.95456	0.11920
1830.02619	0.11855
1828.09781	0.11748
1826.16944	0.11619
1824.24107	0.11479
1822.31269	0.11320
1820.38432	0.11151
1818.45595	0.10969
1816.52757	0.10762
1814.59920	0.10552
1812.67083	0.10360
1810.74245	0.10138
1808.81408	0.09868
1806.88571	0.09596
1804.95733	0.09339
1803.02896	0.09080
1801.10059	0.08781
1799.17222	0.08429
1797.24384	0.08081
1795.31547	0.07773
1793.38710	0.07453
1791.45872	0.07073
1789.53035	0.06698
1787.60198	0.06371
1785.67360	0.06058
1783.74523	0.05748
1781.81686	0.05455
1779.88848	0.05173
1777.96011	0.04893
1776.03174	0.04630
1774.10336	0.04373
1772.17499	0.04061
1770.24662	0.03714
1768.31824	0.03388
1766.38987	0.03060
1764.46150	0.02740
1762.53312	0.02392
1760.60475	0.02008
1758.67638	0.01652
1756.74800	0.01285
1754.81963	0.00948
1752.89126	0.00699
1750.96288	0.00488
1749.03451	0.00304
1747.10614	0.00172
1745.17777	0.00097
1743.24939	0.00078
1741.32102	0.00051
1739.39265	0.00053
1737.46427	0.00072
1735.53590	0.00099
1733.60753	0.00114
1731.67915	0.00088
1729.75078	0.00075
1727.82241	0.00072
1725.89403	0.00065
1723.96566	0.00058
1722.03729	0.00052
1720.10891	0.00044
1718.18054	0.00106
1716.25217	0.00159
1714.32379	0.00118
1712.39542	0.00055
1710.46705	0.00098
1708.53867	0.00112
1706.61030	0.00076
1704.68193	0.00076
1702.75355	0.00074
1700.82518	0.00077
1698.89681	0.00074
1696.96843	0.00075
1695.04006	0.00084
1693.11169	0.00060
1691.18331	0.00041
1689.25494	0.00058
1687.32657	0.00060
1685.39820	0.00103
1683.46982	0.00099
1681.54145	0.00065
1679.61308	0.00081
1677.68470	0.00095
1675.75633	0.00058
1673.82796	0.00097
1671.89958	0.00127
1669.97121	0.00117
1668.04284	0.00103
1666.11446	0.00096
1664.18609	0.00094
1662.25772	0.00066
1660.32934	0.00047
1658.40097	0.00045
1656.47260	0.00044
1654.54422	0.00096
1652.61585	0.00145
1650.68748	0.00107
1648.75910	0.00079
1646.83073	0.00078
1644.90236	0.00063
1642.97398	0.00051
1641.04561	0.00056
1639.11724	0.00066
1637.18886	0.00098
1635.26049	0.00107
1633.33212	0.00074
1631.40375	0.00037
1629.47537	0.00036
1627.54700	0.00041
1625.61863	0.00046
1623.69025	0.00043
1621.76188	0.00079
1619.83351	0.00082
1617.90513	0.00098
1615.97676	0.00114
1614.04839	0.00116
1612.12001	0.00101
1610.19164	0.00076
1608.26327	0.00058
1606.33489	0.00031
1604.40652	0.00027
1602.47815	0.00048
1600.54977	0.00046
1598.62140	0.00045
1596.69303	0.00053
1594.76465	0.00065
1592.83628	0.00084
1590.90791	0.00076
1588.97953	0.00044
1587.05116	0.00023
1585.12279	0.00020
1583.19441	0.00035
1581.26604	0.00047
1579.33767	0.00049
1577.40929	0.00037
1575.48092	0.00057
1573.55255	0.00053
1571.62418	0.00051
1569.69580	0.00066
1567.76743	0.00067
1565.83906	0.00047
1563.91068	0.00041
1561.98231	0.00062
1560.05394	0.00063
1558.12556	0.00089
1556.19719	0.00070
1554.26882	0.00040
1552.34044	0.00033
1550.41207	0.00064
1548.48370	0.00068
1546.55532	0.00045
1544.62695	0.00084
1542.69858	0.00129
1540.77020	0.00114
1538.84183	0.00059
1536.91346	0.00068
1534.98508	0.00098
1533.05671	0.00110
1531.12834	0.00084
1529.19996	0.00066
1527.27159	0.00062
1525.34322	0.00044
1523.41484	0.00034
1521.48647	0.00050
1519.55810	0.00070
1517.62972	0.00059
1515.70135	0.00043
1513.77298	0.00018
1511.84461	0.00029
1509.91623	0.00074
1507.98786	0.00126
1506.05949	0.00125
1504.13111	0.00092
1502.20274	0.00046
1500.27437	0.00056
1498.34599	0.00067
1496.41762	0.00034
1494.48925	0.00038
1492.56087	0.00063
1490.63250	0.00077
1488.70413	0.00053
1486.77575	0.00055
1484.84738	0.00080
1482.91901	0.00080
1480.99063	0.00067
1479.06226	0.00052
1477.13389	0.00057
1475.20551	0.00067
1473.27714	0.00077
1471.34877	0.00099
1469.42039	0.00105
1467.49202	0.00105
1465.56365	0.00113
1463.63527	0.00102
1461.70690	0.00087
1459.77853	0.00094
1457.85016	0.00159
1455.92178	0.00172
1453.99341	0.00113
1452.06504	0.00071
1450.13666	0.00042
1448.20829	0.00047
1446.27992	0.00082
1444.35154	0.00098
1442.42317	0.00076
1440.49480	0.00050
1438.56642	0.00054
1436.63805	0.00069
1434.70968	0.00084
1432.78130	0.00083
1430.85293	0.00052
1428.92456	0.00043
1426.99618	0.00051
1425.06781	0.00105
1423.13944	0.00119
1421.21106	0.00081
1419.28269	0.00061
1417.35432	0.00049
1415.42594	0.00060
1413.49757	0.00075
1411.56920	0.00046
1409.64082	0.00029
1407.71245	0.00070
1405.78408	0.00077
1403.85570	0.00066
1401.92733	0.00071
1399.99896	0.00072
1398.07059	0.00054
1396.14221	0.00057
1394.21384	0.00030
1392.28547	0.00053
1390.35709	0.00035
1388.42872	0.00057
1386.50035	0.00118
1384.57197	0.00110
1382.64360	0.00113
1380.71523	0.00107
1378.78685	0.00088
1376.85848	0.00087
1374.93011	0.00108
1373.00173	0.00099
1371.07336	0.00069
1369.14499	0.00048
1367.21661	0.00090
1365.28824	0.00120
1363.35987	0.00112
1361.43149	0.00065
1359.50312	0.00055
1357.57475	0.00046
1355.64637	0.00032
1353.71800	0.00110
1351.78963	0.00109
1349.86125	0.00115
1347.93288	0.00129
1346.00451	0.00096
1344.07614	0.00075
1342.14776	0.00081
1340.21939	0.00109
1338.29102	0.00093
1336.36264	0.00042
1334.43427	0.00071
1332.50590	0.00084
1330.57752	0.00056
1328.64915	0.00024
1326.72078	0.00033
1324.79240	0.00048
1322.86403	0.00079
1320.93566	0.00082
1319.00728	0.00033
1317.07891	0.00051
1315.15054	0.00093
1313.22216	0.00097
1311.29379	0.00069
1309.36542	0.00086
1307.43704	0.00106
1305.50867	0.00110
1303.58030	0.00092
1301.65192	0.00080
1299.72355	0.00059
1297.79518	0.00071
1295.86680	0.00097
1293.93843	0.00074
1292.01006	0.00032
1290.08168	0.00069
1288.15331	0.00113
1286.22494	0.00120
1284.29657	0.00110
1282.36819	0.00110
1280.43982	0.00061
1278.51145	0.00042
1276.58307	0.00027
1274.65470	0.00065
1272.72633	0.00096
1270.79795	0.00118
1268.86958	0.00114
1266.94121	0.00131
1265.01283	0.00115
1263.08446	0.00081
1261.15609	0.00043
1259.22771	0.00057
1257.29934	0.00054
1255.37097	0.00054
1253.44259	0.00083
1251.51422	0.00072
1249.58585	0.00063
1247.65747	0.00105
1245.72910	0.00127
1243.80073	0.00139
1241.87235	0.00104
1239.94398	0.00059
1238.01561	0.00047
1236.08723	0.00101
1234.15886	0.00144
1232.23049	0.00131
1230.30212	0.00105
1228.37374	0.00100
1226.44537	0.00168
1224.51700	0.00223
1222.58862	0.00180
1220.66025	0.00086
1218.73188	0.00070
1216.80350	0.00087
1214.87513	0.00119
1212.94676	0.00178
1211.01838	0.00143
1209.09001	0.00075
1207.16164	0.00081
1205.23326	0.00160
1203.30489	0.00144
1201.37652	0.00074
1199.44814	0.00138
1197.51977	0.00173
1195.59140	0.00130
1193.66302	0.00086
1191.73465	0.00060
1189.80628	0.00076
1187.87790	0.00095
1185.94953	0.00097
1184.02116	0.00067
1182.09278	0.00085
1180.16441	0.00111
1178.23604	0.00080
1176.30766	0.00063
1174.37929	0.00059
1172.45092	0.00101
1170.52255	0.00116
1168.59417	0.00168
1166.66580	0.00159
1164.73743	0.00147
1162.80905	0.00155
1160.88068	0.00158
1158.95231	0.00099
1157.02393	0.00053
1155.09556	0.00048
1153.16719	0.00063
1151.23881	0.00086
1149.31044	0.00102
1147.38207	0.00081
1145.45369	0.00088
1143.52532	0.00121
1141.59695	0.00132
1139.66857	0.00124
1137.74020	0.00148
1135.81183	0.00140
1133.88345	0.00074
1131.95508	0.00136
1130.02671	0.00162
1128.09833	0.00119
1126.16996	0.00097
1124.24159	0.00135
1122.31321	0.00169
1120.38484	0.00180
1118.45647	0.00111
1116.52809	0.00129
1114.59972	0.00169
1112.67135	0.00148
1110.74298	0.00168
1108.81460	0.00156
1106.88623	0.00105
1104.95786	0.00118
1103.02948	0.00165
1101.10111	0.00191
1099.17274	0.00213
1097.24436	0.00242
1095.31599	0.00217
1093.38762	0.00201
1091.45924	0.00153
1089.53087	0.00120
1087.60250	0.00045
1085.67412	0.00064
1083.74575	0.00091
1081.81738	0.00165
1079.88900	0.00219
1077.96063	0.00125
1076.03226	0.00081
1074.10388	0.00106
1072.17551	0.00147
1070.24714	0.00162
1068.31876	0.00178
1066.39039	0.00191
1064.46202	0.00120
1062.53364	0.00119
1060.60527	0.00106
1058.67690	0.00071
1056.74853	0.00086
1054.82015	0.00124
1052.89178	0.00083
1050.96341	0.00076
1049.03503	0.00192
1047.10666	0.00280
1045.17829	0.00282
1043.24991	0.00212
1041.32154	0.00128
1039.39317	0.00086
1037.46479	0.00122
1035.53642	0.00144
1033.60805	0.00152
1031.67967	0.00173
1029.75130	0.00176
1027.82293	0.00134
1025.89455	0.00099
1023.96618	0.00129
1022.03781	0.00094
1020.10943	0.00063
1018.18106	0.00046
1016.25269	0.00077
1014.32431	0.00103
1012.39594	0.00057
1010.46757	0.00018
1008.53919	0.00031
1006.61082	0.00073
1004.68245	0.00118
1002.75407	0.00174
1000.82570	0.00155
998.89733	0.00068
996.96896	0.00098
995.04058	0.00105
993.11221	0.00086
991.18384	0.00151
989.25546	0.00187
987.32709	0.00193
985.39872	0.00165
983.47034	0.00172
981.54197	0.00202
979.61360	0.00202
977.68522	0.00186
975.75685	0.00185
973.82848	0.00198
971.90010	0.00207
969.97173	0.00236
968.04336	0.00310
966.11498	0.00404
964.18661	0.00456
962.25824	0.00456
960.32986	0.00405
958.40149	0.00324
956.47312	0.00252
954.54474	0.00197
952.61637	0.00185
950.68800	0.00251
948.75962	0.00348
946.83125	0.00448
944.90288	0.00524
942.97451	0.00583
941.04613	0.00684
939.11776	0.00806
937.18939	0.00864
935.26101	0.00862
933.33264	0.00865
931.40427	0.00891
929.47589	0.00899
927.54752	0.00893
925.61915	0.00899
923.69077	0.00878
921.76240	0.00788
919.83403	0.00715
917.90565	0.00739
915.97728	0.00828
914.04891	0.00899
912.12053	0.00882
910.19216	0.00781
908.26379	0.00653
906.33541	0.00581
904.40704	0.00574
902.47867	0.00557
900.55029	0.00478
898.62192	0.00376
896.69355	0.00373
894.76517	0.00421
892.83680	0.00444
890.90843	0.00375
888.98005	0.00257
887.05168	0.00267
885.12331	0.00335
883.19494	0.00394
881.26656	0.00444
879.33819	0.00516
877.40982	0.00602
875.48144	0.00538
873.55307	0.00411
871.62470	0.00291
869.69632	0.00151
867.76795	0.00125
865.83958	0.00262
863.91120	0.00366
861.98283	0.00388
860.05446	0.00377
858.12608	0.00320
856.19771	0.00271
854.26934	0.00242
852.34096	0.00264
850.41259	0.00280
848.48422	0.00207
846.55584	0.00248
844.62747	0.00231
842.69910	0.00199
840.77072	0.00145
838.84235	0.00070
836.91398	0.00136
834.98560	0.00231
833.05723	0.00345
831.12886	0.00346
829.20049	0.00273
827.27211	0.00281
825.34374	0.00270
823.41537	0.00255
821.48699	0.00289
819.55862	0.00336
817.63025	0.00376
815.70187	0.00317
813.77350	0.00285
811.84513	0.00277
809.91675	0.00234
807.98838	0.00245
806.06001	0.00249
804.13163	0.00315
802.20326	0.00346
800.27489	0.00313
798.34651	0.00188
796.41814	0.00131
794.48977	0.00183
792.56139	0.00190
790.63302	0.00163
788.70465	0.00191
786.77627	0.00282
784.84790	0.00255
782.91953	0.00169
780.99115	0.00217
779.06278	0.00297
777.13441	0.00241
775.20603	0.00162
773.27766	0.00154
771.34929	0.00111
769.42092	0.00245
767.49254	0.00292
765.56417	0.00280
763.63580	0.00234
761.70742	0.00230
759.77905	0.00293
757.85068	0.00310
755.92230	0.00317
753.99393	0.00327
752.06556	0.00253
750.13718	0.00139
748.20881	0.00170
746.28044	0.00208
744.35206	0.00177
742.42369	0.00288
740.49532	0.00336
738.56694	0.00313
736.63857	0.00220
734.71020	0.00144
732.78182	0.00062
730.85345	0.00131
728.92508	0.00158
726.99670	0.00132
725.06833	0.00197
723.13996	0.00225
721.21158	0.00238
719.28321	0.00200
717.35484	0.00148
715.42647	0.00187
713.49809	0.00056
711.56972	0.00208
709.64135	0.00176
707.71297	0.00087
705.78460	0.00113
703.85623	0.00164
701.92785	0.00208
699.99948	0.00241
698.07111	0.00261
696.14273	0.00174
694.21436	0.00059
692.28599	0.00097
690.35761	0.00278
688.42924	0.00411
686.50087	0.00329
684.57249	0.00191
682.64412	0.00207
680.71575	0.00272
678.78737	0.00300
676.85900	0.00292
674.93063	0.00373
673.00225	0.00356
671.07388	0.00418
669.14551	0.00480
667.21713	0.00345
665.28876	0.00248
663.36039	0.00187
661.43201	0.00240
659.50364	0.00368
657.57527	0.00422
655.64690	0.00387
653.71852	0.00392
651.79015	0.00472
649.86178	0.00567
647.93340	0.00600
646.00503	0.00417
644.07666	0.00418
642.14828	0.00451
640.21991	0.00388
638.29154	0.00514
636.36316	0.00630
634.43479	0.00760
632.50642	0.00937
630.57804	0.00779
628.64967	0.00388
626.72130	0.00453
624.79292	0.00473
622.86455	0.00699
620.93618	0.00635
619.00780	0.00684
617.07943	0.00800
615.15106	0.00755
613.22268	0.00789
611.29431	0.00712
609.36594	0.00970
607.43756	0.00825
605.50919	0.00527
603.58082	0.00522
601.65244	0.00603
599.72407	0.00618
