3997.51769	0.12908
3995.58931	0.12936
3993.66094	0.12994
3991.73257	0.13036
3989.80419	0.13030
3987.87582	0.13009
3985.94745	0.13011
3984.01907	0.13037
3982.09070	0.13097
3980.16233	0.13157
3978.23396	0.13171
3976.30558	0.13163
3974.37721	0.13142
3972.44884	0.13096
3970.52046	0.13068
3968.59209	0.13092
3966.66372	0.13147
3964.73534	0.13201
3962.80697	0.13255
3960.87860	0.13320
3958.95022	0.13393
3957.02185	0.13450
3955.09348	0.13444
3953.16510	0.13401
3951.23673	0.13417
3949.30836	0.13481
3947.37998	0.13541
3945.45161	0.13616
3943.52324	0.13676
3941.59486	0.13673
3939.66649	0.13664
3937.73812	0.13678
3935.80974	0.13695
3933.88137	0.13753
3931.95300	0.13861
3930.02462	0.13915
3928.09625	0.13927
3926.16788	0.13969
3924.23950	0.14003
3922.31113	0.14016
3920.38276	0.14046
3918.45439	0.14092
3916.52601	0.14143
3914.59764	0.14179
3912.66927	0.14187
3910.74089	0.14210
3908.81252	0.14286
3906.88415	0.14410
3904.95577	0.14570
3903.02740	0.14697
3901.09903	0.14693
3899.17065	0.14591
3897.24228	0.14520
3895.31391	0.14568
3893.38553	0.14710
3891.45716	0.14827
3889.52879	0.14849
3887.60041	0.14869
3885.67204	0.14918
3883.74367	0.14963
3881.81529	0.15044
3879.88692	0.15119
3877.95855	0.15107
3876.03017	0.15093
3874.10180	0.15120
3872.17343	0.15175
3870.24505	0.15242
3868.31668	0.15277
3866.38831	0.15330
3864.45994	0.15427
3862.53156	0.15469
3860.60319	0.15434
3858.67482	0.15422
3856.74644	0.15492
3854.81807	0.15671
3852.88970	0.15823
3850.96132	0.15734
3849.03295	0.15614
3847.10458	0.15586
3845.17620	0.15641
3843.24783	0.15730
3841.31946	0.15817
3839.39108	0.15898
3837.46271	0.15924
3835.53434	0.15874
3833.60596	0.15825
3831.67759	0.15785
3829.74922	0.15741
3827.82084	0.15715
3825.89247	0.15723
3823.96410	0.15820
3822.03572	0.16002
3820.10735	0.16049
3818.17898	0.15931
3816.25060	0.15838
3814.32223	0.15772
3812.39386	0.15719
3810.46548	0.15714
3808.53711	0.15787
3806.60874	0.15881
3804.68037	0.15933
3802.75199	0.15986
3800.82362	0.15995
3798.89525	0.15930
3796.96687	0.15873
3795.03850	0.15804
3793.11013	0.15727
3791.18175	0.15688
3789.25338	0.15687
3787.32501	0.15712
3785.39663	0.15735
3783.46826	0.15716
3781.53989	0.15699
3779.61151	0.15717
3777.68314	0.15666
3775.75477	0.15560
3773.82639	0.15549
3771.89802	0.15633
3769.96965	0.15675
3768.04127	0.15643
3766.11290	0.15612
3764.18453	0.15581
3762.25615	0.15591
3760.32778	0.15655
3758.39941	0.15651
3756.47103	0.15579
3754.54266	0.15575
3752.61429	0.15690
3750.68591	0.15819
3748.75754	0.15802
3746.82917	0.15737
3744.90080	0.15666
3742.97242	0.15531
3741.04405	0.15412
3739.11568	0.15377
3737.18730	0.15413
3735.25893	0.15449
3733.33056	0.15377
3731.40218	0.15194
3729.47381	0.15015
3727.54544	0.14910
3725.61706	0.14891
3723.68869	0.14892
3721.76032	0.14803
3719.83194	0.14612
3717.90357	0.14415
3715.97520	0.14330
3714.04682	0.14368
3712.11845	0.14397
3710.19008	0.14236
3708.26170	0.13947
3706.33333	0.13716
3704.40496	0.13592
3702.47658	0.13473
3700.54821	0.13252
3698.61984	0.13010
3696.69146	0.12819
3694.76309	0.12679
3692.83472	0.12581
3690.90635	0.12440
3688.97797	0.12103
3687.04960	0.11624
3685.12123	0.11227
3683.19285	0.10917
3681.26448	0.10625
3679.33611	0.10347
3677.40773	0.10067
3675.47936	0.09603
3673.55099	0.09049
3671.62261	0.08641
3669.69424	0.08175
3667.76587	0.07667
3665.83749	0.07238
3663.90912	0.06805
3661.98075	0.06374
3660.05237	0.05993
3658.12400	0.05639
3656.19563	0.05231
3654.26725	0.04840
3652.33888	0.04551
3650.41051	0.04280
3648.48213	0.03915
3646.55376	0.03484
3644.62539	0.03123
3642.69701	0.02831
3640.76864	0.02574
3638.84027	0.02370
3636.91189	0.02219
3634.98352	0.02074
3633.05515	0.01932
3631.12678	0.01804
3629.19840	0.01582
3627.27003	0.01286
3625.34166	0.01113
3623.41328	0.01025
3621.48491	0.00958
3619.55654	0.00872
3617.62816	0.00769
3615.69979	0.00710
3613.77142	0.00692
3611.84304	0.00637
3609.91467	0.00501
3607.98630	0.00387
3606.05792	0.00364
3604.12955	0.00334
3602.20118	0.00277
3600.27280	0.00236
3598.34443	0.00201
3596.41606	0.00188
3594.48768	0.00215
3592.55931	0.00244
3590.63094	0.00245
3588.70256	0.00217
3586.77419	0.00165
3584.84582	0.00117
3582.91744	0.00090
3580.98907	0.00055
3579.06070	0.00024
3577.13233	0.00076
3575.20395	0.00130
3573.27558	0.00135
3571.34721	0.00096
3569.41883	0.00111
3567.49046	0.00104
3565.56209	0.00045
3563.63371	0.00041
3561.70534	0.00059
3559.77697	0.00035
3557.84859	0.00032
3555.92022	0.00015
3553.99185	0.00047
3552.06347	0.00073
3550.13510	0.00106
3548.20673	0.00128
3546.27835	0.00083
3544.34998	0.00050
3542.42161	0.00055
3540.49323	0.00070
3538.56486	0.00048
3536.63649	0.00058
3534.70811	0.00104
3532.77974	0.00120
3530.85137	0.00144
3528.92299	0.00124
3526.99462	0.00090
3525.06625	0.00084
3523.13787	0.00077
3521.20950	0.00060
3519.28113	0.00046
3517.35276	0.00078
3515.42438	0.00098
3513.49601	0.00091
3511.56764	0.00071
3509.63926	0.00056
3507.71089	0.00071
3505.78252	0.00092
3503.85414	0.00104
3501.92577	0.00081
3499.99740	0.00075
3498.06902	0.00095
3496.14065	0.00079
3494.21228	0.00110
3492.28390	0.00104
3490.35553	0.00043
3488.42716	0.00050
3486.49878	0.00073
3484.57041	0.00099
3482.64204	0.00071
3480.71366	0.00038
3478.78529	0.00070
3476.85692	0.00076
3474.92854	0.00075
3473.00017	0.00063
3471.07180	0.00050
3469.14342	0.00069
3467.21505	0.00073
3465.28668	0.00102
3463.35831	0.00115
3461.42993	0.00080
3459.50156	0.00042
3457.57319	0.00093
3455.64481	0.00126
3453.71644	0.00132
3451.78807	0.00099
3449.85969	0.00048
3447.93132	0.00081
3446.00295	0.00089
3444.07457	0.00082
3442.14620	0.00095
3440.21783	0.00101
3438.28945	0.00092
3436.36108	0.00102
3434.43271	0.00104
3432.50433	0.00074
3430.57596	0.00067
3428.64759	0.00107
3426.71921	0.00138
3424.79084	0.00097
3422.86247	0.00017
3420.93409	0.00057
3419.00572	0.00092
3417.07735	0.00106
3415.14897	0.00097
3413.22060	0.00109
3411.29223	0.00101
3409.36385	0.00083
3407.43548	0.00075
3405.50711	0.00059
3403.57874	0.00052
3401.65036	0.00066
3399.72199	0.00061
3397.79362	0.00058
3395.86524	0.00084
3393.93687	0.00076
3392.00850	0.00046
3390.08012	0.00102
3388.15175	0.00093
3386.22338	0.00058
3384.29500	0.00093
3382.36663	0.00102
3380.43826	0.00095
3378.50988	0.00100
3376.58151	0.00092
3374.65314	0.00072
3372.72476	0.00076
3370.79639	0.00100
3368.86802	0.00064
3366.93964	0.00029
3365.01127	0.00029
3363.08290	0.00039
3361.15452	0.00083
3359.22615	0.00104
3357.29778	0.00092
3355.36940	0.00072
3353.44103	0.00044
3351.51266	0.00055
3349.58428	0.00102
3347.65591	0.00086
3345.72754	0.00047
3343.79917	0.00074
3341.87079	0.00081
3339.94242	0.00040
3338.01405	0.00036
3336.08567	0.00036
3334.15730	0.00042
3332.22893	0.00068
3330.30055	0.00093
3328.37218	0.00129
3326.44381	0.00131
3324.51543	0.00082
3322.58706	0.00089
3320.65869	0.00077
3318.73031	0.00030
3316.80194	0.00077
3314.87357	0.00099
3312.94519	0.00080
3311.01682	0.00046
3309.08845	0.00056
3307.16007	0.00091
3305.23170	0.00078
3303.30333	0.00085
3301.37495	0.00067
3299.44658	0.00049
3297.51821	0.00050
3295.58983	0.00033
3293.66146	0.00063
3291.73309	0.00075
3289.80472	0.00106
3287.87634	0.00133
3285.94797	0.00138
3284.01960	0.00126
3282.09122	0.00112
3280.16285	0.00081
3278.23448	0.00090
3276.30610	0.00113
3274.37773	0.00091
3272.44936	0.00068
3270.52098	0.00047
3268.59261	0.00040
3266.66424	0.00063
3264.73586	0.00096
3262.80749	0.00130
3260.87912	0.00121
3258.95074	0.00085
3257.02237	0.00050
3255.09400	0.00045
3253.16562	0.00070
3251.23725	0.00027
3249.30888	0.00056
3247.38050	0.00034
3245.45213	0.00047
3243.52376	0.00091
3241.59538	0.00081
3239.66701	0.00039
3237.73864	0.00074
3235.81026	0.00082
3233.88189	0.00072
3231.95352	0.00046
3230.02515	0.00042
3228.09677	0.00046
3226.16840	0.00064
3224.24003	0.00054
3222.31165	0.00036
3220.38328	0.00024
3218.45491	0.00027
3216.52653	0.00064
3214.59816	0.00098
3212.66979	0.00126
3210.74141	0.00137
3208.81304	0.00131
3206.88467	0.00113
3204.95629	0.00074
3203.02792	0.00092
3201.09955	0.00082
3199.17117	0.00036
3197.24280	0.00036
3195.31443	0.00048
3193.38605	0.00043
3191.45768	0.00041
3189.52931	0.00074
3187.60093	0.00091
3185.67256	0.00090
3183.74419	0.00068
3181.81581	0.00048
3179.88744	0.00039
3177.95907	0.00067
3176.03070	0.00093
3174.10232	0.00081
3172.17395	0.00029
3170.24558	0.00036
3168.31720	0.00078
3166.38883	0.00065
3164.46046	0.00052
3162.53208	0.00087
3160.60371	0.00103
3158.67534	0.00080
3156.74696	0.00043
3154.81859	0.00015
3152.89022	0.00029
3150.96184	0.00058
3149.03347	0.00061
3147.10510	0.00059
3145.17672	0.00070
3143.24835	0.00092
3141.31998	0.00102
3139.39160	0.00099
3137.46323	0.00063
3135.53486	0.00042
3133.60648	0.00063
3131.67811	0.00069
3129.74974	0.00087
3127.82136	0.00075
3125.89299	0.00053
3123.96462	0.00045
3122.03624	0.00075
3120.10787	0.00095
3118.17950	0.00098
3116.25113	0.00073
3114.32275	0.00056
3112.39438	0.00091
3110.46601	0.00097
3108.53763	0.00093
3106.60926	0.00099
3104.68089	0.00096
3102.75251	0.00079
3100.82414	0.00065
3098.89577	0.00079
3096.96739	0.00093
3095.03902	0.00081
3093.11065	0.00054
3091.18227	0.00038
3089.25390	0.00074
3087.32553	0.00092
3085.39715	0.00071
3083.46878	0.00020
3081.54041	0.00037
3079.61203	0.00055
3077.68366	0.00061
3075.75529	0.00098
3073.82691	0.00104
3071.89854	0.00070
3069.97017	0.00047
3068.04179	0.00030
3066.11342	0.00067
3064.18505	0.00098
3062.25668	0.00092
3060.32830	0.00060
3058.39993	0.00083
3056.47156	0.00085
3054.54318	0.00082
3052.61481	0.00089
3050.68644	0.00094
3048.75806	0.00067
3046.82969	0.00026
3044.90132	0.00045
3042.97294	0.00054
3041.04457	0.00060
3039.11620	0.00070
3037.18782	0.00079
3035.25945	0.00065
3033.33108	0.00108
3031.40270	0.00120
3029.47433	0.00089
3027.54596	0.00071
3025.61758	0.00082
3023.68921	0.00081
3021.76084	0.00081
3019.83246	0.00104
3017.90409	0.00114
3015.97572	0.00081
3014.04734	0.00042
3012.11897	0.00100
3010.19060	0.00122
3008.26222	0.00101
3006.33385	0.00097
3004.40548	0.00096
3002.47711	0.00057
3000.54873	0.00048
2998.62036	0.00060
2996.69199	0.00067
2994.76361	0.00093
2992.83524	0.00103
2990.90687	0.00082
2988.97849	0.00046
2987.05012	0.00071
2985.12175	0.00126
2983.19337	0.00138
2981.26500	0.00107
2979.33663	0.00061
2977.40825	0.00069
2975.47988	0.00060
2973.55151	0.00038
2971.62313	0.00072
2969.69476	0.00096
2967.76639	0.00129
2965.83801	0.00139
2963.90964	0.00115
2961.98127	0.00147
2960.05289	0.00148
2958.12452	0.00090
2956.19615	0.00040
2954.26777	0.00120
2952.33940	0.00138
2950.41103	0.00126
2948.48266	0.00109
2946.55428	0.00141
2944.62591	0.00132
2942.69754	0.00075
2940.76916	0.00068
2938.84079	0.00107
2936.91242	0.00148
2934.98404	0.00103
2933.05567	0.00061
2931.12730	0.00084
2929.19892	0.00101
2927.27055	0.00117
2925.34218	0.00102
2923.41380	0.00085
2921.48543	0.00077
2919.55706	0.00081
2917.62868	0.00070
2915.70031	0.00057
2913.77194	0.00064
2911.84356	0.00098
2909.91519	0.00126
2907.98682	0.00095
2906.05844	0.00066
2904.13007	0.00056
2902.20170	0.00076
2900.27332	0.00098
2898.34495	0.00061
2896.41658	0.00090
2894.48820	0.00130
2892.55983	0.00122
2890.63146	0.00094
2888.70309	0.00081
2886.77471	0.00059
2884.84634	0.00059
2882.91797	0.00090
2880.98959	0.00082
2879.06122	0.00053
2877.13285	0.00070
2875.20447	0.00082
2873.27610	0.00086
2871.34773	0.00083
2869.41935	0.00070
2867.49098	0.00031
2865.56261	0.00041
2863.63423	0.00049
2861.70586	0.00046
2859.77749	0.00071
2857.84911	0.00052
2855.92074	0.00036
2853.99237	0.00053
2852.06399	0.00062
2850.13562	0.00082
2848.20725	0.00087
2846.27887	0.00055
2844.35050	0.00052
2842.42213	0.00065
2840.49375	0.00059
2838.56538	0.00067
2836.63701	0.00086
2834.70863	0.00112
2832.78026	0.00111
2830.85189	0.00062
2828.92352	0.00050
2826.99514	0.00075
2825.06677	0.00067
2823.13840	0.00069
2821.21002	0.00060
2819.28165	0.00080
2817.35328	0.00107
2815.42490	0.00101
2813.49653	0.00069
2811.56816	0.00039
2809.63978	0.00074
2807.71141	0.00087
2805.78304	0.00067
2803.85466	0.00029
2801.92629	0.00053
2799.99792	0.00076
2798.06954	0.00090
2796.14117	0.00107
2794.21280	0.00125
2792.28442	0.00102
2790.35605	0.00083
2788.42768	0.00066
2786.49930	0.00054
2784.57093	0.00031
2782.64256	0.00030
2780.71418	0.00040
2778.78581	0.00040
2776.85744	0.00033
2774.92907	0.00043
2773.00069	0.00052
2771.07232	0.00050
2769.14395	0.00052
2767.21557	0.00066
2765.28720	0.00078
2763.35883	0.00053
2761.43045	0.00033
2759.50208	0.00049
2757.57371	0.00050
2755.64533	0.00037
2753.71696	0.00038
2751.78859	0.00052
2749.86021	0.00068
2747.93184	0.00073
2746.00347	0.00079
2744.07509	0.00081
2742.14672	0.00114
2740.21835	0.00119
2738.28997	0.00082
2736.36160	0.00046
2734.43323	0.00032
2732.50485	0.00031
2730.57648	0.00022
2728.64811	0.00034
2726.71973	0.00045
2724.79136	0.00050
2722.86299	0.00047
2720.93461	0.00030
2719.00624	0.00035
2717.07787	0.00054
2715.14950	0.00047
2713.22112	0.00052
2711.29275	0.00080
2709.36438	0.00065
2707.43600	0.00052
2705.50763	0.00074
2703.57926	0.00060
2701.65088	0.00012
2699.72251	0.00048
2697.79414	0.00090
2695.86576	0.00098
2693.93739	0.00078
2692.00902	0.00058
2690.08064	0.00042
2688.15227	0.00036
2686.22390	0.00052
2684.29552	0.00060
2682.36715	0.00048
2680.43878	0.00058
2678.51040	0.00094
2676.58203	0.00115
2674.65366	0.00115
2672.72528	0.00091
2670.79691	0.00048
2668.86854	0.00056
2666.94016	0.00055
2665.01179	0.00051
2663.08342	0.00063
2661.15505	0.00050
2659.22667	0.00019
2657.29830	0.00027
2655.36993	0.00046
2653.44155	0.00054
2651.51318	0.00059
2649.58481	0.00070
2647.65643	0.00076
2645.72806	0.00078
2643.79969	0.00070
2641.87131	0.00033
2639.94294	0.00022
2638.01457	0.00055
2636.08619	0.00080
2634.15782	0.00065
2632.22945	0.00068
2630.30107	0.00067
2628.37270	0.00070
2626.44433	0.00057
2624.51595	0.00077
2622.58758	0.00078
2620.65921	0.00075
2618.73083	0.00079
2616.80246	0.00076
2614.87409	0.00070
2612.94571	0.00076
2611.01734	0.00060
2609.08897	0.00038
2607.16059	0.00043
2605.23222	0.00080
2603.30385	0.00090
2601.37548	0.00082
2599.44710	0.00065
2597.51873	0.00051
2595.59036	0.00051
2593.66198	0.00062
2591.73361	0.00079
2589.80524	0.00089
2587.87686	0.00088
2585.94849	0.00082
2584.02012	0.00065
2582.09174	0.00067
2580.16337	0.00089
2578.23500	0.00102
2576.30662	0.00103
2574.37825	0.00106
2572.44988	0.00123
2570.52150	0.00129
2568.59313	0.00125
2566.66476	0.00123
2564.73638	0.00136
2562.80801	0.00149
2560.87964	0.00148
2558.95126	0.00131
2557.02289	0.00098
2555.09452	0.00096
2553.16614	0.00129
2551.23777	0.00141
2549.30940	0.00133
2547.38103	0.00144
2545.45265	0.00171
2543.52428	0.00180
2541.59591	0.00183
2539.66753	0.00193
2537.73916	0.00186
2535.81079	0.00173
2533.88241	0.00181
2531.95404	0.00205
2530.02567	0.00231
2528.09729	0.00245
2526.16892	0.00246
2524.24055	0.00229
2522.31217	0.00204
2520.38380	0.00199
2518.45543	0.00213
2516.52705	0.00228
2514.59868	0.00248
2512.67031	0.00270
2510.74193	0.00273
2508.81356	0.00261
2506.88519	0.00275
2504.95681	0.00302
2503.02844	0.00284
2501.10007	0.00249
2499.17169	0.00261
2497.24332	0.00303
2495.31495	0.00331
2493.38657	0.00356
2491.45820	0.00382
2489.52983	0.00390
2487.60146	0.00384
2485.67308	0.00380
2483.74471	0.00385
2481.81634	0.00399
2479.88796	0.00427
2477.95959	0.00455
2476.03122	0.00459
2474.10284	0.00448
2472.17447	0.00438
2470.24610	0.00426
2468.31772	0.00420
2466.38935	0.00441
2464.46098	0.00480
2462.53260	0.00512
2460.60423	0.00539
2458.67586	0.00576
2456.74748	0.00598
2454.81911	0.00587
2452.89074	0.00572
2450.96236	0.00581
2449.03399	0.00606
2447.10562	0.00626
2445.17724	0.00635
2443.24887	0.00665
2441.32050	0.00708
2439.39212	0.00724
2437.46375	0.00719
2435.53538	0.00725
2433.60700	0.00733
2431.67863	0.00725
2429.75026	0.00721
2427.82189	0.00751
2425.89351	0.00802
2423.96514	0.00830
2422.03677	0.00822
2420.10839	0.00806
2418.18002	0.00818
2416.25165	0.00858
2414.32327	0.00896
2412.39490	0.00909
2410.46653	0.00915
2408.53815	0.00945
2406.60978	0.00987
2404.68141	0.01017
2402.75303	0.01041
2400.82466	0.01072
2398.89629	0.01113
2396.96791	0.01138
2395.03954	0.01136
2393.11117	0.01137
2391.18279	0.01159
2389.25442	0.01182
2387.32605	0.01203
2385.39767	0.01237
2383.46930	0.01266
2381.54093	0.01282
2379.61255	0.01300
2377.68418	0.01327
2375.75581	0.01378
2373.82744	0.01432
2371.89906	0.01425
2369.97069	0.01404
2368.04232	0.01486
2366.11394	0.01631
2364.18557	0.01705
2362.25720	0.01747
2360.32882	0.01806
2358.40045	0.01793
2356.47208	0.01644
2354.54370	0.01569
2352.61533	0.01646
2350.68696	0.01728
2348.75858	0.01780
2346.83021	0.01819
2344.90184	0.01839
2342.97346	0.01853
2341.04509	0.01868
2339.11672	0.01875
2337.18834	0.01885
2335.25997	0.01874
2333.33160	0.01850
2331.40322	0.01891
2329.47485	0.02002
2327.54648	0.02071
2325.61810	0.02055
2323.68973	0.02031
2321.76136	0.02060
2319.83298	0.02107
2317.90461	0.02137
2315.97624	0.02151
2314.04787	0.02157
2312.11949	0.02174
2310.19112	0.02214
2308.26275	0.02246
2306.33437	0.02252
2304.40600	0.02270
2302.47763	0.02314
2300.54925	0.02349
2298.62088	0.02374
2296.69251	0.02402
2294.76413	0.02428
2292.83576	0.02456
2290.90739	0.02490
2288.97901	0.02513
2287.05064	0.02529
2285.12227	0.02565
2283.19389	0.02626
2281.26552	0.02679
2279.33715	0.02702
2277.40877	0.02701
2275.48040	0.02704
2273.55203	0.02729
2271.62365	0.02758
2269.69528	0.02778
2267.76691	0.02800
2265.83853	0.02824
2263.91016	0.02843
2261.98179	0.02865
2260.05342	0.02889
2258.12504	0.02896
2256.19667	0.02894
2254.26830	0.02903
2252.33992	0.02934
2250.41155	0.02976
2248.48318	0.03008
2246.55480	0.03025
2244.62643	0.03038
2242.69806	0.03057
2240.76968	0.03083
2238.84131	0.03109
2236.91294	0.03131
2234.98456	0.03153
2233.05619	0.03189
2231.12782	0.03235
2229.19944	0.03266
2227.27107	0.03275
2225.34270	0.03282
2223.41432	0.03301
2221.48595	0.03326
2219.55758	0.03337
2217.62920	0.03343
2215.70083	0.03364
2213.77246	0.03392
2211.84408	0.03424
2209.91571	0.03454
2207.98734	0.03465
2206.05896	0.03455
2204.13059	0.03450
2202.20222	0.03463
2200.27385	0.03472
2198.34547	0.03472
2196.41710	0.03486
2194.48873	0.03521
2192.56035	0.03551
2190.63198	0.03560
2188.70361	0.03566
2186.77523	0.03575
2184.84686	0.03576
2182.91849	0.03577
2180.99011	0.03579
2179.06174	0.03578
2177.13337	0.03584
2175.20499	0.03605
2173.27662	0.03627
2171.34825	0.03635
2169.41987	0.03640
2167.49150	0.03649
2165.56313	0.03656
2163.63475	0.03661
2161.70638	0.03674
2159.77801	0.03685
2157.84963	0.03680
2155.92126	0.03666
2153.99289	0.03665
2152.06451	0.03675
2150.13614	0.03683
2148.20777	0.03690
2146.27940	0.03696
2144.35102	0.03699
2142.42265	0.03712
2140.49428	0.03732
2138.56590	0.03735
2136.63753	0.03732
2134.70916	0.03748
2132.78078	0.03783
2130.85241	0.03809
2128.92404	0.03817
2126.99566	0.03823
2125.06729	0.03829
2123.13892	0.03838
2121.21054	0.03862
2119.28217	0.03894
2117.35380	0.03922
2115.42542	0.03949
2113.49705	0.03975
2111.56868	0.03993
2109.64030	0.03997
2107.71193	0.03992
2105.78356	0.03980
2103.85518	0.03984
2101.92681	0.04018
2099.99844	0.04050
2098.07006	0.04071
2096.14169	0.04091
2094.21332	0.04099
2092.28494	0.04106
2090.35657	0.04129
2088.42820	0.04141
2086.49983	0.04128
2084.57145	0.04101
2082.64308	0.04088
2080.71471	0.04099
2078.78633	0.04100
2076.85796	0.04080
2074.92959	0.04068
2073.00121	0.04072
2071.07284	0.04073
2069.14447	0.04064
2067.21609	0.04059
2065.28772	0.04051
2063.35935	0.04033
2061.43097	0.04014
2059.50260	0.04003
2057.57423	0.04009
2055.64585	0.04028
2053.71748	0.04052
2051.78911	0.04080
2049.86073	0.04101
2047.93236	0.04112
2046.00399	0.04130
2044.07561	0.04148
2042.14724	0.04155
2040.21887	0.04163
2038.29049	0.04187
2036.36212	0.04220
2034.43375	0.04232
2032.50538	0.04211
2030.57700	0.04188
2028.64863	0.04190
2026.72026	0.04215
2024.79188	0.04232
2022.86351	0.04225
2020.93514	0.04221
2019.00676	0.04237
2017.07839	0.04243
2015.15002	0.04231
2013.22164	0.04237
2011.29327	0.04262
2009.36490	0.04279
2007.43652	0.04275
2005.50815	0.04263
2003.57978	0.04260
2001.65140	0.04258
1999.72303	0.04246
1997.79466	0.04252
1995.86628	0.04289
1993.93791	0.04316
1992.00954	0.04314
1990.08116	0.04314
1988.15279	0.04322
1986.22442	0.04326
1984.29604	0.04329
1982.36767	0.04327
1980.43930	0.04331
1978.51092	0.04352
1976.58255	0.04363
1974.65418	0.04352
1972.72581	0.04344
1970.79743	0.04349
1968.86906	0.04360
1966.94069	0.04375
1965.01231	0.04387
1963.08394	0.04392
1961.15557	0.04399
1959.22719	0.04412
1957.29882	0.04426
1955.37045	0.04438
1953.44207	0.04446
1951.51370	0.04454
1949.58533	0.04461
1947.65695	0.04469
1945.72858	0.04483
1943.80021	0.04500
1941.87183	0.04510
1939.94346	0.04510
1938.01509	0.04506
1936.08671	0.04499
1934.15834	0.04495
1932.22997	0.04497
1930.30159	0.04506
1928.37322	0.04518
1926.44485	0.04527
1924.51647	0.04534
1922.58810	0.04531
1920.65973	0.04517
1918.73135	0.04503
1916.80298	0.04499
1914.87461	0.04499
1912.94624	0.04506
1911.01786	0.04517
1909.08949	0.04520
1907.16112	0.04512
1905.23274	0.04513
1903.30437	0.04521
1901.37600	0.04514
1899.44762	0.04494
1897.51925	0.04472
1895.59088	0.04451
1893.66250	0.04445
1891.73413	0.04453
1889.80576	0.04448
1887.87738	0.04412
1885.94901	0.04373
1884.02064	0.04353
1882.09226	0.04344
1880.16389	0.04322
1878.23552	0.04268
1876.30714	0.04218
1874.37877	0.04201
1872.45040	0.04200
1870.52202	0.04198
1868.59365	0.04192
1866.66528	0.04160
1864.73690	0.04104
1862.80853	0.04060
1860.88016	0.04046
1858.95179	0.04043
1857.02341	0.04022
1855.09504	0.03989
1853.16667	0.03964
1851.23829	0.03946
1849.30992	0.03931
1847.38155	0.03930
1845.45317	0.03925
1843.52480	0.03885
1841.59643	0.03838
1839.66805	0.03812
1837.73968	0.03791
1835.81131	0.03762
1833.88293	0.03728
1831.95456	0.03691
1830.02619	0.03653
1828.09781	0.03625
1826.16944	0.03602
1824.24107	0.03558
1822.31269	0.03490
1820.38432	0.03411
1818.45595	0.03334
1816.52757	0.03265
1814.59920	0.03199
1812.67083	0.03127
1810.74245	0.03048
1808.81408	0.02964
1806.88571	0.02874
1804.95733	0.02782
1803.02896	0.02687
1801.10059	0.02582
1799.17222	0.02464
1797.24384	0.02349
1795.31547	0.02246
1793.38710	0.02133
1791.45872	0.01999
1789.53035	0.01877
1787.60198	0.01770
1785.67360	0.01649
1783.74523	0.01527
1781.81686	0.01425
1779.88848	0.01330
1777.96011	0.01247
1776.03174	0.01167
1774.10336	0.01058
1772.17499	0.00943
1770.24662	0.00877
1768.31824	0.00819
1766.38987	0.00732
1764.46150	0.00650
1762.53312	0.00574
1760.60475	0.00480
1758.67638	0.00368
1756.74800	0.00255
1754.81963	0.00173
1752.89126	0.00131
1750.96288	0.00115
1749.03451	0.00097
1747.10614	0.00059
1745.17777	0.00044
1743.24939	0.00052
1741.32102	0.00074
1739.39265	0.00090
1737.46427	0.00070
1735.53590	0.00061
1733.60753	0.00066
1731.67915	0.00074
1729.75078	0.00065
1727.82241	0.00061
1725.89403	0.00048
1723.96566	0.00035
1722.03729	0.00036
1720.10891	0.00036
1718.18054	0.00049
1716.25217	0.00102
1714.32379	0.00084
1712.39542	0.00037
1710.46705	0.00055
1708.53867	0.00072
1706.61030	0.00116
1704.68193	0.00136
1702.75355	0.00121
1700.82518	0.00061
1698.89681	0.00099
1696.96843	0.00105
1695.04006	0.00080
1693.11169	0.00031
1691.18331	0.00082
1689.25494	0.00096
1687.32657	0.00085
1685.39820	0.00085
1683.46982	0.00078
1681.54145	0.00049
1679.61308	0.00074
1677.68470	0.00082
1675.75633	0.00081
1673.82796	0.00086
1671.89958	0.00074
1669.97121	0.00044
1668.04284	0.00029
1666.11446	0.00025
1664.18609	0.00024
1662.25772	0.00041
1660.32934	0.00053
1658.40097	0.00067
1656.47260	0.00111
1654.54422	0.00123
1652.61585	0.00093
1650.68748	0.00085
1648.75910	0.00080
1646.83073	0.00077
1644.90236	0.00057
1642.97398	0.00036
1641.04561	0.00035
1639.11724	0.00045
1637.18886	0.00055
1635.26049	0.00088
1633.33212	0.00093
1631.40375	0.00077
1629.47537	0.00059
1627.54700	0.00039
1625.61863	0.00084
1623.69025	0.00092
1621.76188	0.00046
1619.83351	0.00025
1617.90513	0.00060
1615.97676	0.00055
1614.04839	0.00030
1612.12001	0.00040
1610.19164	0.00065
1608.26327	0.00070
1606.33489	0.00038
1604.40652	0.00031
1602.47815	0.00039
1600.54977	0.00039
1598.62140	0.00072
1596.69303	0.00079
1594.76465	0.00057
1592.83628	0.00050
1590.90791	0.00060
1588.97953	0.00056
1587.05116	0.00043
1585.12279	0.00030
1583.19441	0.00034
1581.26604	0.00042
1579.33767	0.00039
1577.40929	0.00075
1575.48092	0.00106
1573.55255	0.00098
1571.62418	0.00088
1569.69580	0.00065
1567.76743	0.00046
1565.83906	0.00059
1563.91068	0.00051
1561.98231	0.00062
1560.05394	0.00110
1558.12556	0.00159
1556.19719	0.00096
1554.26882	0.00035
1552.34044	0.00038
1550.41207	0.00036
1548.48370	0.00053
1546.55532	0.00067
1544.62695	0.00062
1542.69858	0.00089
1540.77020	0.00063
1538.84183	0.00043
1536.91346	0.00049
1534.98508	0.00054
1533.05671	0.00077
1531.12834	0.00078
1529.19996	0.00077
1527.27159	0.00056
1525.34322	0.00044
1523.41484	0.00023
1521.48647	0.00061
1519.55810	0.00091
1517.62972	0.00096
1515.70135	0.00096
1513.77298	0.00105
1511.84461	0.00103
1509.91623	0.00090
1507.98786	0.00084
1506.05949	0.00084
1504.13111	0.00079
1502.20274	0.00068
1500.27437	0.00084
1498.34599	0.00112
1496.41762	0.00103
1494.48925	0.00052
1492.56087	0.00041
1490.63250	0.00056
1488.70413	0.00033
1486.77575	0.00034
1484.84738	0.00055
1482.91901	0.00036
1480.99063	0.00023
1479.06226	0.00053
1477.13389	0.00056
1475.20551	0.00063
1473.27714	0.00132
1471.34877	0.00163
1469.42039	0.00098
1467.49202	0.00074
1465.56365	0.00097
1463.63527	0.00091
1461.70690	0.00104
1459.77853	0.00112
1457.85016	0.00112
1455.92178	0.00114
1453.99341	0.00121
1452.06504	0.00085
1450.13666	0.00061
1448.20829	0.00071
1446.27992	0.00096
1444.35154	0.00101
1442.42317	0.00078
1440.49480	0.00049
1438.56642	0.00062
1436.63805	0.00093
1434.70968	0.00096
1432.78130	0.00070
1430.85293	0.00041
1428.92456	0.00045
1426.99618	0.00055
1425.06781	0.00062
1423.13944	0.00070
1421.21106	0.00071
1419.28269	0.00081
1417.35432	0.00074
1415.42594	0.00079
1413.49757	0.00068
1411.56920	0.00053
1409.64082	0.00027
1407.71245	0.00020
1405.78408	0.00046
1403.85570	0.00055
1401.92733	0.00073
1399.99896	0.00085
1398.07059	0.00096
1396.14221	0.00096
1394.21384	0.00074
1392.28547	0.00096
1390.35709	0.00110
1388.42872	0.00090
1386.50035	0.00068
1384.57197	0.00094
1382.64360	0.00117
1380.71523	0.00122
1378.78685	0.00085
1376.85848	0.00104
1374.93011	0.00118
1373.00173	0.00070
1371.07336	0.00038
1369.14499	0.00051
1367.21661	0.00049
1365.28824	0.00055
1363.35987	0.00060
1361.43149	0.00059
1359.50312	0.00057
1357.57475	0.00058
1355.64637	0.00101
1353.71800	0.00132
1351.78963	0.00113
1349.86125	0.00072
1347.93288	0.00023
1346.00451	0.00047
1344.07614	0.00073
1342.14776	0.00085
1340.21939	0.00063
1338.29102	0.00046
1336.36264	0.00056
1334.43427	0.00051
1332.50590	0.00053
1330.57752	0.00112
1328.64915	0.00153
1326.72078	0.00131
1324.79240	0.00075
1322.86403	0.00091
1320.93566	0.00136
1319.00728	0.00128
1317.07891	0.00085
1315.15054	0.00024
1313.22216	0.00037
1311.29379	0.00060
1309.36542	0.00066
1307.43704	0.00101
1305.50867	0.00097
1303.58030	0.00047
1301.65192	0.00094
1299.72355	0.00085
1297.79518	0.00059
1295.86680	0.00093
1293.93843	0.00111
1292.01006	0.00073
1290.08168	0.00054
1288.15331	0.00060
1286.22494	0.00061
1284.29657	0.00063
1282.36819	0.00063
1280.43982	0.00069
1278.51145	0.00061
1276.58307	0.00044
1274.65470	0.00095
1272.72633	0.00122
1270.79795	0.00081
1268.86958	0.00073
1266.94121	0.00066
1265.01283	0.00050
1263.08446	0.00059
1261.15609	0.00044
1259.22771	0.00053
1257.29934	0.00067
1255.37097	0.00094
1253.44259	0.00113
1251.51422	0.00147
1249.58585	0.00125
1247.65747	0.00095
1245.72910	0.00108
1243.80073	0.00082
1241.87235	0.00096
1239.94398	0.00163
1238.01561	0.00131
1236.08723	0.00062
1234.15886	0.00071
1232.23049	0.00090
1230.30212	0.00079
1228.37374	0.00031
1226.44537	0.00066
1224.51700	0.00088
1222.58862	0.00098
1220.66025	0.00131
1218.73188	0.00123
1216.80350	0.00049
1214.87513	0.00155
1212.94676	0.00169
1211.01838	0.00121
1209.09001	0.00092
1207.16164	0.00078
1205.23326	0.00065
1203.30489	0.00083
1201.37652	0.00110
1199.44814	0.00180
1197.51977	0.00157
1195.59140	0.00136
1193.66302	0.00101
1191.73465	0.00119
1189.80628	0.00075
1187.87790	0.00077
1185.94953	0.00111
1184.02116	0.00194
1182.09278	0.00171
1180.16441	0.00075
1178.23604	0.00099
1176.30766	0.00104
1174.37929	0.00150
1172.45092	0.00150
1170.52255	0.00147
1168.59417	0.00171
1166.66580	0.00224
1164.73743	0.00249
1162.80905	0.00270
1160.88068	0.00228
1158.95231	0.00135
1157.02393	0.00175
1155.09556	0.00216
1153.16719	0.00191
1151.23881	0.00194
1149.31044	0.00204
1147.38207	0.00158
1145.45369	0.00145
1143.52532	0.00113
1141.59695	0.00060
1139.66857	0.00082
1137.74020	0.00071
1135.81183	0.00132
1133.88345	0.00157
1131.95508	0.00133
1130.02671	0.00129
1128.09833	0.00104
1126.16996	0.00142
1124.24159	0.00220
1122.31321	0.00243
1120.38484	0.00166
1118.45647	0.00150
1116.52809	0.00191
1114.59972	0.00163
1112.67135	0.00143
1110.74298	0.00219
1108.81460	0.00205
1106.88623	0.00184
1104.95786	0.00152
1103.02948	0.00083
1101.10111	0.00051
1099.17274	0.00127
1097.24436	0.00171
1095.31599	0.00157
1093.38762	0.00147
1091.45924	0.00163
1089.53087	0.00169
1087.60250	0.00160
1085.67412	0.00141
1083.74575	0.00203
1081.81738	0.00156
1079.88900	0.00091
1077.96063	0.00106
1076.03226	0.00133
1074.10388	0.00091
1072.17551	0.00055
1070.24714	0.00079
1068.31876	0.00080
1066.39039	0.00139
1064.46202	0.00145
1062.53364	0.00088
1060.60527	0.00088
1058.67690	0.00080
1056.74853	0.00107
1054.82015	0.00105
1052.89178	0.00052
1050.96341	0.00074
1049.03503	0.00081
1047.10666	0.00102
1045.17829	0.00109
1043.24991	0.00112
1041.32154	0.00159
1039.39317	0.00142
1037.46479	0.00059
1035.53642	0.00041
1033.60805	0.00118
1031.67967	0.00220
1029.75130	0.00246
1027.82293	0.00204
1025.89455	0.00127
1023.96618	0.00137
1022.03781	0.00153
1020.10943	0.00126
1018.18106	0.00097
1016.25269	0.00109
1014.32431	0.00098
1012.39594	0.00121
1010.46757	0.00127
1008.53919	0.00072
1006.61082	0.00038
1004.68245	0.00047
1002.75407	0.00027
1000.82570	0.00068
998.89733	0.00095
996.96896	0.00078
995.04058	0.00076
993.11221	0.00143
991.18384	0.00157
989.25546	0.00147
987.32709	0.00125
985.39872	0.00083
983.47034	0.00124
981.54197	0.00109
979.61360	0.00090
977.68522	0.00115
975.75685	0.00123
973.82848	0.00118
971.90010	0.00141
969.97173	0.00118
968.04336	0.00066
966.11498	0.00096
964.18661	0.00085
962.25824	0.00099
960.32986	0.00095
958.40149	0.00075
956.47312	0.00030
954.54474	0.00117
952.61637	0.00211
950.68800	0.00177
948.75962	0.00124
946.83125	0.00150
944.90288	0.00129
942.97451	0.00102
941.04613	0.00105
939.11776	0.00133
937.18939	0.00106
935.26101	0.00075
933.33264	0.00085
931.40427	0.00179
929.47589	0.00265
927.54752	0.00235
925.61915	0.00177
923.69077	0.00137
921.76240	0.00150
919.83403	0.00197
917.90565	0.00169
915.97728	0.00094
914.04891	0.00143
912.12053	0.00185
910.19216	0.00223
908.26379	0.00254
906.33541	0.00211
904.40704	0.00131
902.47867	0.00102
900.55029	0.00107
898.62192	0.00173
896.69355	0.00222
894.76517	0.00203
892.83680	0.00111
890.90843	0.00070
888.98005	0.00080
887.05168	0.00171
885.12331	0.00258
883.19494	0.00239
881.26656	0.00219
879.33819	0.00234
877.40982	0.00198
875.48144	0.00195
873.55307	0.00156
871.62470	0.00195
869.69632	0.00214
867.76795	0.00161
865.83958	0.00276
863.91120	0.00300
861.98283	0.00210
860.05446	0.00109
858.12608	0.00159
856.19771	0.00157
854.26934	0.00198
852.34096	0.00205
850.41259	0.00171
848.48422	0.00091
846.55584	0.00124
844.62747	0.00212
842.69910	0.00104
840.77072	0.00076
838.84235	0.00134
836.91398	0.00156
834.98560	0.00169
833.05723	0.00171
831.12886	0.00263
829.20049	0.00365
827.27211	0.00325
825.34374	0.00227
823.41537	0.00209
821.48699	0.00228
819.55862	0.00210
817.63025	0.00199
815.70187	0.00253
813.77350	0.00280
811.84513	0.00264
809.91675	0.00233
807.98838	0.00202
806.06001	0.00180
804.13163	0.00248
802.20326	0.00291
800.27489	0.00203
798.34651	0.00181
796.41814	0.00209
794.48977	0.00160
792.56139	0.00179
790.63302	0.00195
788.70465	0.00232
786.77627	0.00232
784.84790	0.00211
782.91953	0.00265
780.99115	0.00283
779.06278	0.00181
777.13441	0.00096
775.20603	0.00083
773.27766	0.00157
771.34929	0.00227
769.42092	0.00145
767.49254	0.00119
765.56417	0.00183
763.63580	0.00204
761.70742	0.00215
759.77905	0.00321
757.85068	0.00361
755.92230	0.00266
753.99393	0.00108
752.06556	0.00156
750.13718	0.00221
748.20881	0.00252
746.28044	0.00217
744.35206	0.00260
742.42369	0.00266
740.49532	0.00237
738.56694	0.00289
736.63857	0.00272
734.71020	0.00235
732.78182	0.00145
730.85345	0.00191
728.92508	0.00255
726.99670	0.00152
725.06833	0.00151
723.13996	0.00224
721.21158	0.00360
719.28321	0.00281
717.35484	0.00161
715.42647	0.00314
713.49809	0.00308
711.56972	0.00189
709.64135	0.00188
707.71297	0.00246
705.78460	0.00304
703.85623	0.00267
701.92785	0.00208
699.99948	0.00265
698.07111	0.00286
696.14273	0.00235
694.21436	0.00182
692.28599	0.00193
690.35761	0.00356
688.42924	0.00523
686.50087	0.00526
684.57249	0.00416
682.64412	0.00265
680.71575	0.00342
678.78737	0.00416
676.85900	0.00577
674.93063	0.00821
673.00225	0.00875
671.07388	0.00788
669.14551	0.00536
667.21713	0.00402
665.28876	0.00421
663.36039	0.00309
661.43201	0.00284
659.50364	0.00327
657.57527	0.00367
655.64690	0.00282
653.71852	0.00383
651.79015	0.00694
649.86178	0.00963
647.93340	0.00897
646.00503	0.00748
644.07666	0.00860
642.14828	0.00923
640.21991	0.00756
638.29154	0.00603
636.36316	0.00677
634.43479	0.00673
632.50642	0.00715
630.57804	0.00656
628.64967	0.00544
626.72130	0.00689
624.79292	0.00600
622.86455	0.00553
620.93618	0.00777
619.00780	0.00650
617.07943	0.00381
615.15106	0.00516
613.22268	0.00589
611.29431	0.00718
609.36594	0.00901
607.43756	0.00933
605.50919	0.00880
603.58082	0.00519
601.65244	0.00491
599.72407	0.00902
