3997.51769	0.60232
3995.58931	0.60216
3993.66094	0.60213
3991.73257	0.60230
3989.80419	0.60275
3987.87582	0.60357
3985.94745	0.60409
3984.01907	0.60409
3982.09070	0.60429
3980.16233	0.60470
3978.23396	0.60466
3976.30558	0.60406
3974.37721	0.60368
3972.44884	0.60402
3970.52046	0.60493
3968.59209	0.60654
3966.66372	0.60854
3964.73534	0.60936
3962.80697	0.60858
3960.87860	0.60856
3958.95022	0.61019
3957.02185	0.61206
3955.09348	0.61336
3953.16510	0.61289
3951.23673	0.60992
3949.30836	0.60752
3947.37998	0.60926
3945.45161	0.61149
3943.52324	0.61094
3941.59486	0.61287
3939.66649	0.61836
3937.73812	0.62178
3935.80974	0.62043
3933.88137	0.61509
3931.95300	0.61105
3930.02462	0.61354
3928.09625	0.61773
3926.16788	0.61722
3924.23950	0.61579
3922.31113	0.61767
3920.38276	0.61827
3918.45439	0.61674
3916.52601	0.61954
3914.59764	0.62769
3912.66927	0.63460
3910.74089	0.63705
3908.81252	0.63427
3906.88415	0.62363
3904.95577	0.60843
3903.02740	0.59980
3901.09903	0.60239
3899.17065	0.61330
3897.24228	0.62769
3895.31391	0.63462
3893.38553	0.63001
3891.45716	0.62630
3889.52879	0.63137
3887.60041	0.63203
3885.67204	0.62674
3883.74367	0.62513
3881.81529	0.62415
3879.88692	0.62817
3877.95855	0.63917
3876.03017	0.64041
3874.10180	0.63146
3872.17343	0.62298
3870.24505	0.62000
3868.31668	0.62582
3866.38831	0.62965
3864.45994	0.62739
3862.53156	0.63259
3860.60319	0.64390
3858.67482	0.64601
3856.74644	0.63411
3854.81807	0.61384
3852.88970	0.60752
3850.96132	0.62908
3849.03295	0.64999
3847.10458	0.65741
3845.17620	0.65215
3843.24783	0.64013
3841.31946	0.62723
3839.39108	0.61772
3837.46271	0.61945
3835.53434	0.63055
3833.60596	0.63967
3831.67759	0.64661
3829.74922	0.65219
3827.82084	0.65288
3825.89247	0.65039
3823.96410	0.64302
3822.03572	0.62848
3820.10735	0.62365
3818.17898	0.63163
3816.25060	0.63994
3814.32223	0.65412
3812.39386	0.66747
3810.46548	0.66831
3808.53711	0.65783
3806.60874	0.64801
3804.68037	0.64292
3802.75199	0.63370
3800.82362	0.63097
3798.89525	0.64031
3796.96687	0.64852
3795.03850	0.65859
3793.11013	0.66963
3791.18175	0.67443
3789.25338	0.67395
3787.32501	0.66977
3785.39663	0.66441
3783.46826	0.66229
3781.53989	0.65920
3779.61151	0.65496
3777.68314	0.65931
3775.75477	0.66767
3773.82639	0.66794
3771.89802	0.65824
3769.96965	0.64783
3768.04127	0.64573
3766.11290	0.64834
3764.18453	0.65194
3762.25615	0.65089
3760.32778	0.64161
3758.39941	0.63479
3756.47103	0.63458
3754.54266	0.62796
3752.61429	0.60950
3750.68591	0.59486
3748.75754	0.59889
3746.82917	0.60254
3744.90080	0.60139
3742.97242	0.61050
3741.04405	0.61992
3739.11568	0.61515
3737.18730	0.59754
3735.25893	0.58246
3733.33056	0.58922
3731.40218	0.61006
3729.47381	0.62314
3727.54544	0.62146
3725.61706	0.61360
3723.68869	0.60952
3721.76032	0.61059
3719.83194	0.61480
3717.90357	0.61821
3715.97520	0.61484
3714.04682	0.60030
3712.11845	0.58055
3710.19008	0.57567
3708.26170	0.58792
3706.33333	0.59754
3704.40496	0.59454
3702.47658	0.58424
3700.54821	0.57932
3698.61984	0.57963
3696.69146	0.57551
3694.76309	0.56408
3692.83472	0.54469
3690.90635	0.52001
3688.97797	0.50490
3687.04960	0.50669
3685.12123	0.50885
3683.19285	0.50126
3681.26448	0.48418
3679.33611	0.46058
3677.40773	0.43222
3675.47936	0.40575
3673.55099	0.39335
3671.62261	0.38336
3669.69424	0.36801
3667.76587	0.35889
3665.83749	0.35300
3663.90912	0.34106
3661.98075	0.32428
3660.05237	0.30567
3658.12400	0.28542
3656.19563	0.26488
3654.26725	0.24740
3652.33888	0.22905
3650.41051	0.20523
3648.48213	0.18479
3646.55376	0.17678
3644.62539	0.17242
3642.69701	0.16469
3640.76864	0.15411
3638.84027	0.14314
3636.91189	0.13239
3634.98352	0.12157
3633.05515	0.11104
3631.12678	0.10081
3629.19840	0.09004
3627.27003	0.08195
3625.34166	0.07769
3623.41328	0.07298
3621.48491	0.06644
3619.55654	0.05918
3617.62816	0.05346
3615.69979	0.04930
3613.77142	0.04521
3611.84304	0.04124
3609.91467	0.03750
3607.98630	0.03397
3606.05792	0.03127
3604.12955	0.02905
3602.20118	0.02641
3600.27280	0.02363
3598.34443	0.02121
3596.41606	0.01890
3594.48768	0.01682
3592.55931	0.01533
3590.63094	0.01409
3588.70256	0.01247
3586.77419	0.01097
3584.84582	0.01005
3582.91744	0.00912
3580.98907	0.00805
3579.06070	0.00719
3577.13233	0.00674
3575.20395	0.00627
3573.27558	0.00550
3571.34721	0.00452
3569.41883	0.00373
3567.49046	0.00331
3565.56209	0.00298
3563.63371	0.00257
3561.70534	0.00217
3559.77697	0.00194
3557.84859	0.00179
3555.92022	0.00163
3553.99185	0.00150
3552.06347	0.00137
3550.13510	0.00116
3548.20673	0.00094
3546.27835	0.00092
3544.34998	0.00085
3542.42161	0.00064
3540.49323	0.00057
3538.56486	0.00057
3536.63649	0.00064
3534.70811	0.00059
3532.77974	0.00058
3530.85137	0.00055
3528.92299	0.00052
3526.99462	0.00062
3525.06625	0.00067
3523.13787	0.00057
3521.20950	0.00034
3519.28113	0.00033
3517.35276	0.00032
3515.42438	0.00040
3513.49601	0.00050
3511.56764	0.00050
3509.63926	0.00051
3507.71089	0.00058
3505.78252	0.00061
3503.85414	0.00042
3501.92577	0.00020
3499.99740	0.00034
3498.06902	0.00034
3496.14065	0.00035
3494.21228	0.00034
3492.28390	0.00036
3490.35553	0.00049
3488.42716	0.00046
3486.49878	0.00027
3484.57041	0.00035
3482.64204	0.00053
3480.71366	0.00040
3478.78529	0.00034
3476.85692	0.00030
3474.92854	0.00037
3473.00017	0.00036
3471.07180	0.00032
3469.14342	0.00037
3467.21505	0.00022
3465.28668	0.00020
3463.35831	0.00033
3461.42993	0.00040
3459.50156	0.00042
3457.57319	0.00047
3455.64481	0.00044
3453.71644	0.00032
3451.78807	0.00043
3449.85969	0.00040
3447.93132	0.00043
3446.00295	0.00056
3444.07457	0.00044
3442.14620	0.00026
3440.21783	0.00031
3438.28945	0.00036
3436.36108	0.00046
3434.43271	0.00050
3432.50433	0.00054
3430.57596	0.00039
3428.64759	0.00024
3426.71921	0.00037
3424.79084	0.00037
3422.86247	0.00044
3420.93409	0.00047
3419.00572	0.00036
3417.07735	0.00046
3415.14897	0.00041
3413.22060	0.00033
3411.29223	0.00036
3409.36385	0.00043
3407.43548	0.00044
3405.50711	0.00051
3403.57874	0.00036
3401.65036	0.00026
3399.72199	0.00016
3397.79362	0.00033
3395.86524	0.00044
3393.93687	0.00061
3392.00850	0.00076
3390.08012	0.00075
3388.15175	0.00064
3386.22338	0.00050
3384.29500	0.00036
3382.36663	0.00026
3380.43826	0.00035
3378.50988	0.00036
3376.58151	0.00031
3374.65314	0.00047
3372.72476	0.00071
3370.79639	0.00074
3368.86802	0.00072
3366.93964	0.00075
3365.01127	0.00067
3363.08290	0.00035
3361.15452	0.00040
3359.22615	0.00033
3357.29778	0.00022
3355.36940	0.00045
3353.44103	0.00050
3351.51266	0.00038
3349.58428	0.00057
3347.65591	0.00058
3345.72754	0.00040
3343.79917	0.00038
3341.87079	0.00039
3339.94242	0.00029
3338.01405	0.00017
3336.08567	0.00035
3334.15730	0.00037
3332.22893	0.00040
3330.30055	0.00038
3328.37218	0.00037
3326.44381	0.00035
3324.51543	0.00028
3322.58706	0.00033
3320.65869	0.00045
3318.73031	0.00057
3316.80194	0.00063
3314.87357	0.00062
3312.94519	0.00051
3311.01682	0.00036
3309.08845	0.00029
3307.16007	0.00045
3305.23170	0.00058
3303.30333	0.00064
3301.37495	0.00055
3299.44658	0.00025
3297.51821	0.00021
3295.58983	0.00045
3293.66146	0.00056
3291.73309	0.00071
3289.80472	0.00075
3287.87634	0.00051
3285.94797	0.00023
3284.01960	0.00015
3282.09122	0.00026
3280.16285	0.00064
3278.23448	0.00081
3276.30610	0.00075
3274.37773	0.00059
3272.44936	0.00043
3270.52098	0.00029
3268.59261	0.00032
3266.66424	0.00056
3264.73586	0.00065
3262.80749	0.00036
3260.87912	0.00027
3258.95074	0.00036
3257.02237	0.00041
3255.09400	0.00021
3253.16562	0.00015
3251.23725	0.00032
3249.30888	0.00021
3247.38050	0.00023
3245.45213	0.00040
3243.52376	0.00036
3241.59538	0.00035
3239.66701	0.00063
3237.73864	0.00063
3235.81026	0.00043
3233.88189	0.00041
3231.95352	0.00048
3230.02515	0.00053
3228.09677	0.00040
3226.16840	0.00042
3224.24003	0.00062
3222.31165	0.00054
3220.38328	0.00060
3218.45491	0.00081
3216.52653	0.00074
3214.59816	0.00057
3212.66979	0.00046
3210.74141	0.00033
3208.81304	0.00027
3206.88467	0.00040
3204.95629	0.00053
3203.02792	0.00045
3201.09955	0.00036
3199.17117	0.00038
3197.24280	0.00059
3195.31443	0.00070
3193.38605	0.00073
3191.45768	0.00077
3189.52931	0.00067
3187.60093	0.00044
3185.67256	0.00027
3183.74419	0.00006
3181.81581	0.00010
3179.88744	0.00006
3177.95907	0.00016
3176.03070	0.00025
3174.10232	0.00028
3172.17395	0.00017
3170.24558	0.00028
3168.31720	0.00043
3166.38883	0.00036
3164.46046	0.00026
3162.53208	0.00016
3160.60371	0.00031
3158.67534	0.00038
3156.74696	0.00032
3154.81859	0.00056
3152.89022	0.00067
3150.96184	0.00058
3149.03347	0.00058
3147.10510	0.00076
3145.17672	0.00087
3143.24835	0.00083
3141.31998	0.00066
3139.39160	0.00057
3137.46323	0.00064
3135.53486	0.00057
3133.60648	0.00035
3131.67811	0.00032
3129.74974	0.00036
3127.82136	0.00032
3125.89299	0.00046
3123.96462	0.00063
3122.03624	0.00062
3120.10787	0.00052
3118.17950	0.00050
3116.25113	0.00049
3114.32275	0.00053
3112.39438	0.00057
3110.46601	0.00056
3108.53763	0.00059
3106.60926	0.00049
3104.68089	0.00028
3102.75251	0.00020
3100.82414	0.00032
3098.89577	0.00047
3096.96739	0.00045
3095.03902	0.00031
3093.11065	0.00024
3091.18227	0.00026
3089.25390	0.00032
3087.32553	0.00038
3085.39715	0.00020
3083.46878	0.00022
3081.54041	0.00059
3079.61203	0.00062
3077.68366	0.00047
3075.75529	0.00070
3073.82691	0.00078
3071.89854	0.00064
3069.97017	0.00051
3068.04179	0.00051
3066.11342	0.00055
3064.18505	0.00051
3062.25668	0.00030
3060.32830	0.00021
3058.39993	0.00030
3056.47156	0.00026
3054.54318	0.00045
3052.61481	0.00052
3050.68644	0.00053
3048.75806	0.00058
3046.82969	0.00060
3044.90132	0.00061
3042.97294	0.00069
3041.04457	0.00081
3039.11620	0.00082
3037.18782	0.00071
3035.25945	0.00067
3033.33108	0.00060
3031.40270	0.00042
3029.47433	0.00035
3027.54596	0.00037
3025.61758	0.00017
3023.68921	0.00029
3021.76084	0.00034
3019.83246	0.00044
3017.90409	0.00061
3015.97572	0.00066
3014.04734	0.00069
3012.11897	0.00051
3010.19060	0.00021
3008.26222	0.00024
3006.33385	0.00030
3004.40548	0.00034
3002.47711	0.00026
3000.54873	0.00021
2998.62036	0.00041
2996.69199	0.00040
2994.76361	0.00031
2992.83524	0.00038
2990.90687	0.00057
2988.97849	0.00068
2987.05012	0.00072
2985.12175	0.00051
2983.19337	0.00036
2981.26500	0.00053
2979.33663	0.00051
2977.40825	0.00048
2975.47988	0.00056
2973.55151	0.00056
2971.62313	0.00060
2969.69476	0.00056
2967.76639	0.00046
2965.83801	0.00053
2963.90964	0.00069
2961.98127	0.00072
2960.05289	0.00066
2958.12452	0.00052
2956.19615	0.00051
2954.26777	0.00057
2952.33940	0.00053
2950.41103	0.00066
2948.48266	0.00092
2946.55428	0.00097
2944.62591	0.00077
2942.69754	0.00048
2940.76916	0.00042
2938.84079	0.00046
2936.91242	0.00059
2934.98404	0.00058
2933.05567	0.00046
2931.12730	0.00029
2929.19892	0.00042
2927.27055	0.00058
2925.34218	0.00045
2923.41380	0.00042
2921.48543	0.00039
2919.55706	0.00042
2917.62868	0.00029
2915.70031	0.00048
2913.77194	0.00060
2911.84356	0.00075
2909.91519	0.00068
2907.98682	0.00048
2906.05844	0.00046
2904.13007	0.00025
2902.20170	0.00026
2900.27332	0.00024
2898.34495	0.00031
2896.41658	0.00029
2894.48820	0.00029
2892.55983	0.00042
2890.63146	0.00047
2888.70309	0.00048
2886.77471	0.00038
2884.84634	0.00036
2882.91797	0.00042
2880.98959	0.00039
2879.06122	0.00039
2877.13285	0.00075
2875.20447	0.00097
2873.27610	0.00092
2871.34773	0.00075
2869.41935	0.00063
2867.49098	0.00055
2865.56261	0.00055
2863.63423	0.00059
2861.70586	0.00054
2859.77749	0.00049
2857.84911	0.00063
2855.92074	0.00084
2853.99237	0.00096
2852.06399	0.00089
2850.13562	0.00074
2848.20725	0.00064
2846.27887	0.00075
2844.35050	0.00101
2842.42213	0.00126
2840.49375	0.00136
2838.56538	0.00135
2836.63701	0.00126
2834.70863	0.00128
2832.78026	0.00148
2830.85189	0.00161
2828.92352	0.00157
2826.99514	0.00144
2825.06677	0.00137
2823.13840	0.00149
2821.21002	0.00161
2819.28165	0.00156
2817.35328	0.00153
2815.42490	0.00163
2813.49653	0.00173
2811.56816	0.00179
2809.63978	0.00185
2807.71141	0.00194
2805.78304	0.00209
2803.85466	0.00232
2801.92629	0.00258
2799.99792	0.00272
2798.06954	0.00269
2796.14117	0.00262
2794.21280	0.00265
2792.28442	0.00273
2790.35605	0.00279
2788.42768	0.00293
2786.49930	0.00314
2784.57093	0.00326
2782.64256	0.00338
2780.71418	0.00356
2778.78581	0.00368
2776.85744	0.00372
2774.92907	0.00386
2773.00069	0.00407
2771.07232	0.00414
2769.14395	0.00405
2767.21557	0.00398
2765.28720	0.00402
2763.35883	0.00414
2761.43045	0.00435
2759.50208	0.00461
2757.57371	0.00483
2755.64533	0.00497
2753.71696	0.00513
2751.78859	0.00539
2749.86021	0.00580
2747.93184	0.00628
2746.00347	0.00661
2744.07509	0.00668
2742.14672	0.00670
2740.21835	0.00688
2738.28997	0.00713
2736.36160	0.00732
2734.43323	0.00746
2732.50485	0.00765
2730.57648	0.00801
2728.64811	0.00844
2726.71973	0.00879
2724.79136	0.00907
2722.86299	0.00936
2720.93461	0.00965
2719.00624	0.00984
2717.07787	0.01006
2715.14950	0.01040
2713.22112	0.01068
2711.29275	0.01082
2709.36438	0.01102
2707.43600	0.01133
2705.50763	0.01163
2703.57926	0.01187
2701.65088	0.01217
2699.72251	0.01245
2697.79414	0.01256
2695.86576	0.01262
2693.93739	0.01285
2692.00902	0.01313
2690.08064	0.01325
2688.15227	0.01329
2686.22390	0.01343
2684.29552	0.01374
2682.36715	0.01411
2680.43878	0.01446
2678.51040	0.01478
2676.58203	0.01509
2674.65366	0.01541
2672.72528	0.01579
2670.79691	0.01620
2668.86854	0.01660
2666.94016	0.01696
2665.01179	0.01730
2663.08342	0.01765
2661.15505	0.01801
2659.22667	0.01837
2657.29830	0.01876
2655.36993	0.01919
2653.44155	0.01955
2651.51318	0.01983
2649.58481	0.02026
2647.65643	0.02083
2645.72806	0.02128
2643.79969	0.02162
2641.87131	0.02199
2639.94294	0.02237
2638.01457	0.02281
2636.08619	0.02342
2634.15782	0.02408
2632.22945	0.02456
2630.30107	0.02492
2628.37270	0.02537
2626.44433	0.02598
2624.51595	0.02666
2622.58758	0.02733
2620.65921	0.02802
2618.73083	0.02874
2616.80246	0.02938
2614.87409	0.03003
2612.94571	0.03084
2611.01734	0.03164
2609.08897	0.03233
2607.16059	0.03307
2605.23222	0.03391
2603.30385	0.03480
2601.37548	0.03568
2599.44710	0.03640
2597.51873	0.03705
2595.59036	0.03779
2593.66198	0.03861
2591.73361	0.03948
2589.80524	0.04037
2587.87686	0.04120
2585.94849	0.04200
2584.02012	0.04275
2582.09174	0.04351
2580.16337	0.04438
2578.23500	0.04532
2576.30662	0.04628
2574.37825	0.04729
2572.44988	0.04822
2570.52150	0.04906
2568.59313	0.04999
2566.66476	0.05107
2564.73638	0.05223
2562.80801	0.05345
2560.87964	0.05461
2558.95126	0.05572
2557.02289	0.05690
2555.09452	0.05810
2553.16614	0.05923
2551.23777	0.06032
2549.30940	0.06132
2547.38103	0.06223
2545.45265	0.06311
2543.52428	0.06402
2541.59591	0.06492
2539.66753	0.06583
2537.73916	0.06682
2535.81079	0.06784
2533.88241	0.06881
2531.95404	0.06963
2530.02567	0.07039
2528.09729	0.07129
2526.16892	0.07231
2524.24055	0.07336
2522.31217	0.07436
2520.38380	0.07526
2518.45543	0.07616
2516.52705	0.07719
2514.59868	0.07833
2512.67031	0.07943
2510.74193	0.08045
2508.81356	0.08146
2506.88519	0.08250
2504.95681	0.08363
2503.02844	0.08483
2501.10007	0.08604
2499.17169	0.08719
2497.24332	0.08830
2495.31495	0.08937
2493.38657	0.09035
2491.45820	0.09137
2489.52983	0.09261
2487.60146	0.09383
2485.67308	0.09489
2483.74471	0.09592
2481.81634	0.09708
2479.88796	0.09834
2477.95959	0.09958
2476.03122	0.10078
2474.10284	0.10206
2472.17447	0.10346
2470.24610	0.10498
2468.31772	0.10653
2466.38935	0.10802
2464.46098	0.10957
2462.53260	0.11124
2460.60423	0.11290
2458.67586	0.11454
2456.74748	0.11626
2454.81911	0.11796
2452.89074	0.11952
2450.96236	0.12119
2449.03399	0.12307
2447.10562	0.12487
2445.17724	0.12643
2443.24887	0.12788
2441.32050	0.12938
2439.39212	0.13103
2437.46375	0.13274
2435.53538	0.13438
2433.60700	0.13600
2431.67863	0.13762
2429.75026	0.13920
2427.82189	0.14077
2425.89351	0.14229
2423.96514	0.14371
2422.03677	0.14520
2420.10839	0.14686
2418.18002	0.14853
2416.25165	0.15011
2414.32327	0.15168
2412.39490	0.15325
2410.46653	0.15489
2408.53815	0.15664
2406.60978	0.15851
2404.68141	0.16049
2402.75303	0.16249
2400.82466	0.16443
2398.89629	0.16643
2396.96791	0.16856
2395.03954	0.17066
2393.11117	0.17263
2391.18279	0.17455
2389.25442	0.17637
2387.32605	0.17797
2385.39767	0.17940
2383.46930	0.18068
2381.54093	0.18167
2379.61255	0.18241
2377.68418	0.18303
2375.75581	0.18361
2373.82744	0.18415
2371.89906	0.18452
2369.97069	0.18495
2368.04232	0.18576
2366.11394	0.18674
2364.18557	0.18790
2362.25720	0.18935
2360.32882	0.19094
2358.40045	0.19271
2356.47208	0.19530
2354.54370	0.19878
2352.61533	0.20234
2350.68696	0.20496
2348.75858	0.20613
2346.83021	0.20619
2344.90184	0.20600
2342.97346	0.20642
2341.04509	0.20749
2339.11672	0.20868
2337.18834	0.20996
2335.25997	0.21157
2333.33160	0.21312
2331.40322	0.21437
2329.47485	0.21558
2327.54648	0.21688
2325.61810	0.21816
2323.68973	0.21941
2321.76136	0.22096
2319.83298	0.22301
2317.90461	0.22539
2315.97624	0.22768
2314.04787	0.22977
2312.11949	0.23198
2310.19112	0.23446
2308.26275	0.23716
2306.33437	0.23983
2304.40600	0.24224
2302.47763	0.24452
2300.54925	0.24682
2298.62088	0.24907
2296.69251	0.25117
2294.76413	0.25313
2292.83576	0.25497
2290.90739	0.25676
2288.97901	0.25856
2287.05064	0.26032
2285.12227	0.26188
2283.19389	0.26322
2281.26552	0.26444
2279.33715	0.26561
2277.40877	0.26673
2275.48040	0.26779
2273.55203	0.26879
2271.62365	0.26975
2269.69528	0.27076
2267.76691	0.27182
2265.83853	0.27282
2263.91016	0.27376
2261.98179	0.27479
2260.05342	0.27596
2258.12504	0.27717
2256.19667	0.27828
2254.26830	0.27936
2252.33992	0.28059
2250.41155	0.28202
2248.48318	0.28352
2246.55480	0.28488
2244.62643	0.28606
2242.69806	0.28713
2240.76968	0.28816
2238.84131	0.28918
2236.91294	0.29011
2234.98456	0.29090
2233.05619	0.29160
2231.12782	0.29229
2229.19944	0.29301
2227.27107	0.29370
2225.34270	0.29434
2223.41432	0.29492
2221.48595	0.29548
2219.55758	0.29608
2217.62920	0.29677
2215.70083	0.29745
2213.77246	0.29803
2211.84408	0.29860
2209.91571	0.29920
2207.98734	0.29977
2206.05896	0.30029
2204.13059	0.30076
2202.20222	0.30118
2200.27385	0.30155
2198.34547	0.30187
2196.41710	0.30213
2194.48873	0.30240
2192.56035	0.30274
2190.63198	0.30306
2188.70361	0.30331
2186.77523	0.30367
2184.84686	0.30415
2182.91849	0.30456
2180.99011	0.30483
2179.06174	0.30509
2177.13337	0.30539
2175.20499	0.30558
2173.27662	0.30559
2171.34825	0.30558
2169.41987	0.30570
2167.49150	0.30587
2165.56313	0.30605
2163.63475	0.30622
2161.70638	0.30645
2159.77801	0.30676
2157.84963	0.30711
2155.92126	0.30750
2153.99289	0.30796
2152.06451	0.30844
2150.13614	0.30885
2148.20777	0.30920
2146.27940	0.30961
2144.35102	0.31014
2142.42265	0.31073
2140.49428	0.31130
2138.56590	0.31188
2136.63753	0.31250
2134.70916	0.31320
2132.78078	0.31402
2130.85241	0.31494
2128.92404	0.31590
2126.99566	0.31696
2125.06729	0.31816
2123.13892	0.31943
2121.21054	0.32071
2119.28217	0.32199
2117.35380	0.32321
2115.42542	0.32434
2113.49705	0.32547
2111.56868	0.32670
2109.64030	0.32794
2107.71193	0.32909
2105.78356	0.33011
2103.85518	0.33101
2101.92681	0.33183
2099.99844	0.33267
2098.07006	0.33347
2096.14169	0.33415
2094.21332	0.33466
2092.28494	0.33498
2090.35657	0.33519
2088.42820	0.33550
2086.49983	0.33592
2084.57145	0.33627
2082.64308	0.33643
2080.71471	0.33639
2078.78633	0.33621
2076.85796	0.33612
2074.92959	0.33618
2073.00121	0.33621
2071.07284	0.33618
2069.14447	0.33605
2067.21609	0.33563
2065.28772	0.33529
2063.35935	0.33563
2061.43097	0.33641
2059.50260	0.33716
2057.57423	0.33786
2055.64585	0.33857
2053.71748	0.33942
2051.78911	0.34051
2049.86073	0.34176
2047.93236	0.34295
2046.00399	0.34390
2044.07561	0.34466
2042.14724	0.34548
2040.21887	0.34676
2038.29049	0.34827
2036.36212	0.34945
2034.43375	0.35032
2032.50538	0.35109
2030.57700	0.35175
2028.64863	0.35224
2026.72026	0.35261
2024.79188	0.35294
2022.86351	0.35318
2020.93514	0.35304
2019.00676	0.35242
2017.07839	0.35225
2015.15002	0.35333
2013.22164	0.35477
2011.29327	0.35565
2009.36490	0.35625
2007.43652	0.35695
2005.50815	0.35774
2003.57978	0.35854
2001.65140	0.35925
1999.72303	0.35986
1997.79466	0.36050
1995.86628	0.36063
1993.93791	0.35947
1992.00954	0.35840
1990.08116	0.35925
1988.15279	0.36107
1986.22442	0.36256
1984.29604	0.36356
1982.36767	0.36404
1980.43930	0.36424
1978.51092	0.36439
1976.58255	0.36462
1974.65418	0.36495
1972.72581	0.36529
1970.79743	0.36508
1968.86906	0.36391
1966.94069	0.36338
1965.01231	0.36482
1963.08394	0.36666
1961.15557	0.36766
1959.22719	0.36829
1957.29882	0.36878
1955.37045	0.36924
1953.44207	0.37004
1951.51370	0.37101
1949.58533	0.37157
1947.65695	0.37140
1945.72858	0.37009
1943.80021	0.36818
1941.87183	0.36866
1939.94346	0.37213
1938.01509	0.37497
1936.08671	0.37582
1934.15834	0.37600
1932.22997	0.37628
1930.30159	0.37671
1928.37322	0.37700
1926.44485	0.37619
1924.51647	0.37377
1922.58810	0.37202
1920.65973	0.37174
1918.73135	0.37136
1916.80298	0.37267
1914.87461	0.37572
1912.94624	0.37671
1911.01786	0.37522
1909.08949	0.37413
1907.16112	0.37498
1905.23274	0.37628
1903.30437	0.37667
1901.37600	0.37651
1899.44762	0.37589
1897.51925	0.37423
1895.59088	0.37224
1893.66250	0.37114
1891.73413	0.36932
1889.80576	0.36695
1887.87738	0.36724
1885.94901	0.36885
1884.02064	0.36917
1882.09226	0.36877
1880.16389	0.36816
1878.23552	0.36731
1876.30714	0.36638
1874.37877	0.36496
1872.45040	0.36103
1870.52202	0.35345
1868.59365	0.34756
1866.66528	0.34957
1864.73690	0.35463
1862.80853	0.35662
1860.88016	0.35587
1858.95179	0.35462
1857.02341	0.35374
1855.09504	0.35285
1853.16667	0.35155
1851.23829	0.34940
1849.30992	0.34572
1847.38155	0.34010
1845.45317	0.33378
1843.52480	0.33223
1841.59643	0.33643
1839.66805	0.33909
1837.73968	0.33815
1835.81131	0.33666
1833.88293	0.33435
1831.95456	0.32825
1830.02619	0.32138
1828.09781	0.31936
1826.16944	0.31927
1824.24107	0.31903
1822.31269	0.31995
1820.38432	0.31946
1818.45595	0.31635
1816.52757	0.31244
1814.59920	0.30770
1812.67083	0.30096
1810.74245	0.29401
1808.81408	0.28957
1806.88571	0.28599
1804.95733	0.28011
1803.02896	0.27109
1801.10059	0.26113
1799.17222	0.25344
1797.24384	0.24705
1795.31547	0.23835
1793.38710	0.22658
1791.45872	0.21683
1789.53035	0.21257
1787.60198	0.20824
1785.67360	0.20062
1783.74523	0.19177
1781.81686	0.18328
1779.88848	0.17566
1777.96011	0.16919
1776.03174	0.16182
1774.10336	0.15180
1772.17499	0.14146
1770.24662	0.13513
1768.31824	0.13112
1766.38987	0.12604
1764.46150	0.11892
1762.53312	0.10931
1760.60475	0.09908
1758.67638	0.08969
1756.74800	0.07948
1754.81963	0.06897
1752.89126	0.05825
1750.96288	0.04603
1749.03451	0.03427
1747.10614	0.02537
1745.17777	0.01858
1743.24939	0.01294
1741.32102	0.00830
1739.39265	0.00480
1737.46427	0.00277
1735.53590	0.00156
1733.60753	0.00073
1731.67915	0.00047
1729.75078	0.00034
1727.82241	0.00026
1725.89403	0.00019
1723.96566	0.00031
1722.03729	0.00047
1720.10891	0.00066
1718.18054	0.00089
1716.25217	0.00091
1714.32379	0.00066
1712.39542	0.00050
1710.46705	0.00047
1708.53867	0.00053
1706.61030	0.00059
1704.68193	0.00052
1702.75355	0.00054
1700.82518	0.00064
1698.89681	0.00059
1696.96843	0.00049
1695.04006	0.00043
1693.11169	0.00036
1691.18331	0.00030
1689.25494	0.00031
1687.32657	0.00036
1685.39820	0.00045
1683.46982	0.00056
1681.54145	0.00055
1679.61308	0.00045
1677.68470	0.00042
1675.75633	0.00047
1673.82796	0.00052
1671.89958	0.00050
1669.97121	0.00050
1668.04284	0.00051
1666.11446	0.00045
1664.18609	0.00048
1662.25772	0.00058
1660.32934	0.00057
1658.40097	0.00061
1656.47260	0.00079
1654.54422	0.00093
1652.61585	0.00076
1650.68748	0.00061
1648.75910	0.00058
1646.83073	0.00059
1644.90236	0.00055
1642.97398	0.00058
1641.04561	0.00060
1639.11724	0.00059
1637.18886	0.00059
1635.26049	0.00073
1633.33212	0.00073
1631.40375	0.00063
1629.47537	0.00063
1627.54700	0.00067
1625.61863	0.00072
1623.69025	0.00075
1621.76188	0.00083
1619.83351	0.00091
1617.90513	0.00086
1615.97676	0.00063
1614.04839	0.00040
1612.12001	0.00038
1610.19164	0.00043
1608.26327	0.00051
1606.33489	0.00058
1604.40652	0.00062
1602.47815	0.00069
1600.54977	0.00073
1598.62140	0.00076
1596.69303	0.00078
1594.76465	0.00075
1592.83628	0.00075
1590.90791	0.00075
1588.97953	0.00067
1587.05116	0.00054
1585.12279	0.00049
1583.19441	0.00049
1581.26604	0.00048
1579.33767	0.00055
1577.40929	0.00071
1575.48092	0.00080
1573.55255	0.00071
1571.62418	0.00067
1569.69580	0.00065
1567.76743	0.00060
1565.83906	0.00066
1563.91068	0.00077
1561.98231	0.00091
1560.05394	0.00116
1558.12556	0.00130
1556.19719	0.00113
1554.26882	0.00090
1552.34044	0.00073
1550.41207	0.00060
1548.48370	0.00054
1546.55532	0.00062
1544.62695	0.00085
1542.69858	0.00117
1540.77020	0.00149
1538.84183	0.00145
1536.91346	0.00110
1534.98508	0.00084
1533.05671	0.00067
1531.12834	0.00058
1529.19996	0.00055
1527.27159	0.00056
1525.34322	0.00068
1523.41484	0.00084
1521.48647	0.00097
1519.55810	0.00102
1517.62972	0.00093
1515.70135	0.00087
1513.77298	0.00090
1511.84461	0.00100
1509.91623	0.00105
1507.98786	0.00111
1506.05949	0.00124
1504.13111	0.00118
1502.20274	0.00103
1500.27437	0.00091
1498.34599	0.00085
1496.41762	0.00080
1494.48925	0.00077
1492.56087	0.00081
1490.63250	0.00090
1488.70413	0.00095
1486.77575	0.00098
1484.84738	0.00100
1482.91901	0.00099
1480.99063	0.00101
1479.06226	0.00107
1477.13389	0.00110
1475.20551	0.00114
1473.27714	0.00122
1471.34877	0.00128
1469.42039	0.00124
1467.49202	0.00115
1465.56365	0.00111
1463.63527	0.00110
1461.70690	0.00113
1459.77853	0.00109
1457.85016	0.00104
1455.92178	0.00107
1453.99341	0.00115
1452.06504	0.00133
1450.13666	0.00141
1448.20829	0.00131
1446.27992	0.00119
1444.35154	0.00113
1442.42317	0.00112
1440.49480	0.00121
1438.56642	0.00130
1436.63805	0.00129
1434.70968	0.00130
1432.78130	0.00133
1430.85293	0.00117
1428.92456	0.00099
1426.99618	0.00110
1425.06781	0.00130
1423.13944	0.00131
1421.21106	0.00126
1419.28269	0.00127
1417.35432	0.00116
1415.42594	0.00106
1413.49757	0.00113
1411.56920	0.00118
1409.64082	0.00111
1407.71245	0.00102
1405.78408	0.00098
1403.85570	0.00105
1401.92733	0.00117
1399.99896	0.00124
1398.07059	0.00132
1396.14221	0.00142
1394.21384	0.00143
1392.28547	0.00141
1390.35709	0.00146
1388.42872	0.00155
1386.50035	0.00160
1384.57197	0.00152
1382.64360	0.00145
1380.71523	0.00157
1378.78685	0.00167
1376.85848	0.00162
1374.93011	0.00156
1373.00173	0.00159
1371.07336	0.00165
1369.14499	0.00163
1367.21661	0.00147
1365.28824	0.00135
1363.35987	0.00135
1361.43149	0.00125
1359.50312	0.00110
1357.57475	0.00117
1355.64637	0.00137
1353.71800	0.00147
1351.78963	0.00145
1349.86125	0.00139
1347.93288	0.00132
1346.00451	0.00135
1344.07614	0.00143
1342.14776	0.00137
1340.21939	0.00127
1338.29102	0.00136
1336.36264	0.00150
1334.43427	0.00149
1332.50590	0.00146
1330.57752	0.00151
1328.64915	0.00145
1326.72078	0.00129
1324.79240	0.00132
1322.86403	0.00149
1320.93566	0.00151
1319.00728	0.00146
1317.07891	0.00149
1315.15054	0.00158
1313.22216	0.00162
1311.29379	0.00153
1309.36542	0.00140
1307.43704	0.00141
1305.50867	0.00149
1303.58030	0.00151
1301.65192	0.00162
1299.72355	0.00175
1297.79518	0.00170
1295.86680	0.00151
1293.93843	0.00147
1292.01006	0.00154
1290.08168	0.00173
1288.15331	0.00184
1286.22494	0.00168
1284.29657	0.00157
1282.36819	0.00166
1280.43982	0.00173
1278.51145	0.00168
1276.58307	0.00166
1274.65470	0.00178
1272.72633	0.00190
1270.79795	0.00187
1268.86958	0.00185
1266.94121	0.00199
1265.01283	0.00219
1263.08446	0.00230
1261.15609	0.00236
1259.22771	0.00238
1257.29934	0.00228
1255.37097	0.00218
1253.44259	0.00223
1251.51422	0.00232
1249.58585	0.00226
1247.65747	0.00216
1245.72910	0.00213
1243.80073	0.00220
1241.87235	0.00238
1239.94398	0.00259
1238.01561	0.00276
1236.08723	0.00285
1234.15886	0.00268
1232.23049	0.00247
1230.30212	0.00256
1228.37374	0.00276
1226.44537	0.00281
1224.51700	0.00271
1222.58862	0.00290
1220.66025	0.00340
1218.73188	0.00370
1216.80350	0.00381
1214.87513	0.00390
1212.94676	0.00381
1211.01838	0.00352
1209.09001	0.00340
1207.16164	0.00340
1205.23326	0.00321
1203.30489	0.00298
1201.37652	0.00282
1199.44814	0.00274
1197.51977	0.00284
1195.59140	0.00300
1193.66302	0.00303
1191.73465	0.00297
1189.80628	0.00303
1187.87790	0.00314
1185.94953	0.00324
1184.02116	0.00333
1182.09278	0.00345
1180.16441	0.00364
1178.23604	0.00359
1176.30766	0.00318
1174.37929	0.00294
1172.45092	0.00313
1170.52255	0.00337
1168.59417	0.00330
1166.66580	0.00293
1164.73743	0.00267
1162.80905	0.00276
1160.88068	0.00293
1158.95231	0.00302
1157.02393	0.00319
1155.09556	0.00329
1153.16719	0.00318
1151.23881	0.00316
1149.31044	0.00335
1147.38207	0.00342
1145.45369	0.00319
1143.52532	0.00296
1141.59695	0.00311
1139.66857	0.00327
1137.74020	0.00313
1135.81183	0.00315
1133.88345	0.00348
1131.95508	0.00367
1130.02671	0.00367
1128.09833	0.00379
1126.16996	0.00385
1124.24159	0.00358
1122.31321	0.00319
1120.38484	0.00292
1118.45647	0.00267
1116.52809	0.00257
1114.59972	0.00284
1112.67135	0.00329
1110.74298	0.00366
1108.81460	0.00391
1106.88623	0.00405
1104.95786	0.00410
1103.02948	0.00398
1101.10111	0.00362
1099.17274	0.00328
1097.24436	0.00315
1095.31599	0.00327
1093.38762	0.00359
1091.45924	0.00389
1089.53087	0.00398
1087.60250	0.00375
1085.67412	0.00353
1083.74575	0.00376
1081.81738	0.00418
1079.88900	0.00425
1077.96063	0.00414
1076.03226	0.00397
1074.10388	0.00371
1072.17551	0.00348
1070.24714	0.00347
1068.31876	0.00362
1066.39039	0.00383
1064.46202	0.00396
1062.53364	0.00389
1060.60527	0.00384
1058.67690	0.00408
1056.74853	0.00435
1054.82015	0.00420
1052.89178	0.00388
1050.96341	0.00389
1049.03503	0.00396
1047.10666	0.00388
1045.17829	0.00375
1043.24991	0.00376
1041.32154	0.00379
1039.39317	0.00370
1037.46479	0.00362
1035.53642	0.00347
1033.60805	0.00325
1031.67967	0.00330
1029.75130	0.00360
1027.82293	0.00364
1025.89455	0.00336
1023.96618	0.00311
1022.03781	0.00296
1020.10943	0.00299
1018.18106	0.00305
1016.25269	0.00303
1014.32431	0.00320
1012.39594	0.00345
1010.46757	0.00346
1008.53919	0.00336
1006.61082	0.00326
1004.68245	0.00324
1002.75407	0.00341
1000.82570	0.00362
998.89733	0.00376
996.96896	0.00389
995.04058	0.00409
993.11221	0.00444
991.18384	0.00500
989.25546	0.00575
987.32709	0.00668
985.39872	0.00752
983.47034	0.00770
981.54197	0.00724
979.61360	0.00662
977.68522	0.00620
975.75685	0.00617
973.82848	0.00676
971.90010	0.00815
969.97173	0.01028
968.04336	0.01285
966.11498	0.01532
964.18661	0.01680
962.25824	0.01638
960.32986	0.01378
958.40149	0.01000
956.47312	0.00692
954.54474	0.00577
952.61637	0.00631
950.68800	0.00795
948.75962	0.01060
946.83125	0.01415
944.90288	0.01797
942.97451	0.02151
941.04613	0.02456
939.11776	0.02699
937.18939	0.02883
935.26101	0.03040
933.33264	0.03189
931.40427	0.03300
929.47589	0.03350
927.54752	0.03357
925.61915	0.03325
923.69077	0.03239
921.76240	0.03151
919.83403	0.03149
917.90565	0.03231
915.97728	0.03330
914.04891	0.03388
912.12053	0.03352
910.19216	0.03181
908.26379	0.02900
906.33541	0.02572
904.40704	0.02229
902.47867	0.01911
900.55029	0.01672
898.62192	0.01516
896.69355	0.01417
894.76517	0.01361
892.83680	0.01356
890.90843	0.01394
888.98005	0.01460
887.05168	0.01561
885.12331	0.01681
883.19494	0.01758
881.26656	0.01761
879.33819	0.01734
877.40982	0.01715
875.48144	0.01705
873.55307	0.01711
871.62470	0.01749
869.69632	0.01807
867.76795	0.01846
865.83958	0.01835
863.91120	0.01788
861.98283	0.01739
860.05446	0.01701
858.12608	0.01673
856.19771	0.01641
854.26934	0.01598
852.34096	0.01559
850.41259	0.01534
848.48422	0.01516
846.55584	0.01495
844.62747	0.01469
842.69910	0.01434
840.77072	0.01362
838.84235	0.01263
836.91398	0.01201
834.98560	0.01183
833.05723	0.01140
831.12886	0.01041
829.20049	0.00943
827.27211	0.00897
825.34374	0.00886
823.41537	0.00873
821.48699	0.00871
819.55862	0.00885
817.63025	0.00867
815.70187	0.00816
813.77350	0.00812
811.84513	0.00839
809.91675	0.00814
807.98838	0.00762
806.06001	0.00719
804.13163	0.00679
802.20326	0.00654
800.27489	0.00637
798.34651	0.00597
796.41814	0.00570
794.48977	0.00581
792.56139	0.00592
790.63302	0.00577
788.70465	0.00552
786.77627	0.00552
784.84790	0.00570
782.91953	0.00580
780.99115	0.00562
779.06278	0.00502
777.13441	0.00453
775.20603	0.00494
773.27766	0.00590
771.34929	0.00646
769.42092	0.00638
767.49254	0.00617
765.56417	0.00589
763.63580	0.00542
761.70742	0.00511
759.77905	0.00528
757.85068	0.00586
755.92230	0.00635
753.99393	0.00617
752.06556	0.00557
750.13718	0.00516
748.20881	0.00540
746.28044	0.00610
744.35206	0.00642
742.42369	0.00621
740.49532	0.00613
738.56694	0.00611
736.63857	0.00584
734.71020	0.00567
732.78182	0.00577
730.85345	0.00597
728.92508	0.00601
726.99670	0.00597
725.06833	0.00613
723.13996	0.00666
721.21158	0.00704
719.28321	0.00679
717.35484	0.00639
715.42647	0.00659
713.49809	0.00741
711.56972	0.00785
709.64135	0.00743
707.71297	0.00701
705.78460	0.00740
703.85623	0.00801
701.92785	0.00812
699.99948	0.00805
698.07111	0.00834
696.14273	0.00866
694.21436	0.00851
692.28599	0.00799
690.35761	0.00767
688.42924	0.00801
686.50087	0.00841
684.57249	0.00831
682.64412	0.00831
680.71575	0.00891
678.78737	0.00962
676.85900	0.01004
674.93063	0.01033
673.00225	0.01070
671.07388	0.01169
669.14551	0.01389
667.21713	0.01408
665.28876	0.01195
663.36039	0.01113
661.43201	0.01148
659.50364	0.01196
657.57527	0.01235
655.64690	0.01300
653.71852	0.01337
651.79015	0.01270
649.86178	0.01184
647.93340	0.01140
646.00503	0.01130
644.07666	0.01166
642.14828	0.01224
640.21991	0.01283
638.29154	0.01314
636.36316	0.01308
634.43479	0.01311
632.50642	0.01338
630.57804	0.01326
628.64967	0.01340
626.72130	0.01550
624.79292	0.01772
622.86455	0.01869
620.93618	0.01918
619.00780	0.02001
617.07943	0.02088
615.15106	0.02209
613.22268	0.02429
611.29431	0.02608
609.36594	0.02602
607.43756	0.02521
605.50919	0.02550
603.58082	0.02711
601.65244	0.02979
599.72407	0.03287
