3997.51769	0.90478
3995.58931	0.90440
3993.66094	0.90436
3991.73257	0.90455
3989.80419	0.90529
3987.87582	0.90678
3985.94745	0.90793
3984.01907	0.90817
3982.09070	0.90824
3980.16233	0.90863
3978.23396	0.90879
3976.30558	0.90810
3974.37721	0.90746
3972.44884	0.90795
3970.52046	0.90935
3968.59209	0.91160
3966.66372	0.91437
3964.73534	0.91552
3962.80697	0.91437
3960.87860	0.91409
3958.95022	0.91606
3957.02185	0.91845
3955.09348	0.92032
3953.16510	0.92020
3951.23673	0.91669
3949.30836	0.91328
3947.37998	0.91520
3945.45161	0.91828
3943.52324	0.91749
3941.59486	0.91996
3939.66649	0.92804
3937.73812	0.93361
3935.80974	0.93213
3933.88137	0.92421
3931.95300	0.91731
3930.02462	0.92009
3928.09625	0.92669
3926.16788	0.92680
3924.23950	0.92459
3922.31113	0.92701
3920.38276	0.92812
3918.45439	0.92568
3916.52601	0.92916
3914.59764	0.94130
3912.66927	0.95255
3910.74089	0.95687
3908.81252	0.95309
3906.88415	0.93811
3904.95577	0.91565
3903.02740	0.90119
3901.09903	0.90290
3899.17065	0.91757
3897.24228	0.93899
3895.31391	0.95138
3893.38553	0.94643
3891.45716	0.93996
3889.52879	0.94620
3887.60041	0.94796
3885.67204	0.93984
3883.74367	0.93685
3881.81529	0.93623
3879.88692	0.94091
3877.95855	0.95596
3876.03017	0.95925
3874.10180	0.94677
3872.17343	0.93387
3870.24505	0.92825
3868.31668	0.93553
3866.38831	0.94253
3864.45994	0.94014
3862.53156	0.94642
3860.60319	0.96292
3858.67482	0.96821
3856.74644	0.95358
3854.81807	0.92350
3852.88970	0.90725
3850.96132	0.93506
3849.03295	0.96863
3847.10458	0.98312
3845.17620	0.97728
3843.24783	0.95975
3841.31946	0.94028
3839.39108	0.92534
3837.46271	0.92576
3835.53434	0.94103
3833.60596	0.95535
3831.67759	0.96627
3829.74922	0.97491
3827.82084	0.97645
3825.89247	0.97299
3823.96410	0.96311
3822.03572	0.94138
3820.10735	0.93132
3818.17898	0.94317
3816.25060	0.95647
3814.32223	0.97621
3812.39386	0.99605
3810.46548	0.99880
3808.53711	0.98383
3806.60874	0.96777
3804.68037	0.95992
3802.75199	0.94717
3800.82362	0.94099
3798.89525	0.95354
3796.96687	0.96700
3795.03850	0.98234
3793.11013	0.99908
3791.18175	1.00698
3789.25338	1.00647
3787.32501	1.00039
3785.39663	0.99240
3783.46826	0.98919
3781.53989	0.98530
3779.61151	0.97872
3777.68314	0.98364
3775.75477	0.99590
3773.82639	0.99765
3771.89802	0.98439
3769.96965	0.96826
3768.04127	0.96379
3766.11290	0.96726
3764.18453	0.97271
3762.25615	0.97227
3760.32778	0.95895
3758.39941	0.94709
3756.47103	0.94643
3754.54266	0.93901
3752.61429	0.91345
3750.68591	0.88932
3748.75754	0.89236
3746.82917	0.89905
3744.90080	0.89744
3742.97242	0.90778
3741.04405	0.92233
3739.11568	0.91890
3737.18730	0.89448
3735.25893	0.86954
3733.33056	0.87594
3731.40218	0.90619
3729.47381	0.92765
3727.54544	0.92723
3725.61706	0.91571
3723.68869	0.90878
3721.76032	0.90977
3719.83194	0.91577
3717.90357	0.92161
3715.97520	0.91870
3714.04682	0.89936
3712.11845	0.86962
3710.19008	0.85921
3708.26170	0.87607
3706.33333	0.89141
3704.40496	0.88853
3702.47658	0.87366
3700.54821	0.86558
3698.61984	0.86609
3696.69146	0.86108
3694.76309	0.84548
3692.83472	0.81799
3690.90635	0.78118
3688.97797	0.75568
3687.04960	0.75594
3685.12123	0.76026
3683.19285	0.75125
3681.26448	0.72726
3679.33611	0.69285
3677.40773	0.65091
3675.47936	0.60939
3673.55099	0.58877
3671.62261	0.57462
3669.69424	0.55183
3667.76587	0.53731
3665.83749	0.52900
3663.90912	0.51194
3661.98075	0.48692
3660.05237	0.45895
3658.12400	0.42857
3656.19563	0.39678
3654.26725	0.36947
3652.33888	0.34240
3650.41051	0.30707
3648.48213	0.27512
3646.55376	0.26177
3644.62539	0.25520
3642.69701	0.24426
3640.76864	0.22869
3638.84027	0.21187
3636.91189	0.19521
3634.98352	0.17863
3633.05515	0.16283
3631.12678	0.14771
3629.19840	0.13118
3627.27003	0.11827
3625.34166	0.11181
3623.41328	0.10515
3621.48491	0.09597
3619.55654	0.08554
3617.62816	0.07675
3615.69979	0.07011
3613.77142	0.06371
3611.84304	0.05770
3609.91467	0.05258
3607.98630	0.04778
3606.05792	0.04341
3604.12955	0.03974
3602.20118	0.03602
3600.27280	0.03202
3598.34443	0.02831
3596.41606	0.02540
3594.48768	0.02315
3592.55931	0.02097
3590.63094	0.01884
3588.70256	0.01645
3586.77419	0.01409
3584.84582	0.01255
3582.91744	0.01150
3580.98907	0.01043
3579.06070	0.00918
3577.13233	0.00789
3575.20395	0.00668
3573.27558	0.00576
3571.34721	0.00500
3569.41883	0.00397
3567.49046	0.00290
3565.56209	0.00249
3563.63371	0.00250
3561.70534	0.00212
3559.77697	0.00143
3557.84859	0.00084
3555.92022	0.00045
3553.99185	0.00018
3552.06347	0.00023
3550.13510	0.00046
3548.20673	0.00061
3546.27835	0.00079
3544.34998	0.00109
3542.42161	0.00128
3540.49323	0.00133
3538.56486	0.00142
3536.63649	0.00141
3534.70811	0.00135
3532.77974	0.00131
3530.85137	0.00137
3528.92299	0.00148
3526.99462	0.00151
3525.06625	0.00150
3523.13787	0.00155
3521.20950	0.00170
3519.28113	0.00181
3517.35276	0.00185
3515.42438	0.00176
3513.49601	0.00169
3511.56764	0.00184
3509.63926	0.00194
3507.71089	0.00182
3505.78252	0.00171
3503.85414	0.00172
3501.92577	0.00156
3499.99740	0.00126
3498.06902	0.00113
3496.14065	0.00118
3494.21228	0.00141
3492.28390	0.00176
3490.35553	0.00205
3488.42716	0.00205
3486.49878	0.00192
3484.57041	0.00182
3482.64204	0.00161
3480.71366	0.00145
3478.78529	0.00158
3476.85692	0.00193
3474.92854	0.00211
3473.00017	0.00209
3471.07180	0.00191
3469.14342	0.00159
3467.21505	0.00142
3465.28668	0.00152
3463.35831	0.00165
3461.42993	0.00161
3459.50156	0.00147
3457.57319	0.00130
3455.64481	0.00107
3453.71644	0.00096
3451.78807	0.00106
3449.85969	0.00138
3447.93132	0.00172
3446.00295	0.00180
3444.07457	0.00160
3442.14620	0.00142
3440.21783	0.00146
3438.28945	0.00158
3436.36108	0.00166
3434.43271	0.00157
3432.50433	0.00143
3430.57596	0.00141
3428.64759	0.00145
3426.71921	0.00140
3424.79084	0.00120
3422.86247	0.00103
3420.93409	0.00104
3419.00572	0.00115
3417.07735	0.00127
3415.14897	0.00145
3413.22060	0.00162
3411.29223	0.00162
3409.36385	0.00138
3407.43548	0.00121
3405.50711	0.00131
3403.57874	0.00139
3401.65036	0.00119
3399.72199	0.00084
3397.79362	0.00093
3395.86524	0.00135
3393.93687	0.00161
3392.00850	0.00163
3390.08012	0.00162
3388.15175	0.00156
3386.22338	0.00145
3384.29500	0.00136
3382.36663	0.00129
3380.43826	0.00127
3378.50988	0.00135
3376.58151	0.00143
3374.65314	0.00129
3372.72476	0.00104
3370.79639	0.00111
3368.86802	0.00137
3366.93964	0.00145
3365.01127	0.00135
3363.08290	0.00120
3361.15452	0.00108
3359.22615	0.00110
3357.29778	0.00122
3355.36940	0.00144
3353.44103	0.00156
3351.51266	0.00146
3349.58428	0.00116
3347.65591	0.00091
3345.72754	0.00086
3343.79917	0.00099
3341.87079	0.00108
3339.94242	0.00112
3338.01405	0.00127
3336.08567	0.00172
3334.15730	0.00196
3332.22893	0.00164
3330.30055	0.00127
3328.37218	0.00123
3326.44381	0.00116
3324.51543	0.00111
3322.58706	0.00120
3320.65869	0.00112
3318.73031	0.00094
3316.80194	0.00101
3314.87357	0.00130
3312.94519	0.00154
3311.01682	0.00165
3309.08845	0.00160
3307.16007	0.00139
3305.23170	0.00125
3303.30333	0.00127
3301.37495	0.00134
3299.44658	0.00133
3297.51821	0.00111
3295.58983	0.00090
3293.66146	0.00105
3291.73309	0.00125
3289.80472	0.00129
3287.87634	0.00134
3285.94797	0.00151
3284.01960	0.00156
3282.09122	0.00139
3280.16285	0.00122
3278.23448	0.00112
3276.30610	0.00129
3274.37773	0.00157
3272.44936	0.00154
3270.52098	0.00129
3268.59261	0.00121
3266.66424	0.00138
3264.73586	0.00145
3262.80749	0.00132
3260.87912	0.00126
3258.95074	0.00139
3257.02237	0.00155
3255.09400	0.00162
3253.16562	0.00165
3251.23725	0.00160
3249.30888	0.00141
3247.38050	0.00122
3245.45213	0.00118
3243.52376	0.00126
3241.59538	0.00129
3239.66701	0.00117
3237.73864	0.00107
3235.81026	0.00105
3233.88189	0.00103
3231.95352	0.00095
3230.02515	0.00105
3228.09677	0.00115
3226.16840	0.00111
3224.24003	0.00096
3222.31165	0.00079
3220.38328	0.00079
3218.45491	0.00090
3216.52653	0.00092
3214.59816	0.00099
3212.66979	0.00113
3210.74141	0.00116
3208.81304	0.00114
3206.88467	0.00119
3204.95629	0.00130
3203.02792	0.00132
3201.09955	0.00113
3199.17117	0.00097
3197.24280	0.00102
3195.31443	0.00116
3193.38605	0.00133
3191.45768	0.00147
3189.52931	0.00135
3187.60093	0.00124
3185.67256	0.00116
3183.74419	0.00104
3181.81581	0.00089
3179.88744	0.00078
3177.95907	0.00082
3176.03070	0.00104
3174.10232	0.00119
3172.17395	0.00111
3170.24558	0.00099
3168.31720	0.00101
3166.38883	0.00116
3164.46046	0.00116
3162.53208	0.00110
3160.60371	0.00115
3158.67534	0.00118
3156.74696	0.00121
3154.81859	0.00130
3152.89022	0.00128
3150.96184	0.00122
3149.03347	0.00132
3147.10510	0.00142
3145.17672	0.00131
3143.24835	0.00107
3141.31998	0.00084
3139.39160	0.00081
3137.46323	0.00099
3135.53486	0.00114
3133.60648	0.00119
3131.67811	0.00121
3129.74974	0.00121
3127.82136	0.00119
3125.89299	0.00123
3123.96462	0.00130
3122.03624	0.00128
3120.10787	0.00116
3118.17950	0.00109
3116.25113	0.00115
3114.32275	0.00118
3112.39438	0.00111
3110.46601	0.00102
3108.53763	0.00097
3106.60926	0.00099
3104.68089	0.00104
3102.75251	0.00100
3100.82414	0.00095
3098.89577	0.00103
3096.96739	0.00109
3095.03902	0.00091
3093.11065	0.00072
3091.18227	0.00080
3089.25390	0.00109
3087.32553	0.00128
3085.39715	0.00131
3083.46878	0.00148
3081.54041	0.00166
3079.61203	0.00147
3077.68366	0.00109
3075.75529	0.00105
3073.82691	0.00125
3071.89854	0.00137
3069.97017	0.00136
3068.04179	0.00135
3066.11342	0.00142
3064.18505	0.00147
3062.25668	0.00144
3060.32830	0.00138
3058.39993	0.00127
3056.47156	0.00103
3054.54318	0.00075
3052.61481	0.00065
3050.68644	0.00070
3048.75806	0.00083
3046.82969	0.00094
3044.90132	0.00107
3042.97294	0.00111
3041.04457	0.00115
3039.11620	0.00119
3037.18782	0.00113
3035.25945	0.00120
3033.33108	0.00125
3031.40270	0.00110
3029.47433	0.00091
3027.54596	0.00084
3025.61758	0.00080
3023.68921	0.00058
3021.76084	0.00055
3019.83246	0.00069
3017.90409	0.00084
3015.97572	0.00078
3014.04734	0.00072
3012.11897	0.00083
3010.19060	0.00093
3008.26222	0.00091
3006.33385	0.00081
3004.40548	0.00078
3002.47711	0.00090
3000.54873	0.00104
2998.62036	0.00118
2996.69199	0.00127
2994.76361	0.00126
2992.83524	0.00128
2990.90687	0.00139
2988.97849	0.00154
2987.05012	0.00163
2985.12175	0.00159
2983.19337	0.00157
2981.26500	0.00166
2979.33663	0.00178
2977.40825	0.00195
2975.47988	0.00217
2973.55151	0.00222
2971.62313	0.00204
2969.69476	0.00192
2967.76639	0.00206
2965.83801	0.00235
2963.90964	0.00238
2961.98127	0.00199
2960.05289	0.00156
2958.12452	0.00150
2956.19615	0.00162
2954.26777	0.00153
2952.33940	0.00126
2950.41103	0.00104
2948.48266	0.00097
2946.55428	0.00103
2944.62591	0.00123
2942.69754	0.00134
2940.76916	0.00116
2938.84079	0.00090
2936.91242	0.00098
2934.98404	0.00131
2933.05567	0.00153
2931.12730	0.00170
2929.19892	0.00176
2927.27055	0.00156
2925.34218	0.00137
2923.41380	0.00130
2921.48543	0.00127
2919.55706	0.00134
2917.62868	0.00157
2915.70031	0.00170
2913.77194	0.00149
2911.84356	0.00114
2909.91519	0.00094
2907.98682	0.00097
2906.05844	0.00090
2904.13007	0.00066
2902.20170	0.00045
2900.27332	0.00042
2898.34495	0.00064
2896.41658	0.00090
2894.48820	0.00108
2892.55983	0.00124
2890.63146	0.00145
2888.70309	0.00158
2886.77471	0.00152
2884.84634	0.00138
2882.91797	0.00128
2880.98959	0.00132
2879.06122	0.00132
2877.13285	0.00126
2875.20447	0.00129
2873.27610	0.00127
2871.34773	0.00117
2869.41935	0.00102
2867.49098	0.00089
2865.56261	0.00090
2863.63423	0.00097
2861.70586	0.00100
2859.77749	0.00090
2857.84911	0.00071
2855.92074	0.00050
2853.99237	0.00036
2852.06399	0.00080
2850.13562	0.00102
2848.20725	0.00089
2846.27887	0.00052
2844.35050	0.00044
2842.42213	0.00054
2840.49375	0.00065
2838.56538	0.00068
2836.63701	0.00085
2834.70863	0.00100
2832.78026	0.00103
2830.85189	0.00097
2828.92352	0.00087
2826.99514	0.00078
2825.06677	0.00088
2823.13840	0.00106
2821.21002	0.00110
2819.28165	0.00101
2817.35328	0.00097
2815.42490	0.00104
2813.49653	0.00124
2811.56816	0.00140
2809.63978	0.00136
2807.71141	0.00129
2805.78304	0.00143
2803.85466	0.00161
2801.92629	0.00173
2799.99792	0.00182
2798.06954	0.00187
2796.14117	0.00194
2794.21280	0.00212
2792.28442	0.00239
2790.35605	0.00264
2788.42768	0.00285
2786.49930	0.00299
2784.57093	0.00307
2782.64256	0.00325
2780.71418	0.00346
2778.78581	0.00349
2776.85744	0.00343
2774.92907	0.00354
2773.00069	0.00381
2771.07232	0.00408
2769.14395	0.00426
2767.21557	0.00445
2765.28720	0.00471
2763.35883	0.00491
2761.43045	0.00500
2759.50208	0.00515
2757.57371	0.00537
2755.64533	0.00560
2753.71696	0.00591
2751.78859	0.00626
2749.86021	0.00655
2747.93184	0.00682
2746.00347	0.00711
2744.07509	0.00735
2742.14672	0.00759
2740.21835	0.00803
2738.28997	0.00863
2736.36160	0.00915
2734.43323	0.00951
2732.50485	0.00983
2730.57648	0.01011
2728.64811	0.01033
2726.71973	0.01055
2724.79136	0.01083
2722.86299	0.01111
2720.93461	0.01146
2719.00624	0.01199
2717.07787	0.01264
2715.14950	0.01320
2713.22112	0.01357
2711.29275	0.01377
2709.36438	0.01390
2707.43600	0.01420
2705.50763	0.01470
2703.57926	0.01510
2701.65088	0.01528
2699.72251	0.01546
2697.79414	0.01571
2695.86576	0.01591
2693.93739	0.01615
2692.00902	0.01657
2690.08064	0.01698
2688.15227	0.01730
2686.22390	0.01760
2684.29552	0.01795
2682.36715	0.01835
2680.43878	0.01876
2678.51040	0.01915
2676.58203	0.01958
2674.65366	0.01999
2672.72528	0.02039
2670.79691	0.02089
2668.86854	0.02145
2666.94016	0.02192
2665.01179	0.02238
2663.08342	0.02299
2661.15505	0.02368
2659.22667	0.02428
2657.29830	0.02487
2655.36993	0.02552
2653.44155	0.02615
2651.51318	0.02669
2649.58481	0.02719
2647.65643	0.02768
2645.72806	0.02815
2643.79969	0.02869
2641.87131	0.02936
2639.94294	0.03007
2638.01457	0.03067
2636.08619	0.03124
2634.15782	0.03200
2632.22945	0.03297
2630.30107	0.03384
2628.37270	0.03456
2626.44433	0.03529
2624.51595	0.03607
2622.58758	0.03692
2620.65921	0.03790
2618.73083	0.03901
2616.80246	0.04010
2614.87409	0.04108
2612.94571	0.04199
2611.01734	0.04293
2609.08897	0.04402
2607.16059	0.04529
2605.23222	0.04664
2603.30385	0.04792
2601.37548	0.04911
2599.44710	0.05032
2597.51873	0.05151
2595.59036	0.05259
2593.66198	0.05361
2591.73361	0.05468
2589.80524	0.05584
2587.87686	0.05704
2585.94849	0.05820
2584.02012	0.05942
2582.09174	0.06070
2580.16337	0.06197
2578.23500	0.06329
2576.30662	0.06459
2574.37825	0.06587
2572.44988	0.06723
2570.52150	0.06872
2568.59313	0.07025
2566.66476	0.07176
2564.73638	0.07330
2562.80801	0.07495
2560.87964	0.07663
2558.95126	0.07830
2557.02289	0.07995
2555.09452	0.08149
2553.16614	0.08300
2551.23777	0.08460
2549.30940	0.08625
2547.38103	0.08778
2545.45265	0.08915
2543.52428	0.09045
2541.59591	0.09177
2539.66753	0.09309
2537.73916	0.09446
2535.81079	0.09592
2533.88241	0.09739
2531.95404	0.09879
2530.02567	0.10012
2528.09729	0.10148
2526.16892	0.10290
2524.24055	0.10434
2522.31217	0.10585
2520.38380	0.10745
2518.45543	0.10909
2516.52705	0.11068
2514.59868	0.11215
2512.67031	0.11358
2510.74193	0.11508
2508.81356	0.11670
2506.88519	0.11836
2504.95681	0.11999
2503.02844	0.12160
2501.10007	0.12322
2499.17169	0.12490
2497.24332	0.12665
2495.31495	0.12839
2493.38657	0.13006
2491.45820	0.13170
2489.52983	0.13338
2487.60146	0.13510
2485.67308	0.13684
2483.74471	0.13853
2481.81634	0.14027
2479.88796	0.14217
2477.95959	0.14413
2476.03122	0.14608
2474.10284	0.14799
2472.17447	0.14992
2470.24610	0.15197
2468.31772	0.15418
2466.38935	0.15650
2464.46098	0.15893
2462.53260	0.16148
2460.60423	0.16407
2458.67586	0.16658
2456.74748	0.16897
2454.81911	0.17140
2452.89074	0.17398
2450.96236	0.17657
2449.03399	0.17916
2447.10562	0.18181
2445.17724	0.18445
2443.24887	0.18692
2441.32050	0.18926
2439.39212	0.19163
2437.46375	0.19404
2435.53538	0.19653
2433.60700	0.19903
2431.67863	0.20142
2429.75026	0.20375
2427.82189	0.20610
2425.89351	0.20842
2423.96514	0.21068
2422.03677	0.21291
2420.10839	0.21519
2418.18002	0.21752
2416.25165	0.21984
2414.32327	0.22227
2412.39490	0.22478
2410.46653	0.22728
2408.53815	0.22990
2406.60978	0.23276
2404.68141	0.23579
2402.75303	0.23880
2400.82466	0.24166
2398.89629	0.24448
2396.96791	0.24746
2395.03954	0.25056
2393.11117	0.25355
2391.18279	0.25645
2389.25442	0.25926
2387.32605	0.26180
2385.39767	0.26398
2383.46930	0.26570
2381.54093	0.26688
2379.61255	0.26780
2377.68418	0.26878
2375.75581	0.26969
2373.82744	0.27020
2371.89906	0.27025
2369.97069	0.27018
2368.04232	0.27052
2366.11394	0.27144
2364.18557	0.27268
2362.25720	0.27450
2360.32882	0.27728
2358.40045	0.28077
2356.47208	0.28515
2354.54370	0.29028
2352.61533	0.29529
2350.68696	0.29930
2348.75858	0.30151
2346.83021	0.30177
2344.90184	0.30113
2342.97346	0.30137
2341.04509	0.30274
2339.11672	0.30455
2337.18834	0.30654
2335.25997	0.30848
2333.33160	0.31022
2331.40322	0.31190
2329.47485	0.31403
2327.54648	0.31667
2325.61810	0.31922
2323.68973	0.32149
2321.76136	0.32427
2319.83298	0.32795
2317.90461	0.33184
2315.97624	0.33544
2314.04787	0.33893
2312.11949	0.34264
2310.19112	0.34656
2308.26275	0.35054
2306.33437	0.35446
2304.40600	0.35832
2302.47763	0.36209
2300.54925	0.36560
2298.62088	0.36877
2296.69251	0.37187
2294.76413	0.37499
2292.83576	0.37802
2290.90739	0.38097
2288.97901	0.38384
2287.05064	0.38653
2285.12227	0.38896
2283.19389	0.39112
2281.26552	0.39307
2279.33715	0.39483
2277.40877	0.39643
2275.48040	0.39802
2273.55203	0.39970
2271.62365	0.40139
2269.69528	0.40312
2267.76691	0.40479
2265.83853	0.40627
2263.91016	0.40767
2261.98179	0.40924
2260.05342	0.41102
2258.12504	0.41288
2256.19667	0.41484
2254.26830	0.41694
2252.33992	0.41915
2250.41155	0.42136
2248.48318	0.42347
2246.55480	0.42548
2244.62643	0.42739
2242.69806	0.42917
2240.76968	0.43074
2238.84131	0.43219
2236.91294	0.43359
2234.98456	0.43484
2233.05619	0.43604
2231.12782	0.43723
2229.19944	0.43829
2227.27107	0.43921
2225.34270	0.44011
2223.41432	0.44101
2221.48595	0.44192
2219.55758	0.44292
2217.62920	0.44394
2215.70083	0.44490
2213.77246	0.44579
2211.84408	0.44665
2209.91571	0.44753
2207.98734	0.44844
2206.05896	0.44931
2204.13059	0.45002
2202.20222	0.45062
2200.27385	0.45132
2198.34547	0.45214
2196.41710	0.45285
2194.48873	0.45344
2192.56035	0.45407
2190.63198	0.45463
2188.70361	0.45501
2186.77523	0.45541
2184.84686	0.45596
2182.91849	0.45651
2180.99011	0.45699
2179.06174	0.45743
2177.13337	0.45781
2175.20499	0.45805
2173.27662	0.45816
2171.34825	0.45824
2169.41987	0.45835
2167.49150	0.45841
2165.56313	0.45840
2163.63475	0.45845
2161.70638	0.45864
2159.77801	0.45899
2157.84963	0.45948
2155.92126	0.46009
2153.99289	0.46078
2152.06451	0.46140
2150.13614	0.46190
2148.20777	0.46247
2146.27940	0.46323
2144.35102	0.46407
2142.42265	0.46488
2140.49428	0.46562
2138.56590	0.46642
2136.63753	0.46736
2134.70916	0.46844
2132.78078	0.46964
2130.85241	0.47092
2128.92404	0.47234
2126.99566	0.47388
2125.06729	0.47549
2123.13892	0.47722
2121.21054	0.47901
2119.28217	0.48072
2117.35380	0.48238
2115.42542	0.48407
2113.49705	0.48581
2111.56868	0.48746
2109.64030	0.48899
2107.71193	0.49048
2105.78356	0.49189
2103.85518	0.49318
2101.92681	0.49444
2099.99844	0.49564
2098.07006	0.49672
2096.14169	0.49773
2094.21332	0.49860
2092.28494	0.49911
2090.35657	0.49942
2088.42820	0.49993
2086.49983	0.50060
2084.57145	0.50111
2082.64308	0.50142
2080.71471	0.50161
2078.78633	0.50166
2076.85796	0.50164
2074.92959	0.50158
2073.00121	0.50148
2071.07284	0.50144
2069.14447	0.50138
2067.21609	0.50096
2065.28772	0.50059
2063.35935	0.50108
2061.43097	0.50216
2059.50260	0.50322
2057.57423	0.50429
2055.64585	0.50547
2053.71748	0.50684
2051.78911	0.50842
2049.86073	0.51008
2047.93236	0.51171
2046.00399	0.51318
2044.07561	0.51446
2042.14724	0.51584
2040.21887	0.51778
2038.29049	0.52001
2036.36212	0.52190
2034.43375	0.52340
2032.50538	0.52467
2030.57700	0.52574
2028.64863	0.52669
2026.72026	0.52750
2024.79188	0.52811
2022.86351	0.52865
2020.93514	0.52878
2019.00676	0.52808
2017.07839	0.52775
2015.15002	0.52920
2013.22164	0.53132
2011.29327	0.53271
2009.36490	0.53360
2007.43652	0.53454
2005.50815	0.53561
2003.57978	0.53671
2001.65140	0.53770
1999.72303	0.53859
1997.79466	0.53954
1995.86628	0.53973
1993.93791	0.53804
1992.00954	0.53650
1990.08116	0.53774
1988.15279	0.54034
1986.22442	0.54242
1984.29604	0.54387
1982.36767	0.54477
1980.43930	0.54529
1978.51092	0.54567
1976.58255	0.54608
1974.65418	0.54669
1972.72581	0.54735
1970.79743	0.54720
1968.86906	0.54559
1966.94069	0.54478
1965.01231	0.54679
1963.08394	0.54933
1961.15557	0.55054
1959.22719	0.55125
1957.29882	0.55174
1955.37045	0.55212
1953.44207	0.55305
1951.51370	0.55428
1949.58533	0.55493
1947.65695	0.55446
1945.72858	0.55222
1943.80021	0.54897
1941.87183	0.54925
1939.94346	0.55424
1938.01509	0.55845
1936.08671	0.55957
1934.15834	0.55948
1932.22997	0.55941
1930.30159	0.55960
1928.37322	0.55969
1926.44485	0.55829
1924.51647	0.55461
1922.58810	0.55180
1920.65973	0.55119
1918.73135	0.55041
1916.80298	0.55196
1914.87461	0.55625
1912.94624	0.55767
1911.01786	0.55518
1909.08949	0.55305
1907.16112	0.55378
1905.23274	0.55535
1903.30437	0.55575
1901.37600	0.55529
1899.44762	0.55402
1897.51925	0.55114
1895.59088	0.54792
1893.66250	0.54623
1891.73413	0.54339
1889.80576	0.53942
1887.87738	0.53946
1885.94901	0.54184
1884.02064	0.54236
1882.09226	0.54165
1880.16389	0.54056
1878.23552	0.53916
1876.30714	0.53771
1874.37877	0.53555
1872.45040	0.52973
1870.52202	0.51826
1868.59365	0.50881
1866.66528	0.51122
1864.73690	0.51869
1862.80853	0.52157
1860.88016	0.52007
1858.95179	0.51775
1857.02341	0.51610
1855.09504	0.51457
1853.16667	0.51249
1851.23829	0.50921
1849.30992	0.50378
1847.38155	0.49558
1845.45317	0.48611
1843.52480	0.48327
1841.59643	0.48929
1839.66805	0.49354
1837.73968	0.49247
1835.81131	0.49050
1833.88293	0.48736
1831.95456	0.47853
1830.02619	0.46804
1828.09781	0.46459
1826.16944	0.46445
1824.24107	0.46408
1822.31269	0.46534
1820.38432	0.46467
1818.45595	0.46013
1816.52757	0.45428
1814.59920	0.44719
1812.67083	0.43718
1810.74245	0.42679
1808.81408	0.42017
1806.88571	0.41499
1804.95733	0.40658
1803.02896	0.39351
1801.10059	0.37879
1799.17222	0.36739
1797.24384	0.35813
1795.31547	0.34558
1793.38710	0.32834
1791.45872	0.31387
1789.53035	0.30757
1787.60198	0.30131
1785.67360	0.29010
1783.74523	0.27702
1781.81686	0.26457
1779.88848	0.25334
1777.96011	0.24356
1776.03174	0.23242
1774.10336	0.21750
1772.17499	0.20211
1770.24662	0.19269
1768.31824	0.18685
1766.38987	0.17946
1764.46150	0.16914
1762.53312	0.15515
1760.60475	0.14015
1758.67638	0.12643
1756.74800	0.11150
1754.81963	0.09619
1752.89126	0.08084
1750.96288	0.06350
1749.03451	0.04689
1747.10614	0.03433
1745.17777	0.02455
1743.24939	0.01641
1741.32102	0.00993
1739.39265	0.00518
1737.46427	0.00241
1735.53590	0.00090
1733.60753	0.00109
1731.67915	0.00177
1729.75078	0.00176
1727.82241	0.00163
1725.89403	0.00170
1723.96566	0.00177
1722.03729	0.00181
1720.10891	0.00191
1718.18054	0.00218
1716.25217	0.00237
1714.32379	0.00213
1712.39542	0.00185
1710.46705	0.00168
1708.53867	0.00173
1706.61030	0.00192
1704.68193	0.00202
1702.75355	0.00217
1700.82518	0.00243
1698.89681	0.00251
1696.96843	0.00229
1695.04006	0.00207
1693.11169	0.00183
1691.18331	0.00173
1689.25494	0.00183
1687.32657	0.00198
1685.39820	0.00222
1683.46982	0.00225
1681.54145	0.00198
1679.61308	0.00181
1677.68470	0.00190
1675.75633	0.00211
1673.82796	0.00223
1671.89958	0.00228
1669.97121	0.00222
1668.04284	0.00195
1666.11446	0.00164
1664.18609	0.00146
1662.25772	0.00148
1660.32934	0.00153
1658.40097	0.00161
1656.47260	0.00190
1654.54422	0.00245
1652.61585	0.00251
1650.68748	0.00188
1648.75910	0.00158
1646.83073	0.00165
1644.90236	0.00170
1642.97398	0.00156
1641.04561	0.00145
1639.11724	0.00153
1637.18886	0.00188
1635.26049	0.00218
1633.33212	0.00209
1631.40375	0.00190
1629.47537	0.00169
1627.54700	0.00150
1625.61863	0.00150
1623.69025	0.00164
1621.76188	0.00174
1619.83351	0.00178
1617.90513	0.00184
1615.97676	0.00175
1614.04839	0.00156
1612.12001	0.00157
1610.19164	0.00175
1608.26327	0.00191
1606.33489	0.00187
1604.40652	0.00168
1602.47815	0.00158
1600.54977	0.00160
1598.62140	0.00160
1596.69303	0.00152
1594.76465	0.00145
1592.83628	0.00153
1590.90791	0.00169
1588.97953	0.00174
1587.05116	0.00164
1585.12279	0.00149
1583.19441	0.00150
1581.26604	0.00158
1579.33767	0.00160
1577.40929	0.00166
1575.48092	0.00177
1573.55255	0.00186
1571.62418	0.00199
1569.69580	0.00200
1567.76743	0.00180
1565.83906	0.00163
1563.91068	0.00162
1561.98231	0.00193
1560.05394	0.00255
1558.12556	0.00269
1556.19719	0.00228
1554.26882	0.00201
1552.34044	0.00184
1550.41207	0.00174
1548.48370	0.00172
1546.55532	0.00183
1544.62695	0.00213
1542.69858	0.00264
1540.77020	0.00300
1538.84183	0.00267
1536.91346	0.00223
1534.98508	0.00209
1533.05671	0.00196
1531.12834	0.00176
1529.19996	0.00175
1527.27159	0.00190
1525.34322	0.00205
1523.41484	0.00226
1521.48647	0.00246
1519.55810	0.00238
1517.62972	0.00212
1515.70135	0.00187
1513.77298	0.00171
1511.84461	0.00176
1509.91623	0.00205
1507.98786	0.00254
1506.05949	0.00271
1504.13111	0.00233
1502.20274	0.00205
1500.27437	0.00198
1498.34599	0.00199
1496.41762	0.00193
1494.48925	0.00180
1492.56087	0.00185
1490.63250	0.00207
1488.70413	0.00205
1486.77575	0.00182
1484.84738	0.00177
1482.91901	0.00184
1480.99063	0.00190
1479.06226	0.00200
1477.13389	0.00223
1475.20551	0.00252
1473.27714	0.00270
1471.34877	0.00255
1469.42039	0.00223
1467.49202	0.00204
1465.56365	0.00213
1463.63527	0.00241
1461.70690	0.00266
1459.77853	0.00297
1457.85016	0.00341
1455.92178	0.00338
1453.99341	0.00286
1452.06504	0.00250
1450.13666	0.00235
1448.20829	0.00226
1446.27992	0.00226
1444.35154	0.00229
1442.42317	0.00228
1440.49480	0.00228
1438.56642	0.00249
1436.63805	0.00285
1434.70968	0.00291
1432.78130	0.00273
1430.85293	0.00258
1428.92456	0.00246
1426.99618	0.00239
1425.06781	0.00238
1423.13944	0.00239
1421.21106	0.00256
1419.28269	0.00279
1417.35432	0.00265
1415.42594	0.00235
1413.49757	0.00222
1411.56920	0.00222
1409.64082	0.00233
1407.71245	0.00253
1405.78408	0.00270
1403.85570	0.00271
1401.92733	0.00265
1399.99896	0.00262
1398.07059	0.00265
1396.14221	0.00277
1394.21384	0.00282
1392.28547	0.00268
1390.35709	0.00265
1388.42872	0.00278
1386.50035	0.00281
1384.57197	0.00270
1382.64360	0.00269
1380.71523	0.00285
1378.78685	0.00300
1376.85848	0.00310
1374.93011	0.00314
1373.00173	0.00316
1371.07336	0.00317
1369.14499	0.00316
1367.21661	0.00310
1365.28824	0.00304
1363.35987	0.00304
1361.43149	0.00301
1359.50312	0.00293
1357.57475	0.00294
1355.64637	0.00301
1353.71800	0.00298
1351.78963	0.00285
1349.86125	0.00263
1347.93288	0.00244
1346.00451	0.00249
1344.07614	0.00269
1342.14776	0.00274
1340.21939	0.00261
1338.29102	0.00254
1336.36264	0.00260
1334.43427	0.00269
1332.50590	0.00285
1330.57752	0.00303
1328.64915	0.00306
1326.72078	0.00296
1324.79240	0.00282
1322.86403	0.00279
1320.93566	0.00303
1319.00728	0.00328
1317.07891	0.00327
1315.15054	0.00312
1313.22216	0.00305
1311.29379	0.00305
1309.36542	0.00303
1307.43704	0.00297
1305.50867	0.00299
1303.58030	0.00311
1301.65192	0.00325
1299.72355	0.00329
1297.79518	0.00324
1295.86680	0.00321
1293.93843	0.00322
1292.01006	0.00331
1290.08168	0.00347
1288.15331	0.00355
1286.22494	0.00348
1284.29657	0.00343
1282.36819	0.00348
1280.43982	0.00355
1278.51145	0.00354
1276.58307	0.00350
1274.65470	0.00358
1272.72633	0.00380
1270.79795	0.00391
1268.86958	0.00387
1266.94121	0.00386
1265.01283	0.00396
1263.08446	0.00412
1261.15609	0.00425
1259.22771	0.00419
1257.29934	0.00411
1255.37097	0.00417
1253.44259	0.00417
1251.51422	0.00403
1249.58585	0.00395
1247.65747	0.00400
1245.72910	0.00422
1243.80073	0.00456
1241.87235	0.00480
1239.94398	0.00478
1238.01561	0.00475
1236.08723	0.00493
1234.15886	0.00523
1232.23049	0.00536
1230.30212	0.00518
1228.37374	0.00509
1226.44537	0.00550
1224.51700	0.00615
1222.58862	0.00655
1220.66025	0.00665
1218.73188	0.00653
1216.80350	0.00617
1214.87513	0.00588
1212.94676	0.00593
1211.01838	0.00603
1209.09001	0.00594
1207.16164	0.00596
1205.23326	0.00608
1203.30489	0.00616
1201.37652	0.00616
1199.44814	0.00585
1197.51977	0.00545
1195.59140	0.00534
1193.66302	0.00545
1191.73465	0.00554
1189.80628	0.00557
1187.87790	0.00560
1185.94953	0.00568
1184.02116	0.00578
1182.09278	0.00593
1180.16441	0.00603
1178.23604	0.00598
1176.30766	0.00587
1174.37929	0.00576
1172.45092	0.00566
1170.52255	0.00567
1168.59417	0.00571
1166.66580	0.00572
1164.73743	0.00598
1162.80905	0.00645
1160.88068	0.00679
1158.95231	0.00687
1157.02393	0.00674
1155.09556	0.00656
1153.16719	0.00651
1151.23881	0.00641
1149.31044	0.00629
1147.38207	0.00641
1145.45369	0.00670
1143.52532	0.00683
1141.59695	0.00662
1139.66857	0.00628
1137.74020	0.00626
1135.81183	0.00653
1133.88345	0.00659
1131.95508	0.00650
1130.02671	0.00652
1128.09833	0.00679
1126.16996	0.00710
1124.24159	0.00708
1122.31321	0.00681
1120.38484	0.00688
1118.45647	0.00723
1116.52809	0.00732
1114.59972	0.00710
1112.67135	0.00690
1110.74298	0.00674
1108.81460	0.00665
1106.88623	0.00668
1104.95786	0.00675
1103.02948	0.00681
1101.10111	0.00692
1099.17274	0.00701
1097.24436	0.00700
1095.31599	0.00686
1093.38762	0.00679
1091.45924	0.00684
1089.53087	0.00700
1087.60250	0.00728
1085.67412	0.00738
1083.74575	0.00728
1081.81738	0.00734
1079.88900	0.00748
1077.96063	0.00742
1076.03226	0.00730
1074.10388	0.00741
1072.17551	0.00775
1070.24714	0.00787
1068.31876	0.00745
1066.39039	0.00696
1064.46202	0.00689
1062.53364	0.00707
1060.60527	0.00716
1058.67690	0.00719
1056.74853	0.00726
1054.82015	0.00745
1052.89178	0.00773
1050.96341	0.00782
1049.03503	0.00754
1047.10666	0.00717
1045.17829	0.00699
1043.24991	0.00691
1041.32154	0.00691
1039.39317	0.00699
1037.46479	0.00711
1035.53642	0.00717
1033.60805	0.00706
1031.67967	0.00684
1029.75130	0.00669
1027.82293	0.00664
1025.89455	0.00665
1023.96618	0.00656
1022.03781	0.00639
1020.10943	0.00635
1018.18106	0.00633
1016.25269	0.00622
1014.32431	0.00623
1012.39594	0.00637
1010.46757	0.00632
1008.53919	0.00607
1006.61082	0.00587
1004.68245	0.00576
1002.75407	0.00565
1000.82570	0.00551
998.89733	0.00547
996.96896	0.00584
995.04058	0.00658
993.11221	0.00727
991.18384	0.00775
989.25546	0.00847
987.32709	0.00954
985.39872	0.01041
983.47034	0.01072
981.54197	0.01061
979.61360	0.01025
977.68522	0.00979
975.75685	0.00967
973.82848	0.01038
971.90010	0.01231
969.97173	0.01550
968.04336	0.01952
966.11498	0.02357
964.18661	0.02612
962.25824	0.02546
960.32986	0.02140
958.40149	0.01585
956.47312	0.01147
954.54474	0.00950
952.61637	0.00986
950.68800	0.01260
948.75962	0.01706
946.83125	0.02201
944.90288	0.02676
942.97451	0.03100
941.04613	0.03473
939.11776	0.03828
937.18939	0.04174
935.26101	0.04472
933.33264	0.04673
931.40427	0.04791
929.47589	0.04847
927.54752	0.04817
925.61915	0.04709
923.69077	0.04591
921.76240	0.04530
919.83403	0.04564
917.90565	0.04681
915.97728	0.04818
914.04891	0.04891
912.12053	0.04818
910.19216	0.04557
908.26379	0.04147
906.33541	0.03661
904.40704	0.03167
902.47867	0.02729
900.55029	0.02384
898.62192	0.02148
896.69355	0.02035
894.76517	0.02016
892.83680	0.02047
890.90843	0.02106
888.98005	0.02176
887.05168	0.02255
885.12331	0.02331
883.19494	0.02379
881.26656	0.02409
879.33819	0.02419
877.40982	0.02392
875.48144	0.02365
873.55307	0.02396
871.62470	0.02460
869.69632	0.02497
867.76795	0.02507
865.83958	0.02512
863.91120	0.02498
861.98283	0.02447
860.05446	0.02376
858.12608	0.02325
856.19771	0.02300
854.26934	0.02275
852.34096	0.02232
850.41259	0.02171
848.48422	0.02119
846.55584	0.02106
844.62747	0.02103
842.69910	0.02056
840.77072	0.01959
838.84235	0.01820
836.91398	0.01687
834.98560	0.01614
833.05723	0.01563
831.12886	0.01497
829.20049	0.01458
827.27211	0.01447
825.34374	0.01410
823.41537	0.01338
821.48699	0.01277
819.55862	0.01266
817.63025	0.01283
815.70187	0.01269
813.77350	0.01239
811.84513	0.01253
809.91675	0.01299
807.98838	0.01322
806.06001	0.01306
804.13163	0.01274
802.20326	0.01237
800.27489	0.01205
798.34651	0.01162
796.41814	0.01094
794.48977	0.01059
792.56139	0.01078
790.63302	0.01100
788.70465	0.01118
786.77627	0.01145
784.84790	0.01161
782.91953	0.01172
780.99115	0.01194
779.06278	0.01202
777.13441	0.01172
775.20603	0.01136
773.27766	0.01133
771.34929	0.01165
769.42092	0.01196
767.49254	0.01212
765.56417	0.01213
763.63580	0.01193
761.70742	0.01164
759.77905	0.01153
757.85068	0.01166
755.92230	0.01189
753.99393	0.01230
752.06556	0.01278
750.13718	0.01288
748.20881	0.01258
746.28044	0.01224
744.35206	0.01191
742.42369	0.01155
740.49532	0.01121
738.56694	0.01106
736.63857	0.01141
734.71020	0.01191
732.78182	0.01198
730.85345	0.01188
728.92508	0.01204
726.99670	0.01232
725.06833	0.01256
723.13996	0.01282
721.21158	0.01313
719.28321	0.01356
717.35484	0.01375
715.42647	0.01348
713.49809	0.01343
711.56972	0.01374
709.64135	0.01382
707.71297	0.01388
705.78460	0.01437
703.85623	0.01494
701.92785	0.01527
699.99948	0.01546
698.07111	0.01555
696.14273	0.01586
694.21436	0.01646
692.28599	0.01684
690.35761	0.01719
688.42924	0.01769
686.50087	0.01786
684.57249	0.01796
682.64412	0.01819
680.71575	0.01818
678.78737	0.01843
676.85900	0.01954
674.93063	0.02069
673.00225	0.02152
671.07388	0.02396
669.14551	0.02902
667.21713	0.02928
665.28876	0.02424
663.36039	0.02224
661.43201	0.02317
659.50364	0.02472
657.57527	0.02602
655.64690	0.02681
653.71852	0.02644
651.79015	0.02484
649.86178	0.02337
647.93340	0.02313
646.00503	0.02400
644.07666	0.02557
642.14828	0.02704
640.21991	0.02761
638.29154	0.02773
636.36316	0.02793
634.43479	0.02821
632.50642	0.02902
630.57804	0.03036
628.64967	0.03188
626.72130	0.03349
624.79292	0.03502
622.86455	0.03620
620.93618	0.03699
619.00780	0.03866
617.07943	0.04123
615.15106	0.04262
613.22268	0.04291
611.29431	0.04461
609.36594	0.04728
607.43756	0.04895
605.50919	0.05098
603.58082	0.05448
601.65244	0.05819
599.72407	0.06100
