3997.51769	0.29600
3995.58931	0.29641
3993.66094	0.29671
3991.73257	0.29683
3989.80419	0.29638
3987.87582	0.29594
3985.94745	0.29611
3984.01907	0.29654
3982.09070	0.29694
3980.16233	0.29720
3978.23396	0.29716
3976.30558	0.29703
3974.37721	0.29711
3972.44884	0.29758
3970.52046	0.29813
3968.59209	0.29812
3966.66372	0.29790
3964.73534	0.29835
3962.80697	0.29952
3960.87860	0.30046
3958.95022	0.30037
3957.02185	0.29995
3955.09348	0.30043
3953.16510	0.30159
3951.23673	0.30271
3949.30836	0.30369
3947.37998	0.30418
3945.45161	0.30410
3943.52324	0.30415
3941.59486	0.30471
3939.66649	0.30545
3937.73812	0.30591
3935.80974	0.30607
3933.88137	0.30625
3931.95300	0.30661
3930.02462	0.30683
3928.09625	0.30684
3926.16788	0.30700
3924.23950	0.30709
3922.31113	0.30687
3920.38276	0.30722
3918.45439	0.30841
3916.52601	0.30921
3914.59764	0.30906
3912.66927	0.30919
3910.74089	0.30982
3908.81252	0.31018
3906.88415	0.31104
3904.95577	0.31336
3903.02740	0.31580
3901.09903	0.31674
3899.17065	0.31607
3897.24228	0.31472
3895.31391	0.31458
3893.38553	0.31628
3891.45716	0.31807
3889.52879	0.31814
3887.60041	0.31800
3885.67204	0.31842
3883.74367	0.31865
3881.81529	0.31938
3879.88692	0.32024
3877.95855	0.31991
3876.03017	0.31970
3874.10180	0.32062
3872.17343	0.32230
3870.24505	0.32395
3868.31668	0.32402
3866.38831	0.32354
3864.45994	0.32397
3862.53156	0.32392
3860.60319	0.32299
3858.67482	0.32235
3856.74644	0.32273
3854.81807	0.32544
3852.88970	0.32914
3850.96132	0.32855
3849.03295	0.32617
3847.10458	0.32482
3845.17620	0.32514
3843.24783	0.32682
3841.31946	0.32839
3839.39108	0.32890
3837.46271	0.32875
3835.53434	0.32837
3833.60596	0.32813
3831.67759	0.32807
3829.74922	0.32801
3827.82084	0.32822
3825.89247	0.32841
3823.96410	0.32864
3822.03572	0.32973
3820.10735	0.33009
3818.17898	0.32959
3816.25060	0.33002
3814.32223	0.32945
3812.39386	0.32776
3810.46548	0.32708
3808.53711	0.32774
3806.60874	0.32887
3804.68037	0.32985
3802.75199	0.33111
3800.82362	0.33147
3798.89525	0.32997
3796.96687	0.32850
3795.03850	0.32751
3793.11013	0.32676
3791.18175	0.32632
3789.25338	0.32590
3787.32501	0.32567
3785.39663	0.32603
3783.46826	0.32636
3781.53989	0.32645
3779.61151	0.32681
3777.68314	0.32664
3775.75477	0.32566
3773.82639	0.32518
3771.89802	0.32572
3769.96965	0.32645
3768.04127	0.32660
3766.11290	0.32634
3764.18453	0.32575
3762.25615	0.32549
3760.32778	0.32626
3758.39941	0.32683
3756.47103	0.32661
3754.54266	0.32700
3752.61429	0.32863
3750.68591	0.32999
3748.75754	0.32925
3746.82917	0.32835
3744.90080	0.32800
3742.97242	0.32649
3741.04405	0.32453
3739.11568	0.32404
3737.18730	0.32576
3735.25893	0.32838
3733.33056	0.32784
3731.40218	0.32444
3729.47381	0.32162
3727.54544	0.32020
3725.61706	0.31969
3723.68869	0.31900
3721.76032	0.31752
3719.83194	0.31557
3717.90357	0.31365
3715.97520	0.31252
3714.04682	0.31284
3712.11845	0.31384
3710.19008	0.31222
3708.26170	0.30817
3706.33333	0.30487
3704.40496	0.30301
3702.47658	0.30160
3700.54821	0.29902
3698.61984	0.29568
3696.69146	0.29245
3694.76309	0.28964
3692.83472	0.28790
3690.90635	0.28646
3688.97797	0.28225
3687.04960	0.27517
3685.12123	0.26896
3683.19285	0.26387
3681.26448	0.25882
3679.33611	0.25394
3677.40773	0.24947
3675.47936	0.24301
3673.55099	0.23459
3671.62261	0.22745
3669.69424	0.21912
3667.76587	0.20946
3665.83749	0.20126
3663.90912	0.19402
3661.98075	0.18698
3660.05237	0.17997
3658.12400	0.17279
3656.19563	0.16426
3654.26725	0.15571
3652.33888	0.14905
3650.41051	0.14271
3648.48213	0.13482
3646.55376	0.12621
3644.62539	0.11859
3642.69701	0.11197
3640.76864	0.10576
3638.84027	0.09955
3636.91189	0.09340
3634.98352	0.08792
3633.05515	0.08338
3631.12678	0.07908
3629.19840	0.07325
3627.27003	0.06693
3625.34166	0.06242
3623.41328	0.05866
3621.48491	0.05508
3619.55654	0.05124
3617.62816	0.04758
3615.69979	0.04478
3613.77142	0.04187
3611.84304	0.03873
3609.91467	0.03614
3607.98630	0.03394
3606.05792	0.03168
3604.12955	0.02937
3602.20118	0.02693
3600.27280	0.02472
3598.34443	0.02300
3596.41606	0.02134
3594.48768	0.01955
3592.55931	0.01802
3590.63094	0.01729
3588.70256	0.01669
3586.77419	0.01509
3584.84582	0.01321
3582.91744	0.01188
3580.98907	0.01073
3579.06070	0.00968
3577.13233	0.00883
3575.20395	0.00809
3573.27558	0.00756
3571.34721	0.00723
3569.41883	0.00708
3567.49046	0.00679
3565.56209	0.00604
3563.63371	0.00541
3561.70534	0.00509
3559.77697	0.00472
3557.84859	0.00394
3555.92022	0.00308
3553.99185	0.00274
3552.06347	0.00265
3550.13510	0.00244
3548.20673	0.00208
3546.27835	0.00158
3544.34998	0.00137
3542.42161	0.00157
3540.49323	0.00171
3538.56486	0.00134
3536.63649	0.00118
3534.70811	0.00128
3532.77974	0.00126
3530.85137	0.00136
3528.92299	0.00137
3526.99462	0.00143
3525.06625	0.00128
3523.13787	0.00062
3521.20950	0.00073
3519.28113	0.00122
3517.35276	0.00136
3515.42438	0.00108
3513.49601	0.00059
3511.56764	0.00034
3509.63926	0.00094
3507.71089	0.00122
3505.78252	0.00093
3503.85414	0.00058
3501.92577	0.00083
3499.99740	0.00103
3498.06902	0.00086
3496.14065	0.00121
3494.21228	0.00165
3492.28390	0.00157
3490.35553	0.00111
3488.42716	0.00079
3486.49878	0.00079
3484.57041	0.00083
3482.64204	0.00093
3480.71366	0.00095
3478.78529	0.00105
3476.85692	0.00113
3474.92854	0.00116
3473.00017	0.00101
3471.07180	0.00064
3469.14342	0.00042
3467.21505	0.00062
3465.28668	0.00098
3463.35831	0.00096
3461.42993	0.00084
3459.50156	0.00078
3457.57319	0.00094
3455.64481	0.00077
3453.71644	0.00050
3451.78807	0.00067
3449.85969	0.00062
3447.93132	0.00061
3446.00295	0.00070
3444.07457	0.00067
3442.14620	0.00030
3440.21783	0.00083
3438.28945	0.00086
3436.36108	0.00049
3434.43271	0.00050
3432.50433	0.00043
3430.57596	0.00081
3428.64759	0.00054
3426.71921	0.00080
3424.79084	0.00117
3422.86247	0.00100
3420.93409	0.00121
3419.00572	0.00128
3417.07735	0.00102
3415.14897	0.00049
3413.22060	0.00097
3411.29223	0.00111
3409.36385	0.00097
3407.43548	0.00080
3405.50711	0.00075
3403.57874	0.00099
3401.65036	0.00132
3399.72199	0.00106
3397.79362	0.00073
3395.86524	0.00092
3393.93687	0.00100
3392.00850	0.00086
3390.08012	0.00073
3388.15175	0.00073
3386.22338	0.00056
3384.29500	0.00036
3382.36663	0.00026
3380.43826	0.00058
3378.50988	0.00107
3376.58151	0.00118
3374.65314	0.00085
3372.72476	0.00090
3370.79639	0.00089
3368.86802	0.00080
3366.93964	0.00087
3365.01127	0.00094
3363.08290	0.00077
3361.15452	0.00065
3359.22615	0.00066
3357.29778	0.00079
3355.36940	0.00036
3353.44103	0.00054
3351.51266	0.00084
3349.58428	0.00081
3347.65591	0.00085
3345.72754	0.00076
3343.79917	0.00049
3341.87079	0.00063
3339.94242	0.00123
3338.01405	0.00150
3336.08567	0.00128
3334.15730	0.00077
3332.22893	0.00071
3330.30055	0.00094
3328.37218	0.00096
3326.44381	0.00102
3324.51543	0.00125
3322.58706	0.00131
3320.65869	0.00083
3318.73031	0.00033
3316.80194	0.00052
3314.87357	0.00072
3312.94519	0.00102
3311.01682	0.00082
3309.08845	0.00069
3307.16007	0.00108
3305.23170	0.00112
3303.30333	0.00118
3301.37495	0.00133
3299.44658	0.00119
3297.51821	0.00080
3295.58983	0.00059
3293.66146	0.00095
3291.73309	0.00106
3289.80472	0.00056
3287.87634	0.00063
3285.94797	0.00087
3284.01960	0.00050
3282.09122	0.00070
3280.16285	0.00068
3278.23448	0.00088
3276.30610	0.00131
3274.37773	0.00144
3272.44936	0.00100
3270.52098	0.00044
3268.59261	0.00057
3266.66424	0.00035
3264.73586	0.00052
3262.80749	0.00045
3260.87912	0.00048
3258.95074	0.00101
3257.02237	0.00104
3255.09400	0.00073
3253.16562	0.00083
3251.23725	0.00120
3249.30888	0.00093
3247.38050	0.00051
3245.45213	0.00093
3243.52376	0.00078
3241.59538	0.00073
3239.66701	0.00110
3237.73864	0.00150
3235.81026	0.00160
3233.88189	0.00152
3231.95352	0.00099
3230.02515	0.00040
3228.09677	0.00049
3226.16840	0.00061
3224.24003	0.00093
3222.31165	0.00104
3220.38328	0.00101
3218.45491	0.00089
3216.52653	0.00104
3214.59816	0.00105
3212.66979	0.00083
3210.74141	0.00056
3208.81304	0.00051
3206.88467	0.00093
3204.95629	0.00080
3203.02792	0.00045
3201.09955	0.00018
3199.17117	0.00054
3197.24280	0.00100
3195.31443	0.00114
3193.38605	0.00130
3191.45768	0.00107
3189.52931	0.00061
3187.60093	0.00065
3185.67256	0.00069
3183.74419	0.00059
3181.81581	0.00051
3179.88744	0.00074
3177.95907	0.00076
3176.03070	0.00060
3174.10232	0.00077
3172.17395	0.00080
3170.24558	0.00040
3168.31720	0.00050
3166.38883	0.00076
3164.46046	0.00079
3162.53208	0.00074
3160.60371	0.00043
3158.67534	0.00054
3156.74696	0.00071
3154.81859	0.00074
3152.89022	0.00055
3150.96184	0.00039
3149.03347	0.00064
3147.10510	0.00055
3145.17672	0.00055
3143.24835	0.00085
3141.31998	0.00086
3139.39160	0.00065
3137.46323	0.00034
3135.53486	0.00041
3133.60648	0.00055
3131.67811	0.00043
3129.74974	0.00069
3127.82136	0.00083
3125.89299	0.00068
3123.96462	0.00046
3122.03624	0.00049
3120.10787	0.00086
3118.17950	0.00108
3116.25113	0.00105
3114.32275	0.00101
3112.39438	0.00113
3110.46601	0.00098
3108.53763	0.00074
3106.60926	0.00087
3104.68089	0.00129
3102.75251	0.00130
3100.82414	0.00109
3098.89577	0.00112
3096.96739	0.00096
3095.03902	0.00064
3093.11065	0.00047
3091.18227	0.00074
3089.25390	0.00105
3087.32553	0.00091
3085.39715	0.00076
3083.46878	0.00086
3081.54041	0.00062
3079.61203	0.00033
3077.68366	0.00047
3075.75529	0.00103
3073.82691	0.00125
3071.89854	0.00082
3069.97017	0.00075
3068.04179	0.00093
3066.11342	0.00097
3064.18505	0.00085
3062.25668	0.00057
3060.32830	0.00058
3058.39993	0.00074
3056.47156	0.00068
3054.54318	0.00040
3052.61481	0.00095
3050.68644	0.00145
3048.75806	0.00117
3046.82969	0.00049
3044.90132	0.00044
3042.97294	0.00070
3041.04457	0.00087
3039.11620	0.00076
3037.18782	0.00062
3035.25945	0.00077
3033.33108	0.00090
3031.40270	0.00066
3029.47433	0.00071
3027.54596	0.00076
3025.61758	0.00078
3023.68921	0.00083
3021.76084	0.00052
3019.83246	0.00036
3017.90409	0.00061
3015.97572	0.00082
3014.04734	0.00086
3012.11897	0.00085
3010.19060	0.00080
3008.26222	0.00044
3006.33385	0.00099
3004.40548	0.00156
3002.47711	0.00110
3000.54873	0.00041
2998.62036	0.00028
2996.69199	0.00031
2994.76361	0.00058
2992.83524	0.00077
2990.90687	0.00090
2988.97849	0.00112
2987.05012	0.00117
2985.12175	0.00136
2983.19337	0.00146
2981.26500	0.00104
2979.33663	0.00074
2977.40825	0.00088
2975.47988	0.00106
2973.55151	0.00074
2971.62313	0.00034
2969.69476	0.00059
2967.76639	0.00114
2965.83801	0.00126
2963.90964	0.00124
2961.98127	0.00128
2960.05289	0.00111
2958.12452	0.00097
2956.19615	0.00167
2954.26777	0.00210
2952.33940	0.00175
2950.41103	0.00161
2948.48266	0.00140
2946.55428	0.00137
2944.62591	0.00145
2942.69754	0.00101
2940.76916	0.00038
2938.84079	0.00059
2936.91242	0.00148
2934.98404	0.00199
2933.05567	0.00235
2931.12730	0.00257
2929.19892	0.00256
2927.27055	0.00227
2925.34218	0.00173
2923.41380	0.00145
2921.48543	0.00129
2919.55706	0.00096
2917.62868	0.00043
2915.70031	0.00058
2913.77194	0.00102
2911.84356	0.00083
2909.91519	0.00050
2907.98682	0.00062
2906.05844	0.00087
2904.13007	0.00080
2902.20170	0.00066
2900.27332	0.00094
2898.34495	0.00046
2896.41658	0.00064
2894.48820	0.00055
2892.55983	0.00024
2890.63146	0.00039
2888.70309	0.00036
2886.77471	0.00066
2884.84634	0.00110
2882.91797	0.00090
2880.98959	0.00057
2879.06122	0.00052
2877.13285	0.00048
2875.20447	0.00100
2873.27610	0.00134
2871.34773	0.00116
2869.41935	0.00084
2867.49098	0.00102
2865.56261	0.00133
2863.63423	0.00130
2861.70586	0.00120
2859.77749	0.00146
2857.84911	0.00177
2855.92074	0.00168
2853.99237	0.00152
2852.06399	0.00183
2850.13562	0.00245
2848.20725	0.00289
2846.27887	0.00267
2844.35050	0.00232
2842.42213	0.00244
2840.49375	0.00289
2838.56538	0.00315
2836.63701	0.00330
2834.70863	0.00360
2832.78026	0.00393
2830.85189	0.00408
2828.92352	0.00388
2826.99514	0.00367
2825.06677	0.00364
2823.13840	0.00342
2821.21002	0.00318
2819.28165	0.00339
2817.35328	0.00367
2815.42490	0.00366
2813.49653	0.00373
2811.56816	0.00388
2809.63978	0.00381
2807.71141	0.00373
2805.78304	0.00400
2803.85466	0.00442
2801.92629	0.00466
2799.99792	0.00477
2798.06954	0.00487
2796.14117	0.00489
2794.21280	0.00489
2792.28442	0.00513
2790.35605	0.00557
2788.42768	0.00582
2786.49930	0.00573
2784.57093	0.00539
2782.64256	0.00533
2780.71418	0.00585
2778.78581	0.00631
2776.85744	0.00613
2774.92907	0.00579
2773.00069	0.00600
2771.07232	0.00655
2769.14395	0.00679
2767.21557	0.00682
2765.28720	0.00692
2763.35883	0.00695
2761.43045	0.00704
2759.50208	0.00737
2757.57371	0.00768
2755.64533	0.00794
2753.71696	0.00835
2751.78859	0.00868
2749.86021	0.00869
2747.93184	0.00859
2746.00347	0.00881
2744.07509	0.00943
2742.14672	0.00991
2740.21835	0.00998
2738.28997	0.01014
2736.36160	0.01079
2734.43323	0.01149
2732.50485	0.01178
2730.57648	0.01178
2728.64811	0.01190
2726.71973	0.01216
2724.79136	0.01241
2722.86299	0.01272
2720.93461	0.01319
2719.00624	0.01361
2717.07787	0.01379
2715.14950	0.01402
2713.22112	0.01441
2711.29275	0.01466
2709.36438	0.01478
2707.43600	0.01513
2705.50763	0.01562
2703.57926	0.01585
2701.65088	0.01590
2699.72251	0.01591
2697.79414	0.01589
2695.86576	0.01614
2693.93739	0.01672
2692.00902	0.01715
2690.08064	0.01723
2688.15227	0.01713
2686.22390	0.01716
2684.29552	0.01736
2682.36715	0.01746
2680.43878	0.01760
2678.51040	0.01809
2676.58203	0.01873
2674.65366	0.01922
2672.72528	0.01958
2670.79691	0.01990
2668.86854	0.02021
2666.94016	0.02053
2665.01179	0.02092
2663.08342	0.02129
2661.15505	0.02158
2659.22667	0.02191
2657.29830	0.02230
2655.36993	0.02258
2653.44155	0.02291
2651.51318	0.02350
2649.58481	0.02408
2647.65643	0.02459
2645.72806	0.02508
2643.79969	0.02526
2641.87131	0.02525
2639.94294	0.02555
2638.01457	0.02611
2636.08619	0.02681
2634.15782	0.02749
2632.22945	0.02791
2630.30107	0.02818
2628.37270	0.02858
2626.44433	0.02917
2624.51595	0.02985
2622.58758	0.03054
2620.65921	0.03122
2618.73083	0.03183
2616.80246	0.03241
2614.87409	0.03307
2612.94571	0.03363
2611.01734	0.03404
2609.08897	0.03482
2607.16059	0.03578
2605.23222	0.03635
2603.30385	0.03689
2601.37548	0.03778
2599.44710	0.03871
2597.51873	0.03942
2595.59036	0.03991
2593.66198	0.04037
2591.73361	0.04096
2589.80524	0.04168
2587.87686	0.04248
2585.94849	0.04330
2584.02012	0.04398
2582.09174	0.04449
2580.16337	0.04497
2578.23500	0.04548
2576.30662	0.04607
2574.37825	0.04676
2572.44988	0.04745
2570.52150	0.04819
2568.59313	0.04906
2566.66476	0.04999
2564.73638	0.05086
2562.80801	0.05174
2560.87964	0.05264
2558.95126	0.05345
2557.02289	0.05417
2555.09452	0.05479
2553.16614	0.05540
2551.23777	0.05605
2549.30940	0.05667
2547.38103	0.05729
2545.45265	0.05809
2543.52428	0.05911
2541.59591	0.06009
2539.66753	0.06068
2537.73916	0.06102
2535.81079	0.06145
2533.88241	0.06204
2531.95404	0.06280
2530.02567	0.06356
2528.09729	0.06415
2526.16892	0.06460
2524.24055	0.06494
2522.31217	0.06556
2520.38380	0.06662
2518.45543	0.06761
2516.52705	0.06828
2514.59868	0.06879
2512.67031	0.06924
2510.74193	0.06977
2508.81356	0.07041
2506.88519	0.07109
2504.95681	0.07198
2503.02844	0.07319
2501.10007	0.07427
2499.17169	0.07494
2497.24332	0.07547
2495.31495	0.07592
2493.38657	0.07634
2491.45820	0.07688
2489.52983	0.07745
2487.60146	0.07799
2485.67308	0.07883
2483.74471	0.07986
2481.81634	0.08065
2479.88796	0.08128
2477.95959	0.08198
2476.03122	0.08263
2474.10284	0.08326
2472.17447	0.08405
2470.24610	0.08495
2468.31772	0.08584
2466.38935	0.08674
2464.46098	0.08758
2462.53260	0.08850
2460.60423	0.08965
2458.67586	0.09072
2456.74748	0.09164
2454.81911	0.09267
2452.89074	0.09362
2450.96236	0.09432
2449.03399	0.09505
2447.10562	0.09589
2445.17724	0.09664
2443.24887	0.09748
2441.32050	0.09857
2439.39212	0.09966
2437.46375	0.10060
2435.53538	0.10156
2433.60700	0.10264
2431.67863	0.10368
2429.75026	0.10444
2427.82189	0.10514
2425.89351	0.10598
2423.96514	0.10676
2422.03677	0.10757
2420.10839	0.10858
2418.18002	0.10960
2416.25165	0.11034
2414.32327	0.11080
2412.39490	0.11135
2410.46653	0.11225
2408.53815	0.11327
2406.60978	0.11424
2404.68141	0.11528
2402.75303	0.11640
2400.82466	0.11751
2398.89629	0.11859
2396.96791	0.11964
2395.03954	0.12066
2393.11117	0.12153
2391.18279	0.12232
2389.25442	0.12332
2387.32605	0.12459
2385.39767	0.12596
2383.46930	0.12717
2381.54093	0.12822
2379.61255	0.12937
2377.68418	0.13065
2375.75581	0.13197
2373.82744	0.13362
2371.89906	0.13549
2369.97069	0.13711
2368.04232	0.13879
2366.11394	0.14081
2364.18557	0.14226
2362.25720	0.14331
2360.32882	0.14575
2358.40045	0.14893
2356.47208	0.15014
2354.54370	0.14898
2352.61533	0.14736
2350.68696	0.14662
2348.75858	0.14672
2346.83021	0.14714
2344.90184	0.14754
2342.97346	0.14807
2341.04509	0.14892
2339.11672	0.14977
2337.18834	0.15036
2335.25997	0.15060
2333.33160	0.15084
2331.40322	0.15142
2329.47485	0.15211
2327.54648	0.15266
2325.61810	0.15299
2323.68973	0.15326
2321.76136	0.15358
2319.83298	0.15362
2317.90461	0.15323
2315.97624	0.15290
2314.04787	0.15309
2312.11949	0.15384
2310.19112	0.15501
2308.26275	0.15619
2306.33437	0.15703
2304.40600	0.15772
2302.47763	0.15843
2300.54925	0.15917
2298.62088	0.15997
2296.69251	0.16059
2294.76413	0.16096
2292.83576	0.16144
2290.90739	0.16216
2288.97901	0.16294
2287.05064	0.16340
2285.12227	0.16369
2283.19389	0.16420
2281.26552	0.16482
2279.33715	0.16548
2277.40877	0.16614
2275.48040	0.16652
2273.55203	0.16671
2271.62365	0.16701
2269.69528	0.16748
2267.76691	0.16807
2265.83853	0.16863
2263.91016	0.16927
2261.98179	0.16993
2260.05342	0.17024
2258.12504	0.17027
2256.19667	0.17045
2254.26830	0.17083
2252.33992	0.17127
2250.41155	0.17192
2248.48318	0.17269
2246.55480	0.17335
2244.62643	0.17403
2242.69806	0.17460
2240.76968	0.17485
2238.84131	0.17513
2236.91294	0.17569
2234.98456	0.17624
2233.05619	0.17672
2231.12782	0.17731
2229.19944	0.17795
2227.27107	0.17849
2225.34270	0.17877
2223.41432	0.17884
2221.48595	0.17901
2219.55758	0.17937
2217.62920	0.17970
2215.70083	0.18002
2213.77246	0.18048
2211.84408	0.18087
2209.91571	0.18098
2207.98734	0.18101
2206.05896	0.18113
2204.13059	0.18134
2202.20222	0.18167
2200.27385	0.18206
2198.34547	0.18247
2196.41710	0.18285
2194.48873	0.18302
2192.56035	0.18286
2190.63198	0.18265
2188.70361	0.18265
2186.77523	0.18276
2184.84686	0.18286
2182.91849	0.18306
2180.99011	0.18336
2179.06174	0.18354
2177.13337	0.18358
2175.20499	0.18367
2173.27662	0.18378
2171.34825	0.18384
2169.41987	0.18408
2167.49150	0.18450
2165.56313	0.18483
2163.63475	0.18506
2161.70638	0.18529
2159.77801	0.18548
2157.84963	0.18553
2155.92126	0.18547
2153.99289	0.18551
2152.06451	0.18589
2150.13614	0.18641
2148.20777	0.18681
2146.27940	0.18723
2144.35102	0.18765
2142.42265	0.18789
2140.49428	0.18809
2138.56590	0.18838
2136.63753	0.18858
2134.70916	0.18876
2132.78078	0.18923
2130.85241	0.18992
2128.92404	0.19045
2126.99566	0.19073
2125.06729	0.19099
2123.13892	0.19135
2121.21054	0.19185
2119.28217	0.19250
2117.35380	0.19322
2115.42542	0.19386
2113.49705	0.19432
2111.56868	0.19472
2109.64030	0.19522
2107.71193	0.19566
2105.78356	0.19584
2103.85518	0.19590
2101.92681	0.19614
2099.99844	0.19667
2098.07006	0.19729
2096.14169	0.19761
2094.21332	0.19772
2092.28494	0.19812
2090.35657	0.19881
2088.42820	0.19927
2086.49983	0.19942
2084.57145	0.19954
2082.64308	0.19974
2080.71471	0.19989
2078.78633	0.19987
2076.85796	0.19980
2074.92959	0.19992
2073.00121	0.20012
2071.07284	0.20021
2069.14447	0.20021
2067.21609	0.20028
2065.28772	0.20041
2063.35935	0.20059
2061.43097	0.20074
2059.50260	0.20086
2057.57423	0.20116
2055.64585	0.20169
2053.71748	0.20231
2051.78911	0.20299
2049.86073	0.20370
2047.93236	0.20424
2046.00399	0.20447
2044.07561	0.20461
2042.14724	0.20507
2040.21887	0.20577
2038.29049	0.20625
2036.36212	0.20636
2034.43375	0.20643
2032.50538	0.20668
2030.57700	0.20693
2028.64863	0.20711
2026.72026	0.20736
2024.79188	0.20772
2022.86351	0.20812
2020.93514	0.20848
2019.00676	0.20881
2017.07839	0.20913
2015.15002	0.20940
2013.22164	0.20969
2011.29327	0.21001
2009.36490	0.21043
2007.43652	0.21095
2005.50815	0.21140
2003.57978	0.21189
2001.65140	0.21240
1999.72303	0.21266
1997.79466	0.21290
1995.86628	0.21351
1993.93791	0.21431
1992.00954	0.21501
1990.08116	0.21553
1988.15279	0.21581
1986.22442	0.21590
1984.29604	0.21602
1982.36767	0.21614
1980.43930	0.21618
1978.51092	0.21634
1976.58255	0.21663
1974.65418	0.21684
1972.72581	0.21696
1970.79743	0.21728
1968.86906	0.21790
1966.94069	0.21834
1965.01231	0.21836
1963.08394	0.21842
1961.15557	0.21865
1959.22719	0.21888
1957.29882	0.21925
1955.37045	0.21972
1953.44207	0.21994
1951.51370	0.22003
1949.58533	0.22045
1947.65695	0.22117
1945.72858	0.22185
1943.80021	0.22234
1941.87183	0.22256
1939.94346	0.22252
1938.01509	0.22260
1936.08671	0.22292
1934.15834	0.22330
1932.22997	0.22363
1930.30159	0.22395
1928.37322	0.22435
1926.44485	0.22485
1924.51647	0.22548
1922.58810	0.22607
1920.65973	0.22640
1918.73135	0.22659
1916.80298	0.22644
1914.87461	0.22602
1912.94624	0.22593
1911.01786	0.22627
1909.08949	0.22649
1907.16112	0.22618
1905.23274	0.22559
1903.30437	0.22509
1901.37600	0.22473
1899.44762	0.22442
1897.51925	0.22417
1895.59088	0.22384
1893.66250	0.22336
1891.73413	0.22307
1889.80576	0.22288
1887.87738	0.22230
1885.94901	0.22174
1884.02064	0.22148
1882.09226	0.22114
1880.16389	0.22076
1878.23552	0.22036
1876.30714	0.21979
1874.37877	0.21932
1872.45040	0.21936
1870.52202	0.21986
1868.59365	0.21993
1866.66528	0.21891
1864.73690	0.21763
1862.80853	0.21686
1860.88016	0.21649
1858.95179	0.21621
1857.02341	0.21588
1855.09504	0.21545
1853.16667	0.21481
1851.23829	0.21408
1849.30992	0.21364
1847.38155	0.21359
1845.45317	0.21351
1843.52480	0.21282
1841.59643	0.21151
1839.66805	0.21033
1837.73968	0.20959
1835.81131	0.20906
1833.88293	0.20847
1831.95456	0.20794
1830.02619	0.20740
1828.09781	0.20651
1826.16944	0.20530
1824.24107	0.20356
1822.31269	0.20159
1820.38432	0.20002
1818.45595	0.19860
1816.52757	0.19686
1814.59920	0.19492
1812.67083	0.19304
1810.74245	0.19070
1808.81408	0.18767
1806.88571	0.18454
1804.95733	0.18162
1803.02896	0.17868
1801.10059	0.17515
1799.17222	0.17084
1797.24384	0.16646
1795.31547	0.16259
1793.38710	0.15844
1791.45872	0.15284
1789.53035	0.14706
1787.60198	0.14236
1785.67360	0.13807
1783.74523	0.13366
1781.81686	0.12926
1779.88848	0.12493
1777.96011	0.12102
1776.03174	0.11763
1774.10336	0.11413
1772.17499	0.10961
1770.24662	0.10447
1768.31824	0.09957
1766.38987	0.09467
1764.46150	0.08988
1762.53312	0.08458
1760.60475	0.07841
1758.67638	0.07208
1756.74800	0.06495
1754.81963	0.05764
1752.89126	0.05064
1750.96288	0.04244
1749.03451	0.03343
1747.10614	0.02597
1745.17777	0.01995
1743.24939	0.01468
1741.32102	0.01010
1739.39265	0.00639
1737.46427	0.00416
1735.53590	0.00276
1733.60753	0.00136
1731.67915	0.00063
1729.75078	0.00061
1727.82241	0.00037
1725.89403	0.00064
1723.96566	0.00050
1722.03729	0.00074
1720.10891	0.00109
1718.18054	0.00138
1716.25217	0.00157
1714.32379	0.00105
1712.39542	0.00043
1710.46705	0.00052
1708.53867	0.00067
1706.61030	0.00099
1704.68193	0.00133
1702.75355	0.00107
1700.82518	0.00050
1698.89681	0.00116
1696.96843	0.00137
1695.04006	0.00068
1693.11169	0.00035
1691.18331	0.00060
1689.25494	0.00083
1687.32657	0.00094
1685.39820	0.00121
1683.46982	0.00104
1681.54145	0.00042
1679.61308	0.00042
1677.68470	0.00030
1675.75633	0.00019
1673.82796	0.00051
1671.89958	0.00072
1669.97121	0.00060
1668.04284	0.00058
1666.11446	0.00069
1664.18609	0.00081
1662.25772	0.00056
1660.32934	0.00057
1658.40097	0.00061
1656.47260	0.00096
1654.54422	0.00151
1652.61585	0.00182
1650.68748	0.00116
1648.75910	0.00091
1646.83073	0.00113
1644.90236	0.00106
1642.97398	0.00082
1641.04561	0.00073
1639.11724	0.00092
1637.18886	0.00150
1635.26049	0.00160
1633.33212	0.00113
1631.40375	0.00063
1629.47537	0.00033
1627.54700	0.00039
1625.61863	0.00039
1623.69025	0.00059
1621.76188	0.00072
1619.83351	0.00071
1617.90513	0.00064
1615.97676	0.00054
1614.04839	0.00051
1612.12001	0.00086
1610.19164	0.00095
1608.26327	0.00069
1606.33489	0.00030
1604.40652	0.00054
1602.47815	0.00081
1600.54977	0.00068
1598.62140	0.00046
1596.69303	0.00039
1594.76465	0.00023
1592.83628	0.00035
1590.90791	0.00064
1588.97953	0.00083
1587.05116	0.00084
1585.12279	0.00086
1583.19441	0.00080
1581.26604	0.00071
1579.33767	0.00084
1577.40929	0.00090
1575.48092	0.00061
1573.55255	0.00025
1571.62418	0.00056
1569.69580	0.00069
1567.76743	0.00058
1565.83906	0.00074
1563.91068	0.00099
1561.98231	0.00098
1560.05394	0.00098
1558.12556	0.00109
1556.19719	0.00112
1554.26882	0.00068
1552.34044	0.00032
1550.41207	0.00057
1548.48370	0.00083
1546.55532	0.00105
1544.62695	0.00125
1542.69858	0.00087
1540.77020	0.00102
1538.84183	0.00086
1536.91346	0.00080
1534.98508	0.00091
1533.05671	0.00078
1531.12834	0.00027
1529.19996	0.00038
1527.27159	0.00071
1525.34322	0.00088
1523.41484	0.00094
1521.48647	0.00110
1519.55810	0.00105
1517.62972	0.00081
1515.70135	0.00067
1513.77298	0.00062
1511.84461	0.00041
1509.91623	0.00027
1507.98786	0.00064
1506.05949	0.00086
1504.13111	0.00083
1502.20274	0.00110
1500.27437	0.00121
1498.34599	0.00083
1496.41762	0.00032
1494.48925	0.00077
1492.56087	0.00076
1490.63250	0.00091
1488.70413	0.00099
1486.77575	0.00092
1484.84738	0.00077
1482.91901	0.00098
1480.99063	0.00121
1479.06226	0.00115
1477.13389	0.00090
1475.20551	0.00076
1473.27714	0.00077
1471.34877	0.00087
1469.42039	0.00083
1467.49202	0.00075
1465.56365	0.00080
1463.63527	0.00111
1461.70690	0.00110
1459.77853	0.00106
1457.85016	0.00118
1455.92178	0.00102
1453.99341	0.00095
1452.06504	0.00075
1450.13666	0.00065
1448.20829	0.00085
1446.27992	0.00087
1444.35154	0.00077
1442.42317	0.00067
1440.49480	0.00072
1438.56642	0.00109
1436.63805	0.00098
1434.70968	0.00028
1432.78130	0.00049
1430.85293	0.00058
1428.92456	0.00037
1426.99618	0.00042
1425.06781	0.00061
1423.13944	0.00064
1421.21106	0.00057
1419.28269	0.00071
1417.35432	0.00084
1415.42594	0.00065
1413.49757	0.00041
1411.56920	0.00043
1409.64082	0.00041
1407.71245	0.00033
1405.78408	0.00097
1403.85570	0.00129
1401.92733	0.00115
1399.99896	0.00088
1398.07059	0.00047
1396.14221	0.00038
1394.21384	0.00039
1392.28547	0.00018
1390.35709	0.00075
1388.42872	0.00113
1386.50035	0.00095
1384.57197	0.00062
1382.64360	0.00061
1380.71523	0.00070
1378.78685	0.00062
1376.85848	0.00094
1374.93011	0.00157
1373.00173	0.00151
1371.07336	0.00111
1369.14499	0.00090
1367.21661	0.00077
1365.28824	0.00073
1363.35987	0.00051
1361.43149	0.00051
1359.50312	0.00115
1357.57475	0.00147
1355.64637	0.00108
1353.71800	0.00052
1351.78963	0.00038
1349.86125	0.00051
1347.93288	0.00067
1346.00451	0.00096
1344.07614	0.00106
1342.14776	0.00098
1340.21939	0.00086
1338.29102	0.00083
1336.36264	0.00092
1334.43427	0.00097
1332.50590	0.00070
1330.57752	0.00024
1328.64915	0.00081
1326.72078	0.00104
1324.79240	0.00072
1322.86403	0.00034
1320.93566	0.00023
1319.00728	0.00065
1317.07891	0.00070
1315.15054	0.00091
1313.22216	0.00090
1311.29379	0.00090
1309.36542	0.00108
1307.43704	0.00087
1305.50867	0.00061
1303.58030	0.00046
1301.65192	0.00063
1299.72355	0.00117
1297.79518	0.00158
1295.86680	0.00151
1293.93843	0.00102
1292.01006	0.00078
1290.08168	0.00074
1288.15331	0.00085
1286.22494	0.00076
1284.29657	0.00062
1282.36819	0.00061
1280.43982	0.00082
1278.51145	0.00104
1276.58307	0.00093
1274.65470	0.00085
1272.72633	0.00136
1270.79795	0.00174
1268.86958	0.00149
1266.94121	0.00133
1265.01283	0.00175
1263.08446	0.00176
1261.15609	0.00149
1259.22771	0.00105
1257.29934	0.00069
1255.37097	0.00106
1253.44259	0.00126
1251.51422	0.00137
1249.58585	0.00132
1247.65747	0.00092
1245.72910	0.00055
1243.80073	0.00084
1241.87235	0.00161
1239.94398	0.00215
1238.01561	0.00191
1236.08723	0.00135
1234.15886	0.00127
1232.23049	0.00136
1230.30212	0.00146
1228.37374	0.00153
1226.44537	0.00147
1224.51700	0.00155
1222.58862	0.00103
1220.66025	0.00069
1218.73188	0.00092
1216.80350	0.00162
1214.87513	0.00248
1212.94676	0.00358
1211.01838	0.00424
1209.09001	0.00343
1207.16164	0.00229
1205.23326	0.00217
1203.30489	0.00274
1201.37652	0.00289
1199.44814	0.00273
1197.51977	0.00265
1195.59140	0.00256
1193.66302	0.00316
1191.73465	0.00431
1189.80628	0.00490
1187.87790	0.00483
1185.94953	0.00439
1184.02116	0.00420
1182.09278	0.00423
1180.16441	0.00451
1178.23604	0.00459
1176.30766	0.00401
1174.37929	0.00308
1172.45092	0.00198
1170.52255	0.00198
1168.59417	0.00160
1166.66580	0.00102
1164.73743	0.00092
1162.80905	0.00134
1160.88068	0.00173
1158.95231	0.00145
1157.02393	0.00104
1155.09556	0.00094
1153.16719	0.00073
1151.23881	0.00091
1149.31044	0.00186
1147.38207	0.00269
1145.45369	0.00278
1143.52532	0.00342
1141.59695	0.00418
1139.66857	0.00397
1137.74020	0.00341
1135.81183	0.00316
1133.88345	0.00257
1131.95508	0.00159
1130.02671	0.00151
1128.09833	0.00153
1126.16996	0.00109
1124.24159	0.00140
1122.31321	0.00096
1120.38484	0.00166
1118.45647	0.00204
1116.52809	0.00118
1114.59972	0.00077
1112.67135	0.00100
1110.74298	0.00136
1108.81460	0.00150
1106.88623	0.00112
1104.95786	0.00094
1103.02948	0.00077
1101.10111	0.00061
1099.17274	0.00070
1097.24436	0.00132
1095.31599	0.00150
1093.38762	0.00128
1091.45924	0.00153
1089.53087	0.00152
1087.60250	0.00110
1085.67412	0.00078
1083.74575	0.00135
1081.81738	0.00180
1079.88900	0.00223
1077.96063	0.00220
1076.03226	0.00144
1074.10388	0.00078
1072.17551	0.00058
1070.24714	0.00044
1068.31876	0.00138
1066.39039	0.00197
1064.46202	0.00179
1062.53364	0.00157
1060.60527	0.00148
1058.67690	0.00152
1056.74853	0.00160
1054.82015	0.00116
1052.89178	0.00083
1050.96341	0.00089
1049.03503	0.00099
1047.10666	0.00142
1045.17829	0.00156
1043.24991	0.00103
1041.32154	0.00036
1039.39317	0.00053
1037.46479	0.00105
1035.53642	0.00128
1033.60805	0.00163
1031.67967	0.00151
1029.75130	0.00137
1027.82293	0.00085
1025.89455	0.00097
1023.96618	0.00127
1022.03781	0.00178
1020.10943	0.00177
1018.18106	0.00100
1016.25269	0.00094
1014.32431	0.00075
1012.39594	0.00065
1010.46757	0.00141
1008.53919	0.00123
1006.61082	0.00138
1004.68245	0.00236
1002.75407	0.00358
1000.82570	0.00404
998.89733	0.00448
996.96896	0.00555
995.04058	0.00646
993.11221	0.00669
991.18384	0.00712
989.25546	0.00810
987.32709	0.00884
985.39872	0.00888
983.47034	0.00886
981.54197	0.00917
979.61360	0.00934
977.68522	0.00909
975.75685	0.00887
973.82848	0.00958
971.90010	0.01155
969.97173	0.01426
968.04336	0.01703
966.11498	0.01927
964.18661	0.02023
962.25824	0.01952
960.32986	0.01720
958.40149	0.01373
956.47312	0.01056
954.54474	0.00924
952.61637	0.01018
950.68800	0.01286
948.75962	0.01569
946.83125	0.01810
944.90288	0.02058
942.97451	0.02308
941.04613	0.02567
939.11776	0.02837
937.18939	0.03046
935.26101	0.03175
933.33264	0.03260
931.40427	0.03280
929.47589	0.03244
927.54752	0.03217
925.61915	0.03210
923.69077	0.03219
921.76240	0.03233
919.83403	0.03243
917.90565	0.03293
915.97728	0.03360
914.04891	0.03320
912.12053	0.03139
910.19216	0.02931
908.26379	0.02772
906.33541	0.02588
904.40704	0.02311
902.47867	0.02030
900.55029	0.01852
898.62192	0.01746
896.69355	0.01671
894.76517	0.01630
892.83680	0.01588
890.90843	0.01525
888.98005	0.01499
887.05168	0.01569
885.12331	0.01713
883.19494	0.01862
881.26656	0.01921
879.33819	0.01911
877.40982	0.01898
875.48144	0.01864
873.55307	0.01882
871.62470	0.01994
869.69632	0.02050
867.76795	0.02007
865.83958	0.01968
863.91120	0.01959
861.98283	0.01903
860.05446	0.01824
858.12608	0.01765
856.19771	0.01718
854.26934	0.01692
852.34096	0.01734
850.41259	0.01795
848.48422	0.01798
846.55584	0.01771
844.62747	0.01700
842.69910	0.01596
840.77072	0.01520
838.84235	0.01427
836.91398	0.01296
834.98560	0.01167
833.05723	0.01097
831.12886	0.01139
829.20049	0.01158
827.27211	0.01105
825.34374	0.01089
823.41537	0.01055
821.48699	0.00999
819.55862	0.00960
817.63025	0.00907
815.70187	0.00875
813.77350	0.00920
811.84513	0.00925
809.91675	0.00871
807.98838	0.00855
806.06001	0.00837
804.13163	0.00805
802.20326	0.00801
800.27489	0.00780
798.34651	0.00716
796.41814	0.00606
794.48977	0.00464
792.56139	0.00388
790.63302	0.00398
788.70465	0.00390
786.77627	0.00372
784.84790	0.00370
782.91953	0.00333
780.99115	0.00376
779.06278	0.00472
777.13441	0.00452
775.20603	0.00291
773.27766	0.00151
771.34929	0.00195
769.42092	0.00301
767.49254	0.00337
765.56417	0.00291
763.63580	0.00225
761.70742	0.00174
759.77905	0.00256
757.85068	0.00224
755.92230	0.00225
753.99393	0.00234
752.06556	0.00210
750.13718	0.00211
748.20881	0.00163
746.28044	0.00275
744.35206	0.00305
742.42369	0.00288
740.49532	0.00259
738.56694	0.00245
736.63857	0.00294
734.71020	0.00340
732.78182	0.00363
730.85345	0.00301
728.92508	0.00253
726.99670	0.00209
725.06833	0.00466
723.13996	0.00566
721.21158	0.00344
719.28321	0.00131
717.35484	0.00159
715.42647	0.00209
713.49809	0.00184
711.56972	0.00114
709.64135	0.00266
707.71297	0.00303
705.78460	0.00221
703.85623	0.00170
701.92785	0.00071
699.99948	0.00150
698.07111	0.00189
696.14273	0.00266
694.21436	0.00353
692.28599	0.00382
690.35761	0.00491
688.42924	0.00599
686.50087	0.00554
684.57249	0.00425
682.64412	0.00336
680.71575	0.00325
678.78737	0.00267
676.85900	0.00288
674.93063	0.00433
673.00225	0.00337
671.07388	0.00250
669.14551	0.00202
667.21713	0.00080
665.28876	0.00365
663.36039	0.00546
661.43201	0.00466
659.50364	0.00364
657.57527	0.00468
655.64690	0.00446
653.71852	0.00317
651.79015	0.00284
649.86178	0.00311
647.93340	0.00154
646.00503	0.00339
644.07666	0.00628
642.14828	0.00660
640.21991	0.00549
638.29154	0.00540
636.36316	0.00628
634.43479	0.00563
632.50642	0.00484
630.57804	0.00449
628.64967	0.00494
626.72130	0.00426
624.79292	0.00336
622.86455	0.00454
620.93618	0.00552
619.00780	0.00533
617.07943	0.00474
615.15106	0.00533
613.22268	0.00638
611.29431	0.00400
609.36594	0.00437
607.43756	0.01045
605.50919	0.01290
603.58082	0.01142
601.65244	0.01648
599.72407	0.01462
