3997.51769	0.49887
3995.58931	0.49947
3993.66094	0.50032
3991.73257	0.50089
3989.80419	0.50103
3987.87582	0.50107
3985.94745	0.50173
3984.01907	0.50271
3982.09070	0.50321
3980.16233	0.50344
3978.23396	0.50384
3976.30558	0.50426
3974.37721	0.50432
3972.44884	0.50398
3970.52046	0.50376
3968.59209	0.50409
3966.66372	0.50505
3964.73534	0.50648
3962.80697	0.50799
3960.87860	0.50894
3958.95022	0.50938
3957.02185	0.51033
3955.09348	0.51205
3953.16510	0.51380
3951.23673	0.51494
3949.30836	0.51496
3947.37998	0.51411
3945.45161	0.51377
3943.52324	0.51445
3941.59486	0.51535
3939.66649	0.51594
3937.73812	0.51650
3935.80974	0.51742
3933.88137	0.51892
3931.95300	0.52045
3930.02462	0.52100
3928.09625	0.52145
3926.16788	0.52311
3924.23950	0.52467
3922.31113	0.52495
3920.38276	0.52543
3918.45439	0.52663
3916.52601	0.52742
3914.59764	0.52769
3912.66927	0.52795
3910.74089	0.52832
3908.81252	0.52943
3906.88415	0.53232
3904.95577	0.53654
3903.02740	0.53974
3901.09903	0.54047
3899.17065	0.53911
3897.24228	0.53719
3895.31391	0.53694
3893.38553	0.53895
3891.45716	0.54094
3889.52879	0.54091
3887.60041	0.54134
3885.67204	0.54348
3883.74367	0.54538
3881.81529	0.54658
3879.88692	0.54666
3877.95855	0.54559
3876.03017	0.54598
3874.10180	0.54817
3872.17343	0.55093
3870.24505	0.55342
3868.31668	0.55375
3866.38831	0.55376
3864.45994	0.55560
3862.53156	0.55630
3860.60319	0.55476
3858.67482	0.55382
3856.74644	0.55512
3854.81807	0.55954
3852.88970	0.56343
3850.96132	0.56059
3849.03295	0.55684
3847.10458	0.55560
3845.17620	0.55661
3843.24783	0.55906
3841.31946	0.56195
3839.39108	0.56414
3837.46271	0.56435
3835.53434	0.56302
3833.60596	0.56165
3831.67759	0.56009
3829.74922	0.55895
3827.82084	0.55949
3825.89247	0.56093
3823.96410	0.56316
3822.03572	0.56722
3820.10735	0.56922
3818.17898	0.56722
3816.25060	0.56471
3814.32223	0.56173
3812.39386	0.55958
3810.46548	0.56022
3808.53711	0.56330
3806.60874	0.56588
3804.68037	0.56637
3802.75199	0.56720
3800.82362	0.56702
3798.89525	0.56493
3796.96687	0.56378
3795.03850	0.56248
3793.11013	0.56066
3791.18175	0.55984
3789.25338	0.55997
3787.32501	0.56064
3785.39663	0.56150
3783.46826	0.56191
3781.53989	0.56242
3779.61151	0.56298
3777.68314	0.56174
3775.75477	0.55963
3773.82639	0.55917
3771.89802	0.56069
3769.96965	0.56245
3768.04127	0.56251
3766.11290	0.56164
3764.18453	0.56068
3762.25615	0.56041
3760.32778	0.56145
3758.39941	0.56186
3756.47103	0.56081
3754.54266	0.56110
3752.61429	0.56467
3750.68591	0.56825
3748.75754	0.56709
3746.82917	0.56524
3744.90080	0.56347
3742.97242	0.55941
3741.04405	0.55626
3739.11568	0.55652
3737.18730	0.55979
3735.25893	0.56225
3733.33056	0.55904
3731.40218	0.55321
3729.47381	0.54973
3727.54544	0.54847
3725.61706	0.54728
3723.68869	0.54508
3721.76032	0.54233
3719.83194	0.53901
3717.90357	0.53555
3715.97520	0.53345
3714.04682	0.53329
3712.11845	0.53381
3710.19008	0.53099
3708.26170	0.52443
3706.33333	0.51829
3704.40496	0.51472
3702.47658	0.51276
3700.54821	0.50891
3698.61984	0.50278
3696.69146	0.49621
3694.76309	0.49047
3692.83472	0.48675
3690.90635	0.48326
3688.97797	0.47464
3687.04960	0.46084
3685.12123	0.44824
3683.19285	0.43787
3681.26448	0.42840
3679.33611	0.41950
3677.40773	0.41040
3675.47936	0.39639
3673.55099	0.37974
3671.62261	0.36666
3669.69424	0.35069
3667.76587	0.33234
3665.83749	0.31732
3663.90912	0.30315
3661.98075	0.28870
3660.05237	0.27518
3658.12400	0.26218
3656.19563	0.24732
3654.26725	0.23323
3652.33888	0.22259
3650.41051	0.21115
3648.48213	0.19530
3646.55376	0.17955
3644.62539	0.16726
3642.69701	0.15650
3640.76864	0.14597
3638.84027	0.13593
3636.91189	0.12636
3634.98352	0.11694
3633.05515	0.10841
3631.12678	0.10144
3629.19840	0.09369
3627.27003	0.08461
3625.34166	0.07754
3623.41328	0.07199
3621.48491	0.06689
3619.55654	0.06135
3617.62816	0.05565
3615.69979	0.05082
3613.77142	0.04675
3611.84304	0.04350
3609.91467	0.04038
3607.98630	0.03640
3606.05792	0.03242
3604.12955	0.02970
3602.20118	0.02789
3600.27280	0.02613
3598.34443	0.02396
3596.41606	0.02173
3594.48768	0.01958
3592.55931	0.01753
3590.63094	0.01606
3588.70256	0.01491
3586.77419	0.01351
3584.84582	0.01177
3582.91744	0.01005
3580.98907	0.00851
3579.06070	0.00750
3577.13233	0.00703
3575.20395	0.00651
3573.27558	0.00595
3571.34721	0.00536
3569.41883	0.00471
3567.49046	0.00443
3565.56209	0.00410
3563.63371	0.00327
3561.70534	0.00257
3559.77697	0.00219
3557.84859	0.00178
3555.92022	0.00158
3553.99185	0.00185
3552.06347	0.00165
3550.13510	0.00103
3548.20673	0.00079
3546.27835	0.00082
3544.34998	0.00053
3542.42161	0.00048
3540.49323	0.00084
3538.56486	0.00098
3536.63649	0.00075
3534.70811	0.00048
3532.77974	0.00031
3530.85137	0.00048
3528.92299	0.00058
3526.99462	0.00069
3525.06625	0.00068
3523.13787	0.00068
3521.20950	0.00085
3519.28113	0.00132
3517.35276	0.00108
3515.42438	0.00057
3513.49601	0.00100
3511.56764	0.00125
3509.63926	0.00131
3507.71089	0.00107
3505.78252	0.00103
3503.85414	0.00086
3501.92577	0.00102
3499.99740	0.00127
3498.06902	0.00113
3496.14065	0.00063
3494.21228	0.00082
3492.28390	0.00121
3490.35553	0.00120
3488.42716	0.00105
3486.49878	0.00078
3484.57041	0.00084
3482.64204	0.00084
3480.71366	0.00076
3478.78529	0.00063
3476.85692	0.00066
3474.92854	0.00049
3473.00017	0.00070
3471.07180	0.00128
3469.14342	0.00142
3467.21505	0.00094
3465.28668	0.00040
3463.35831	0.00062
3461.42993	0.00084
3459.50156	0.00070
3457.57319	0.00086
3455.64481	0.00150
3453.71644	0.00169
3451.78807	0.00130
3449.85969	0.00071
3447.93132	0.00041
3446.00295	0.00072
3444.07457	0.00103
3442.14620	0.00151
3440.21783	0.00166
3438.28945	0.00111
3436.36108	0.00092
3434.43271	0.00080
3432.50433	0.00074
3430.57596	0.00070
3428.64759	0.00060
3426.71921	0.00058
3424.79084	0.00050
3422.86247	0.00068
3420.93409	0.00140
3419.00572	0.00126
3417.07735	0.00071
3415.14897	0.00070
3413.22060	0.00120
3411.29223	0.00124
3409.36385	0.00045
3407.43548	0.00055
3405.50711	0.00063
3403.57874	0.00097
3401.65036	0.00098
3399.72199	0.00048
3397.79362	0.00071
3395.86524	0.00105
3393.93687	0.00096
3392.00850	0.00106
3390.08012	0.00143
3388.15175	0.00112
3386.22338	0.00070
3384.29500	0.00075
3382.36663	0.00067
3380.43826	0.00058
3378.50988	0.00060
3376.58151	0.00080
3374.65314	0.00100
3372.72476	0.00060
3370.79639	0.00078
3368.86802	0.00058
3366.93964	0.00078
3365.01127	0.00093
3363.08290	0.00092
3361.15452	0.00095
3359.22615	0.00108
3357.29778	0.00128
3355.36940	0.00129
3353.44103	0.00117
3351.51266	0.00082
3349.58428	0.00063
3347.65591	0.00065
3345.72754	0.00063
3343.79917	0.00084
3341.87079	0.00097
3339.94242	0.00080
3338.01405	0.00083
3336.08567	0.00108
3334.15730	0.00108
3332.22893	0.00062
3330.30055	0.00052
3328.37218	0.00095
3326.44381	0.00099
3324.51543	0.00083
3322.58706	0.00101
3320.65869	0.00123
3318.73031	0.00107
3316.80194	0.00091
3314.87357	0.00105
3312.94519	0.00105
3311.01682	0.00092
3309.08845	0.00084
3307.16007	0.00078
3305.23170	0.00051
3303.30333	0.00063
3301.37495	0.00096
3299.44658	0.00129
3297.51821	0.00119
3295.58983	0.00084
3293.66146	0.00060
3291.73309	0.00066
3289.80472	0.00073
3287.87634	0.00064
3285.94797	0.00062
3284.01960	0.00080
3282.09122	0.00087
3280.16285	0.00097
3278.23448	0.00067
3276.30610	0.00037
3274.37773	0.00044
3272.44936	0.00051
3270.52098	0.00073
3268.59261	0.00090
3266.66424	0.00077
3264.73586	0.00088
3262.80749	0.00097
3260.87912	0.00075
3258.95074	0.00048
3257.02237	0.00053
3255.09400	0.00096
3253.16562	0.00092
3251.23725	0.00093
3249.30888	0.00093
3247.38050	0.00099
3245.45213	0.00104
3243.52376	0.00082
3241.59538	0.00111
3239.66701	0.00088
3237.73864	0.00049
3235.81026	0.00081
3233.88189	0.00121
3231.95352	0.00110
3230.02515	0.00061
3228.09677	0.00017
3226.16840	0.00024
3224.24003	0.00007
3222.31165	0.00044
3220.38328	0.00055
3218.45491	0.00052
3216.52653	0.00086
3214.59816	0.00128
3212.66979	0.00142
3210.74141	0.00098
3208.81304	0.00076
3206.88467	0.00112
3204.95629	0.00135
3203.02792	0.00131
3201.09955	0.00116
3199.17117	0.00065
3197.24280	0.00055
3195.31443	0.00076
3193.38605	0.00086
3191.45768	0.00101
3189.52931	0.00103
3187.60093	0.00105
3185.67256	0.00085
3183.74419	0.00107
3181.81581	0.00128
3179.88744	0.00083
3177.95907	0.00047
3176.03070	0.00104
3174.10232	0.00138
3172.17395	0.00120
3170.24558	0.00098
3168.31720	0.00074
3166.38883	0.00053
3164.46046	0.00070
3162.53208	0.00053
3160.60371	0.00037
3158.67534	0.00064
3156.74696	0.00069
3154.81859	0.00054
3152.89022	0.00066
3150.96184	0.00070
3149.03347	0.00060
3147.10510	0.00066
3145.17672	0.00058
3143.24835	0.00059
3141.31998	0.00048
3139.39160	0.00041
3137.46323	0.00015
3135.53486	0.00075
3133.60648	0.00108
3131.67811	0.00053
3129.74974	0.00062
3127.82136	0.00078
3125.89299	0.00093
3123.96462	0.00087
3122.03624	0.00096
3120.10787	0.00117
3118.17950	0.00097
3116.25113	0.00070
3114.32275	0.00053
3112.39438	0.00081
3110.46601	0.00086
3108.53763	0.00041
3106.60926	0.00053
3104.68089	0.00111
3102.75251	0.00133
3100.82414	0.00098
3098.89577	0.00086
3096.96739	0.00095
3095.03902	0.00055
3093.11065	0.00029
3091.18227	0.00046
3089.25390	0.00075
3087.32553	0.00062
3085.39715	0.00086
3083.46878	0.00092
3081.54041	0.00054
3079.61203	0.00019
3077.68366	0.00041
3075.75529	0.00034
3073.82691	0.00024
3071.89854	0.00059
3069.97017	0.00093
3068.04179	0.00089
3066.11342	0.00078
3064.18505	0.00115
3062.25668	0.00124
3060.32830	0.00126
3058.39993	0.00126
3056.47156	0.00120
3054.54318	0.00099
3052.61481	0.00077
3050.68644	0.00083
3048.75806	0.00064
3046.82969	0.00049
3044.90132	0.00063
3042.97294	0.00068
3041.04457	0.00049
3039.11620	0.00052
3037.18782	0.00081
3035.25945	0.00078
3033.33108	0.00052
3031.40270	0.00083
3029.47433	0.00108
3027.54596	0.00083
3025.61758	0.00040
3023.68921	0.00058
3021.76084	0.00064
3019.83246	0.00039
3017.90409	0.00066
3015.97572	0.00045
3014.04734	0.00055
3012.11897	0.00072
3010.19060	0.00087
3008.26222	0.00102
3006.33385	0.00100
3004.40548	0.00073
3002.47711	0.00053
3000.54873	0.00116
2998.62036	0.00162
2996.69199	0.00124
2994.76361	0.00069
2992.83524	0.00037
2990.90687	0.00085
2988.97849	0.00089
2987.05012	0.00048
2985.12175	0.00080
2983.19337	0.00094
2981.26500	0.00103
2979.33663	0.00127
2977.40825	0.00105
2975.47988	0.00061
2973.55151	0.00027
2971.62313	0.00066
2969.69476	0.00111
2967.76639	0.00107
2965.83801	0.00088
2963.90964	0.00097
2961.98127	0.00088
2960.05289	0.00164
2958.12452	0.00223
2956.19615	0.00235
2954.26777	0.00249
2952.33940	0.00218
2950.41103	0.00146
2948.48266	0.00115
2946.55428	0.00142
2944.62591	0.00147
2942.69754	0.00155
2940.76916	0.00183
2938.84079	0.00147
2936.91242	0.00057
2934.98404	0.00082
2933.05567	0.00081
2931.12730	0.00070
2929.19892	0.00063
2927.27055	0.00112
2925.34218	0.00139
2923.41380	0.00126
2921.48543	0.00099
2919.55706	0.00098
2917.62868	0.00119
2915.70031	0.00124
2913.77194	0.00100
2911.84356	0.00068
2909.91519	0.00103
2907.98682	0.00106
2906.05844	0.00051
2904.13007	0.00051
2902.20170	0.00078
2900.27332	0.00067
2898.34495	0.00059
2896.41658	0.00087
2894.48820	0.00121
2892.55983	0.00161
2890.63146	0.00130
2888.70309	0.00090
2886.77471	0.00106
2884.84634	0.00106
2882.91797	0.00069
2880.98959	0.00084
2879.06122	0.00082
2877.13285	0.00053
2875.20447	0.00038
2873.27610	0.00029
2871.34773	0.00062
2869.41935	0.00063
2867.49098	0.00093
2865.56261	0.00099
2863.63423	0.00083
2861.70586	0.00106
2859.77749	0.00146
2857.84911	0.00164
2855.92074	0.00132
2853.99237	0.00085
2852.06399	0.00049
2850.13562	0.00029
2848.20725	0.00069
2846.27887	0.00116
2844.35050	0.00103
2842.42213	0.00092
2840.49375	0.00099
2838.56538	0.00108
2836.63701	0.00129
2834.70863	0.00181
2832.78026	0.00199
2830.85189	0.00191
2828.92352	0.00177
2826.99514	0.00149
2825.06677	0.00119
2823.13840	0.00118
2821.21002	0.00135
2819.28165	0.00151
2817.35328	0.00166
2815.42490	0.00179
2813.49653	0.00175
2811.56816	0.00150
2809.63978	0.00140
2807.71141	0.00179
2805.78304	0.00201
2803.85466	0.00178
2801.92629	0.00174
2799.99792	0.00200
2798.06954	0.00219
2796.14117	0.00227
2794.21280	0.00233
2792.28442	0.00232
2790.35605	0.00242
2788.42768	0.00279
2786.49930	0.00299
2784.57093	0.00307
2782.64256	0.00311
2780.71418	0.00306
2778.78581	0.00297
2776.85744	0.00285
2774.92907	0.00248
2773.00069	0.00221
2771.07232	0.00252
2769.14395	0.00315
2767.21557	0.00369
2765.28720	0.00391
2763.35883	0.00380
2761.43045	0.00375
2759.50208	0.00392
2757.57371	0.00410
2755.64533	0.00427
2753.71696	0.00467
2751.78859	0.00522
2749.86021	0.00556
2747.93184	0.00560
2746.00347	0.00565
2744.07509	0.00581
2742.14672	0.00596
2740.21835	0.00609
2738.28997	0.00622
2736.36160	0.00643
2734.43323	0.00679
2732.50485	0.00720
2730.57648	0.00756
2728.64811	0.00780
2726.71973	0.00794
2724.79136	0.00809
2722.86299	0.00831
2720.93461	0.00857
2719.00624	0.00896
2717.07787	0.00936
2715.14950	0.00958
2713.22112	0.00972
2711.29275	0.01009
2709.36438	0.01077
2707.43600	0.01124
2705.50763	0.01116
2703.57926	0.01093
2701.65088	0.01086
2699.72251	0.01103
2697.79414	0.01144
2695.86576	0.01181
2693.93739	0.01190
2692.00902	0.01213
2690.08064	0.01264
2688.15227	0.01302
2686.22390	0.01324
2684.29552	0.01344
2682.36715	0.01345
2680.43878	0.01331
2678.51040	0.01334
2676.58203	0.01361
2674.65366	0.01388
2672.72528	0.01418
2670.79691	0.01463
2668.86854	0.01512
2666.94016	0.01561
2665.01179	0.01616
2663.08342	0.01682
2661.15505	0.01738
2659.22667	0.01762
2657.29830	0.01769
2655.36993	0.01787
2653.44155	0.01829
2651.51318	0.01885
2649.58481	0.01937
2647.65643	0.01985
2645.72806	0.02027
2643.79969	0.02047
2641.87131	0.02053
2639.94294	0.02074
2638.01457	0.02111
2636.08619	0.02160
2634.15782	0.02234
2632.22945	0.02318
2630.30107	0.02382
2628.37270	0.02429
2626.44433	0.02498
2624.51595	0.02594
2622.58758	0.02677
2620.65921	0.02714
2618.73083	0.02730
2616.80246	0.02767
2614.87409	0.02829
2612.94571	0.02899
2611.01734	0.02982
2609.08897	0.03072
2607.16059	0.03143
2605.23222	0.03195
2603.30385	0.03244
2601.37548	0.03290
2599.44710	0.03342
2597.51873	0.03423
2595.59036	0.03527
2593.66198	0.03637
2591.73361	0.03751
2589.80524	0.03863
2587.87686	0.03931
2585.94849	0.03948
2584.02012	0.03987
2582.09174	0.04093
2580.16337	0.04223
2578.23500	0.04322
2576.30662	0.04396
2574.37825	0.04471
2572.44988	0.04538
2570.52150	0.04599
2568.59313	0.04682
2566.66476	0.04788
2564.73638	0.04894
2562.80801	0.04983
2560.87964	0.05053
2558.95126	0.05130
2557.02289	0.05220
2555.09452	0.05306
2553.16614	0.05405
2551.23777	0.05541
2549.30940	0.05681
2547.38103	0.05765
2545.45265	0.05800
2543.52428	0.05849
2541.59591	0.05941
2539.66753	0.06049
2537.73916	0.06168
2535.81079	0.06293
2533.88241	0.06382
2531.95404	0.06441
2530.02567	0.06514
2528.09729	0.06603
2526.16892	0.06678
2524.24055	0.06741
2522.31217	0.06827
2520.38380	0.06949
2518.45543	0.07068
2516.52705	0.07153
2514.59868	0.07232
2512.67031	0.07329
2510.74193	0.07425
2508.81356	0.07507
2506.88519	0.07587
2504.95681	0.07664
2503.02844	0.07736
2501.10007	0.07820
2499.17169	0.07937
2497.24332	0.08052
2495.31495	0.08125
2493.38657	0.08195
2491.45820	0.08299
2489.52983	0.08422
2487.60146	0.08552
2485.67308	0.08679
2483.74471	0.08773
2481.81634	0.08837
2479.88796	0.08912
2477.95959	0.09011
2476.03122	0.09117
2474.10284	0.09219
2472.17447	0.09333
2470.24610	0.09477
2468.31772	0.09626
2466.38935	0.09753
2464.46098	0.09872
2462.53260	0.10018
2460.60423	0.10189
2458.67586	0.10357
2456.74748	0.10511
2454.81911	0.10670
2452.89074	0.10829
2450.96236	0.10966
2449.03399	0.11104
2447.10562	0.11273
2445.17724	0.11452
2443.24887	0.11599
2441.32050	0.11723
2439.39212	0.11857
2437.46375	0.11999
2435.53538	0.12131
2433.60700	0.12272
2431.67863	0.12431
2429.75026	0.12587
2427.82189	0.12719
2425.89351	0.12840
2423.96514	0.12979
2422.03677	0.13146
2420.10839	0.13303
2418.18002	0.13425
2416.25165	0.13541
2414.32327	0.13678
2412.39490	0.13826
2410.46653	0.13977
2408.53815	0.14151
2406.60978	0.14350
2404.68141	0.14552
2402.75303	0.14736
2400.82466	0.14900
2398.89629	0.15073
2396.96791	0.15281
2395.03954	0.15498
2393.11117	0.15671
2391.18279	0.15811
2389.25442	0.15985
2387.32605	0.16204
2385.39767	0.16420
2383.46930	0.16624
2381.54093	0.16849
2379.61255	0.17107
2377.68418	0.17377
2375.75581	0.17626
2373.82744	0.17873
2371.89906	0.18152
2369.97069	0.18455
2368.04232	0.18803
2366.11394	0.19159
2364.18557	0.19408
2362.25720	0.19640
2360.32882	0.20020
2358.40045	0.20383
2356.47208	0.20453
2354.54370	0.20303
2352.61533	0.20149
2350.68696	0.20083
2348.75858	0.20131
2346.83021	0.20322
2344.90184	0.20634
2342.97346	0.20863
2341.04509	0.20931
2339.11672	0.21007
2337.18834	0.21134
2335.25997	0.21255
2333.33160	0.21353
2331.40322	0.21439
2329.47485	0.21522
2327.54648	0.21581
2325.61810	0.21588
2323.68973	0.21586
2321.76136	0.21651
2319.83298	0.21771
2317.90461	0.21891
2315.97624	0.21984
2314.04787	0.22088
2312.11949	0.22244
2310.19112	0.22405
2308.26275	0.22531
2306.33437	0.22641
2304.40600	0.22743
2302.47763	0.22843
2300.54925	0.22970
2298.62088	0.23130
2296.69251	0.23295
2294.76413	0.23450
2292.83576	0.23595
2290.90739	0.23718
2288.97901	0.23824
2287.05064	0.23925
2285.12227	0.24025
2283.19389	0.24120
2281.26552	0.24222
2279.33715	0.24345
2277.40877	0.24472
2275.48040	0.24587
2273.55203	0.24683
2271.62365	0.24761
2269.69528	0.24842
2267.76691	0.24928
2265.83853	0.25000
2263.91016	0.25059
2261.98179	0.25135
2260.05342	0.25229
2258.12504	0.25317
2256.19667	0.25404
2254.26830	0.25492
2252.33992	0.25572
2250.41155	0.25630
2248.48318	0.25682
2246.55480	0.25758
2244.62643	0.25844
2242.69806	0.25907
2240.76968	0.25958
2238.84131	0.26028
2236.91294	0.26108
2234.98456	0.26186
2233.05619	0.26263
2231.12782	0.26320
2229.19944	0.26343
2227.27107	0.26369
2225.34270	0.26442
2223.41432	0.26524
2221.48595	0.26577
2219.55758	0.26620
2217.62920	0.26663
2215.70083	0.26708
2213.77246	0.26745
2211.84408	0.26766
2209.91571	0.26790
2207.98734	0.26836
2206.05896	0.26889
2204.13059	0.26934
2202.20222	0.26960
2200.27385	0.26957
2198.34547	0.26936
2196.41710	0.26931
2194.48873	0.26947
2192.56035	0.26948
2190.63198	0.26930
2188.70361	0.26943
2186.77523	0.26999
2184.84686	0.27063
2182.91849	0.27105
2180.99011	0.27116
2179.06174	0.27122
2177.13337	0.27146
2175.20499	0.27170
2173.27662	0.27172
2171.34825	0.27168
2169.41987	0.27188
2167.49150	0.27222
2165.56313	0.27256
2163.63475	0.27289
2161.70638	0.27311
2159.77801	0.27330
2157.84963	0.27374
2155.92126	0.27440
2153.99289	0.27509
2152.06451	0.27581
2150.13614	0.27643
2148.20777	0.27677
2146.27940	0.27711
2144.35102	0.27777
2142.42265	0.27842
2140.49428	0.27873
2138.56590	0.27886
2136.63753	0.27908
2134.70916	0.27949
2132.78078	0.28014
2130.85241	0.28093
2128.92404	0.28178
2126.99566	0.28274
2125.06729	0.28388
2123.13892	0.28518
2121.21054	0.28650
2119.28217	0.28770
2117.35380	0.28888
2115.42542	0.29014
2113.49705	0.29138
2111.56868	0.29262
2109.64030	0.29401
2107.71193	0.29532
2105.78356	0.29641
2103.85518	0.29745
2101.92681	0.29866
2099.99844	0.29990
2098.07006	0.30091
2096.14169	0.30169
2094.21332	0.30241
2092.28494	0.30322
2090.35657	0.30402
2088.42820	0.30458
2086.49983	0.30493
2084.57145	0.30516
2082.64308	0.30517
2080.71471	0.30507
2078.78633	0.30504
2076.85796	0.30506
2074.92959	0.30498
2073.00121	0.30475
2071.07284	0.30469
2069.14447	0.30491
2067.21609	0.30493
2065.28772	0.30480
2063.35935	0.30507
2061.43097	0.30583
2059.50260	0.30667
2057.57423	0.30724
2055.64585	0.30778
2053.71748	0.30879
2051.78911	0.31025
2049.86073	0.31189
2047.93236	0.31350
2046.00399	0.31502
2044.07561	0.31646
2042.14724	0.31780
2040.21887	0.31916
2038.29049	0.32053
2036.36212	0.32156
2034.43375	0.32219
2032.50538	0.32280
2030.57700	0.32357
2028.64863	0.32426
2026.72026	0.32455
2024.79188	0.32440
2022.86351	0.32412
2020.93514	0.32411
2019.00676	0.32445
2017.07839	0.32477
2015.15002	0.32487
2013.22164	0.32498
2011.29327	0.32513
2009.36490	0.32527
2007.43652	0.32548
2005.50815	0.32573
2003.57978	0.32611
2001.65140	0.32677
1999.72303	0.32757
1997.79466	0.32837
1995.86628	0.32926
1993.93791	0.33021
1992.00954	0.33087
1990.08116	0.33108
1988.15279	0.33128
1986.22442	0.33169
1984.29604	0.33211
1982.36767	0.33249
1980.43930	0.33272
1978.51092	0.33269
1976.58255	0.33251
1974.65418	0.33245
1972.72581	0.33255
1970.79743	0.33271
1968.86906	0.33296
1966.94069	0.33312
1965.01231	0.33281
1963.08394	0.33224
1961.15557	0.33205
1959.22719	0.33215
1957.29882	0.33213
1955.37045	0.33202
1953.44207	0.33205
1951.51370	0.33227
1949.58533	0.33246
1947.65695	0.33257
1945.72858	0.33307
1943.80021	0.33403
1941.87183	0.33458
1939.94346	0.33446
1938.01509	0.33443
1936.08671	0.33461
1934.15834	0.33477
1932.22997	0.33484
1930.30159	0.33481
1928.37322	0.33479
1926.44485	0.33502
1924.51647	0.33545
1922.58810	0.33559
1920.65973	0.33537
1918.73135	0.33520
1916.80298	0.33475
1914.87461	0.33385
1912.94624	0.33302
1911.01786	0.33241
1909.08949	0.33171
1907.16112	0.33074
1905.23274	0.32978
1903.30437	0.32895
1901.37600	0.32801
1899.44762	0.32700
1897.51925	0.32629
1895.59088	0.32601
1893.66250	0.32584
1891.73413	0.32558
1889.80576	0.32507
1887.87738	0.32415
1885.94901	0.32322
1884.02064	0.32229
1882.09226	0.32127
1880.16389	0.32056
1878.23552	0.32008
1876.30714	0.31945
1874.37877	0.31878
1872.45040	0.31852
1870.52202	0.31864
1868.59365	0.31793
1866.66528	0.31575
1864.73690	0.31336
1862.80853	0.31147
1860.88016	0.30974
1858.95179	0.30801
1857.02341	0.30645
1855.09504	0.30508
1853.16667	0.30392
1851.23829	0.30294
1849.30992	0.30218
1847.38155	0.30188
1845.45317	0.30189
1843.52480	0.30100
1841.59643	0.29912
1839.66805	0.29762
1837.73968	0.29667
1835.81131	0.29579
1833.88293	0.29513
1831.95456	0.29508
1830.02619	0.29484
1828.09781	0.29331
1826.16944	0.29110
1824.24107	0.28841
1822.31269	0.28527
1820.38432	0.28218
1818.45595	0.27906
1816.52757	0.27559
1814.59920	0.27204
1812.67083	0.26875
1810.74245	0.26496
1808.81408	0.26026
1806.88571	0.25529
1804.95733	0.25056
1803.02896	0.24597
1801.10059	0.24068
1799.17222	0.23428
1797.24384	0.22774
1795.31547	0.22167
1793.38710	0.21497
1791.45872	0.20659
1789.53035	0.19824
1787.60198	0.19100
1785.67360	0.18399
1783.74523	0.17717
1781.81686	0.17081
1779.88848	0.16424
1777.96011	0.15787
1776.03174	0.15245
1774.10336	0.14709
1772.17499	0.14015
1770.24662	0.13235
1768.31824	0.12512
1766.38987	0.11804
1764.46150	0.11117
1762.53312	0.10340
1760.60475	0.09423
1758.67638	0.08504
1756.74800	0.07510
1754.81963	0.06503
1752.89126	0.05571
1750.96288	0.04557
1749.03451	0.03481
1747.10614	0.02570
1745.17777	0.01852
1743.24939	0.01277
1741.32102	0.00831
1739.39265	0.00494
1737.46427	0.00276
1735.53590	0.00115
1733.60753	0.00047
1731.67915	0.00093
1729.75078	0.00092
1727.82241	0.00081
1725.89403	0.00071
1723.96566	0.00081
1722.03729	0.00072
1720.10891	0.00059
1718.18054	0.00062
1716.25217	0.00076
1714.32379	0.00086
1712.39542	0.00071
1710.46705	0.00066
1708.53867	0.00081
1706.61030	0.00094
1704.68193	0.00084
1702.75355	0.00069
1700.82518	0.00070
1698.89681	0.00069
1696.96843	0.00096
1695.04006	0.00115
1693.11169	0.00107
1691.18331	0.00100
1689.25494	0.00110
1687.32657	0.00108
1685.39820	0.00125
1683.46982	0.00160
1681.54145	0.00153
1679.61308	0.00139
1677.68470	0.00137
1675.75633	0.00109
1673.82796	0.00075
1671.89958	0.00049
1669.97121	0.00030
1668.04284	0.00062
1666.11446	0.00073
1664.18609	0.00063
1662.25772	0.00057
1660.32934	0.00063
1658.40097	0.00047
1656.47260	0.00063
1654.54422	0.00123
1652.61585	0.00139
1650.68748	0.00078
1648.75910	0.00039
1646.83073	0.00047
1644.90236	0.00062
1642.97398	0.00067
1641.04561	0.00070
1639.11724	0.00061
1637.18886	0.00040
1635.26049	0.00081
1633.33212	0.00073
1631.40375	0.00061
1629.47537	0.00065
1627.54700	0.00031
1625.61863	0.00032
1623.69025	0.00055
1621.76188	0.00067
1619.83351	0.00073
1617.90513	0.00079
1615.97676	0.00078
1614.04839	0.00065
1612.12001	0.00040
1610.19164	0.00019
1608.26327	0.00037
1606.33489	0.00048
1604.40652	0.00036
1602.47815	0.00047
1600.54977	0.00055
1598.62140	0.00055
1596.69303	0.00062
1594.76465	0.00061
1592.83628	0.00045
1590.90791	0.00035
1588.97953	0.00049
1587.05116	0.00056
1585.12279	0.00030
1583.19441	0.00040
1581.26604	0.00073
1579.33767	0.00097
1577.40929	0.00085
1575.48092	0.00090
1573.55255	0.00061
1571.62418	0.00051
1569.69580	0.00082
1567.76743	0.00076
1565.83906	0.00049
1563.91068	0.00055
1561.98231	0.00052
1560.05394	0.00087
1558.12556	0.00052
1556.19719	0.00037
1554.26882	0.00048
1552.34044	0.00027
1550.41207	0.00031
1548.48370	0.00047
1546.55532	0.00073
1544.62695	0.00083
1542.69858	0.00074
1540.77020	0.00057
1538.84183	0.00039
1536.91346	0.00069
1534.98508	0.00050
1533.05671	0.00031
1531.12834	0.00045
1529.19996	0.00045
1527.27159	0.00049
1525.34322	0.00075
1523.41484	0.00080
1521.48647	0.00055
1519.55810	0.00045
1517.62972	0.00059
1515.70135	0.00057
1513.77298	0.00062
1511.84461	0.00090
1509.91623	0.00108
1507.98786	0.00086
1506.05949	0.00068
1504.13111	0.00078
1502.20274	0.00067
1500.27437	0.00086
1498.34599	0.00079
1496.41762	0.00094
1494.48925	0.00108
1492.56087	0.00091
1490.63250	0.00069
1488.70413	0.00062
1486.77575	0.00069
1484.84738	0.00059
1482.91901	0.00076
1480.99063	0.00077
1479.06226	0.00065
1477.13389	0.00060
1475.20551	0.00094
1473.27714	0.00120
1471.34877	0.00090
1469.42039	0.00072
1467.49202	0.00077
1465.56365	0.00111
1463.63527	0.00073
1461.70690	0.00059
1459.77853	0.00110
1457.85016	0.00110
1455.92178	0.00042
1453.99341	0.00063
1452.06504	0.00065
1450.13666	0.00053
1448.20829	0.00062
1446.27992	0.00083
1444.35154	0.00104
1442.42317	0.00084
1440.49480	0.00038
1438.56642	0.00034
1436.63805	0.00040
1434.70968	0.00044
1432.78130	0.00056
1430.85293	0.00043
1428.92456	0.00047
1426.99618	0.00092
1425.06781	0.00096
1423.13944	0.00087
1421.21106	0.00112
1419.28269	0.00098
1417.35432	0.00090
1415.42594	0.00066
1413.49757	0.00043
1411.56920	0.00033
1409.64082	0.00057
1407.71245	0.00069
1405.78408	0.00073
1403.85570	0.00053
1401.92733	0.00055
1399.99896	0.00062
1398.07059	0.00071
1396.14221	0.00044
1394.21384	0.00052
1392.28547	0.00103
1390.35709	0.00104
1388.42872	0.00101
1386.50035	0.00086
1384.57197	0.00112
1382.64360	0.00140
1380.71523	0.00113
1378.78685	0.00073
1376.85848	0.00065
1374.93011	0.00057
1373.00173	0.00073
1371.07336	0.00094
1369.14499	0.00079
1367.21661	0.00074
1365.28824	0.00086
1363.35987	0.00099
1361.43149	0.00082
1359.50312	0.00043
1357.57475	0.00051
1355.64637	0.00065
1353.71800	0.00056
1351.78963	0.00048
1349.86125	0.00056
1347.93288	0.00054
1346.00451	0.00066
1344.07614	0.00060
1342.14776	0.00032
1340.21939	0.00027
1338.29102	0.00070
1336.36264	0.00096
1334.43427	0.00095
1332.50590	0.00060
1330.57752	0.00055
1328.64915	0.00075
1326.72078	0.00085
1324.79240	0.00084
1322.86403	0.00092
1320.93566	0.00065
1319.00728	0.00055
1317.07891	0.00035
1315.15054	0.00017
1313.22216	0.00035
1311.29379	0.00046
1309.36542	0.00031
1307.43704	0.00072
1305.50867	0.00074
1303.58030	0.00075
1301.65192	0.00065
1299.72355	0.00040
1297.79518	0.00051
1295.86680	0.00056
1293.93843	0.00072
1292.01006	0.00062
1290.08168	0.00069
1288.15331	0.00070
1286.22494	0.00063
1284.29657	0.00068
1282.36819	0.00074
1280.43982	0.00108
1278.51145	0.00115
1276.58307	0.00121
1274.65470	0.00098
1272.72633	0.00054
1270.79795	0.00078
1268.86958	0.00103
1266.94121	0.00093
1265.01283	0.00063
1263.08446	0.00066
1261.15609	0.00125
1259.22771	0.00135
1257.29934	0.00127
1255.37097	0.00113
1253.44259	0.00108
1251.51422	0.00131
1249.58585	0.00152
1247.65747	0.00146
1245.72910	0.00099
1243.80073	0.00116
1241.87235	0.00165
1239.94398	0.00184
1238.01561	0.00162
1236.08723	0.00134
1234.15886	0.00092
1232.23049	0.00097
1230.30212	0.00107
1228.37374	0.00072
1226.44537	0.00082
1224.51700	0.00128
1222.58862	0.00168
1220.66025	0.00176
1218.73188	0.00147
1216.80350	0.00115
1214.87513	0.00173
1212.94676	0.00252
1211.01838	0.00216
1209.09001	0.00184
1207.16164	0.00211
1205.23326	0.00199
1203.30489	0.00202
1201.37652	0.00288
1199.44814	0.00310
1197.51977	0.00267
1195.59140	0.00189
1193.66302	0.00189
1191.73465	0.00229
1189.80628	0.00235
1187.87790	0.00240
1185.94953	0.00244
1184.02116	0.00243
1182.09278	0.00252
1180.16441	0.00270
1178.23604	0.00247
1176.30766	0.00182
1174.37929	0.00233
1172.45092	0.00245
1170.52255	0.00220
1168.59417	0.00202
1166.66580	0.00170
1164.73743	0.00104
1162.80905	0.00111
1160.88068	0.00149
1158.95231	0.00103
1157.02393	0.00101
1155.09556	0.00121
1153.16719	0.00119
1151.23881	0.00131
1149.31044	0.00128
1147.38207	0.00167
1145.45369	0.00197
1143.52532	0.00184
1141.59695	0.00118
1139.66857	0.00064
1137.74020	0.00103
1135.81183	0.00122
1133.88345	0.00154
1131.95508	0.00142
1130.02671	0.00138
1128.09833	0.00165
1126.16996	0.00183
1124.24159	0.00194
1122.31321	0.00154
1120.38484	0.00111
1118.45647	0.00132
1116.52809	0.00145
1114.59972	0.00105
1112.67135	0.00133
1110.74298	0.00175
1108.81460	0.00190
1106.88623	0.00176
1104.95786	0.00168
1103.02948	0.00192
1101.10111	0.00202
1099.17274	0.00169
1097.24436	0.00099
1095.31599	0.00125
1093.38762	0.00171
1091.45924	0.00154
1089.53087	0.00034
1087.60250	0.00173
1085.67412	0.00228
1083.74575	0.00202
1081.81738	0.00173
1079.88900	0.00062
1077.96063	0.00118
1076.03226	0.00123
1074.10388	0.00158
1072.17551	0.00220
1070.24714	0.00212
1068.31876	0.00144
1066.39039	0.00115
1064.46202	0.00106
1062.53364	0.00087
1060.60527	0.00073
1058.67690	0.00102
1056.74853	0.00101
1054.82015	0.00102
1052.89178	0.00067
1050.96341	0.00072
1049.03503	0.00127
1047.10666	0.00123
1045.17829	0.00086
1043.24991	0.00088
1041.32154	0.00075
1039.39317	0.00101
1037.46479	0.00107
1035.53642	0.00108
1033.60805	0.00112
1031.67967	0.00109
1029.75130	0.00104
1027.82293	0.00092
1025.89455	0.00111
1023.96618	0.00145
1022.03781	0.00185
1020.10943	0.00217
1018.18106	0.00175
1016.25269	0.00126
1014.32431	0.00141
1012.39594	0.00183
1010.46757	0.00189
1008.53919	0.00180
1006.61082	0.00147
1004.68245	0.00067
1002.75407	0.00103
1000.82570	0.00168
998.89733	0.00224
996.96896	0.00294
995.04058	0.00387
993.11221	0.00497
991.18384	0.00603
989.25546	0.00699
987.32709	0.00802
985.39872	0.00843
983.47034	0.00782
981.54197	0.00708
979.61360	0.00688
977.68522	0.00693
975.75685	0.00716
973.82848	0.00795
971.90010	0.00946
969.97173	0.01144
968.04336	0.01415
966.11498	0.01771
964.18661	0.02024
962.25824	0.01965
960.32986	0.01610
958.40149	0.01149
956.47312	0.00785
954.54474	0.00611
952.61637	0.00626
950.68800	0.00837
948.75962	0.01226
946.83125	0.01679
944.90288	0.02074
942.97451	0.02419
941.04613	0.02757
939.11776	0.03028
937.18939	0.03180
935.26101	0.03280
933.33264	0.03403
931.40427	0.03508
929.47589	0.03561
927.54752	0.03585
925.61915	0.03581
923.69077	0.03532
921.76240	0.03413
919.83403	0.03305
917.90565	0.03368
915.97728	0.03580
914.04891	0.03710
912.12053	0.03637
910.19216	0.03434
908.26379	0.03176
906.33541	0.02858
904.40704	0.02479
902.47867	0.02128
900.55029	0.01865
898.62192	0.01642
896.69355	0.01472
894.76517	0.01394
892.83680	0.01402
890.90843	0.01501
888.98005	0.01619
887.05168	0.01636
885.12331	0.01625
883.19494	0.01698
881.26656	0.01762
879.33819	0.01750
877.40982	0.01754
875.48144	0.01831
873.55307	0.01916
871.62470	0.01960
869.69632	0.01988
867.76795	0.01994
865.83958	0.01956
863.91120	0.01882
861.98283	0.01753
860.05446	0.01586
858.12608	0.01481
856.19771	0.01475
854.26934	0.01523
852.34096	0.01561
850.41259	0.01517
848.48422	0.01430
846.55584	0.01406
844.62747	0.01401
842.69910	0.01375
840.77072	0.01347
838.84235	0.01296
836.91398	0.01204
834.98560	0.01072
833.05723	0.00970
831.12886	0.00934
829.20049	0.00919
827.27211	0.00874
825.34374	0.00806
823.41537	0.00753
821.48699	0.00731
819.55862	0.00698
817.63025	0.00602
815.70187	0.00530
813.77350	0.00564
811.84513	0.00606
809.91675	0.00587
807.98838	0.00528
806.06001	0.00468
804.13163	0.00426
802.20326	0.00390
800.27489	0.00317
798.34651	0.00266
796.41814	0.00267
794.48977	0.00303
792.56139	0.00293
790.63302	0.00268
788.70465	0.00256
786.77627	0.00349
784.84790	0.00365
782.91953	0.00281
780.99115	0.00188
779.06278	0.00171
777.13441	0.00240
775.20603	0.00337
773.27766	0.00338
771.34929	0.00303
769.42092	0.00319
767.49254	0.00364
765.56417	0.00364
763.63580	0.00363
761.70742	0.00395
759.77905	0.00383
757.85068	0.00343
755.92230	0.00306
753.99393	0.00205
752.06556	0.00092
750.13718	0.00113
748.20881	0.00175
746.28044	0.00247
744.35206	0.00329
742.42369	0.00369
740.49532	0.00377
738.56694	0.00299
736.63857	0.00145
734.71020	0.00126
732.78182	0.00182
730.85345	0.00185
728.92508	0.00195
726.99670	0.00151
725.06833	0.00099
723.13996	0.00165
721.21158	0.00219
719.28321	0.00177
717.35484	0.00110
715.42647	0.00275
713.49809	0.00362
711.56972	0.00253
709.64135	0.00235
707.71297	0.00251
705.78460	0.00244
703.85623	0.00257
701.92785	0.00303
699.99948	0.00176
698.07111	0.00149
696.14273	0.00219
694.21436	0.00197
692.28599	0.00196
690.35761	0.00390
688.42924	0.00445
686.50087	0.00351
684.57249	0.00262
682.64412	0.00261
680.71575	0.00319
678.78737	0.00346
676.85900	0.00256
674.93063	0.00386
673.00225	0.00551
671.07388	0.00768
669.14551	0.00947
667.21713	0.00736
665.28876	0.00663
663.36039	0.00682
661.43201	0.00543
659.50364	0.00478
657.57527	0.00493
655.64690	0.00340
653.71852	0.00251
651.79015	0.00280
649.86178	0.00306
647.93340	0.00194
646.00503	0.00298
644.07666	0.00520
642.14828	0.00762
640.21991	0.00857
638.29154	0.00961
636.36316	0.00957
634.43479	0.00752
632.50642	0.00521
630.57804	0.00435
628.64967	0.00526
626.72130	0.00599
624.79292	0.00427
622.86455	0.00314
620.93618	0.00419
619.00780	0.00301
617.07943	0.00331
615.15106	0.00496
613.22268	0.00514
611.29431	0.00935
609.36594	0.00977
607.43756	0.00736
605.50919	0.00570
603.58082	0.01091
601.65244	0.01627
599.72407	0.01492
