3997.51769	0.37416
3995.58931	0.37497
3993.66094	0.37558
3991.73257	0.37628
3989.80419	0.37660
3987.87582	0.37650
3985.94745	0.37704
3984.01907	0.37781
3982.09070	0.37769
3980.16233	0.37729
3978.23396	0.37772
3976.30558	0.37884
3974.37721	0.37982
3972.44884	0.38018
3970.52046	0.38006
3968.59209	0.37970
3966.66372	0.37943
3964.73534	0.37967
3962.80697	0.38025
3960.87860	0.38091
3958.95022	0.38176
3957.02185	0.38294
3955.09348	0.38399
3953.16510	0.38449
3951.23673	0.38462
3949.30836	0.38449
3947.37998	0.38427
3945.45161	0.38446
3943.52324	0.38511
3941.59486	0.38585
3939.66649	0.38639
3937.73812	0.38678
3935.80974	0.38706
3933.88137	0.38766
3931.95300	0.38899
3930.02462	0.39017
3928.09625	0.39057
3926.16788	0.39109
3924.23950	0.39177
3922.31113	0.39193
3920.38276	0.39252
3918.45439	0.39387
3916.52601	0.39438
3914.59764	0.39370
3912.66927	0.39330
3910.74089	0.39373
3908.81252	0.39480
3906.88415	0.39694
3904.95577	0.40001
3903.02740	0.40227
3901.09903	0.40252
3899.17065	0.40112
3897.24228	0.39931
3895.31391	0.39877
3893.38553	0.40008
3891.45716	0.40200
3889.52879	0.40264
3887.60041	0.40275
3885.67204	0.40299
3883.74367	0.40284
3881.81529	0.40332
3879.88692	0.40408
3877.95855	0.40375
3876.03017	0.40392
3874.10180	0.40547
3872.17343	0.40748
3870.24505	0.40901
3868.31668	0.40890
3866.38831	0.40862
3864.45994	0.40942
3862.53156	0.40910
3860.60319	0.40737
3858.67482	0.40678
3856.74644	0.40871
3854.81807	0.41308
3852.88970	0.41570
3850.96132	0.41266
3849.03295	0.40953
3847.10458	0.40850
3845.17620	0.40927
3843.24783	0.41099
3841.31946	0.41265
3839.39108	0.41417
3837.46271	0.41504
3835.53434	0.41419
3833.60596	0.41274
3831.67759	0.41164
3829.74922	0.41098
3827.82084	0.41103
3825.89247	0.41159
3823.96410	0.41281
3822.03572	0.41517
3820.10735	0.41621
3818.17898	0.41496
3816.25060	0.41334
3814.32223	0.41116
3812.39386	0.40964
3810.46548	0.40969
3808.53711	0.41084
3806.60874	0.41190
3804.68037	0.41203
3802.75199	0.41233
3800.82362	0.41234
3798.89525	0.41117
3796.96687	0.40995
3795.03850	0.40848
3793.11013	0.40708
3791.18175	0.40631
3789.25338	0.40587
3787.32501	0.40589
3785.39663	0.40595
3783.46826	0.40527
3781.53989	0.40472
3779.61151	0.40493
3777.68314	0.40440
3775.75477	0.40295
3773.82639	0.40236
3771.89802	0.40339
3769.96965	0.40513
3768.04127	0.40578
3766.11290	0.40513
3764.18453	0.40410
3762.25615	0.40394
3760.32778	0.40474
3758.39941	0.40452
3756.47103	0.40334
3754.54266	0.40347
3752.61429	0.40550
3750.68591	0.40696
3748.75754	0.40546
3746.82917	0.40383
3744.90080	0.40275
3742.97242	0.40086
3741.04405	0.39910
3739.11568	0.39867
3737.18730	0.39993
3735.25893	0.40170
3733.33056	0.40027
3731.40218	0.39589
3729.47381	0.39270
3727.54544	0.39184
3725.61706	0.39177
3723.68869	0.39058
3721.76032	0.38809
3719.83194	0.38537
3717.90357	0.38311
3715.97520	0.38171
3714.04682	0.38147
3712.11845	0.38205
3710.19008	0.38051
3708.26170	0.37619
3706.33333	0.37230
3704.40496	0.37010
3702.47658	0.36870
3700.54821	0.36602
3698.61984	0.36219
3696.69146	0.35845
3694.76309	0.35520
3692.83472	0.35302
3690.90635	0.35132
3688.97797	0.34707
3687.04960	0.33914
3685.12123	0.33109
3683.19285	0.32434
3681.26448	0.31846
3679.33611	0.31332
3677.40773	0.30878
3675.47936	0.30143
3673.55099	0.29123
3671.62261	0.28311
3669.69424	0.27379
3667.76587	0.26230
3665.83749	0.25229
3663.90912	0.24312
3661.98075	0.23389
3660.05237	0.22516
3658.12400	0.21704
3656.19563	0.20779
3654.26725	0.19845
3652.33888	0.19107
3650.41051	0.18320
3648.48213	0.17217
3646.55376	0.16091
3644.62539	0.15193
3642.69701	0.14416
3640.76864	0.13671
3638.84027	0.12931
3636.91189	0.12202
3634.98352	0.11518
3633.05515	0.10924
3631.12678	0.10394
3629.19840	0.09722
3627.27003	0.08978
3625.34166	0.08447
3623.41328	0.07988
3621.48491	0.07526
3619.55654	0.07063
3617.62816	0.06601
3615.69979	0.06175
3613.77142	0.05772
3611.84304	0.05382
3609.91467	0.04994
3607.98630	0.04617
3606.05792	0.04316
3604.12955	0.04085
3602.20118	0.03840
3600.27280	0.03565
3598.34443	0.03310
3596.41606	0.03077
3594.48768	0.02838
3592.55931	0.02623
3590.63094	0.02451
3588.70256	0.02266
3586.77419	0.02053
3584.84582	0.01871
3582.91744	0.01754
3580.98907	0.01676
3579.06070	0.01568
3577.13233	0.01433
3575.20395	0.01304
3573.27558	0.01194
3571.34721	0.01095
3569.41883	0.01000
3567.49046	0.00903
3565.56209	0.00800
3563.63371	0.00717
3561.70534	0.00642
3559.77697	0.00567
3557.84859	0.00498
3555.92022	0.00439
3553.99185	0.00386
3552.06347	0.00359
3550.13510	0.00363
3548.20673	0.00354
3546.27835	0.00319
3544.34998	0.00259
3542.42161	0.00200
3540.49323	0.00190
3538.56486	0.00195
3536.63649	0.00188
3534.70811	0.00172
3532.77974	0.00165
3530.85137	0.00127
3528.92299	0.00084
3526.99462	0.00071
3525.06625	0.00063
3523.13787	0.00071
3521.20950	0.00085
3519.28113	0.00119
3517.35276	0.00109
3515.42438	0.00106
3513.49601	0.00061
3511.56764	0.00016
3509.63926	0.00025
3507.71089	0.00050
3505.78252	0.00055
3503.85414	0.00064
3501.92577	0.00077
3499.99740	0.00076
3498.06902	0.00058
3496.14065	0.00040
3494.21228	0.00047
3492.28390	0.00072
3490.35553	0.00105
3488.42716	0.00083
3486.49878	0.00101
3484.57041	0.00133
3482.64204	0.00104
3480.71366	0.00142
3478.78529	0.00145
3476.85692	0.00076
3474.92854	0.00046
3473.00017	0.00077
3471.07180	0.00081
3469.14342	0.00073
3467.21505	0.00055
3465.28668	0.00034
3463.35831	0.00078
3461.42993	0.00114
3459.50156	0.00104
3457.57319	0.00078
3455.64481	0.00074
3453.71644	0.00085
3451.78807	0.00078
3449.85969	0.00103
3447.93132	0.00127
3446.00295	0.00090
3444.07457	0.00034
3442.14620	0.00043
3440.21783	0.00060
3438.28945	0.00088
3436.36108	0.00098
3434.43271	0.00064
3432.50433	0.00064
3430.57596	0.00080
3428.64759	0.00096
3426.71921	0.00081
3424.79084	0.00035
3422.86247	0.00019
3420.93409	0.00046
3419.00572	0.00056
3417.07735	0.00080
3415.14897	0.00097
3413.22060	0.00084
3411.29223	0.00081
3409.36385	0.00056
3407.43548	0.00034
3405.50711	0.00051
3403.57874	0.00112
3401.65036	0.00142
3399.72199	0.00130
3397.79362	0.00109
3395.86524	0.00105
3393.93687	0.00085
3392.00850	0.00068
3390.08012	0.00081
3388.15175	0.00086
3386.22338	0.00046
3384.29500	0.00064
3382.36663	0.00073
3380.43826	0.00048
3378.50988	0.00114
3376.58151	0.00159
3374.65314	0.00128
3372.72476	0.00074
3370.79639	0.00040
3368.86802	0.00026
3366.93964	0.00034
3365.01127	0.00065
3363.08290	0.00055
3361.15452	0.00044
3359.22615	0.00063
3357.29778	0.00087
3355.36940	0.00084
3353.44103	0.00092
3351.51266	0.00118
3349.58428	0.00084
3347.65591	0.00101
3345.72754	0.00158
3343.79917	0.00136
3341.87079	0.00069
3339.94242	0.00043
3338.01405	0.00041
3336.08567	0.00053
3334.15730	0.00060
3332.22893	0.00076
3330.30055	0.00080
3328.37218	0.00086
3326.44381	0.00066
3324.51543	0.00051
3322.58706	0.00090
3320.65869	0.00061
3318.73031	0.00021
3316.80194	0.00087
3314.87357	0.00127
3312.94519	0.00117
3311.01682	0.00103
3309.08845	0.00085
3307.16007	0.00062
3305.23170	0.00091
3303.30333	0.00082
3301.37495	0.00079
3299.44658	0.00105
3297.51821	0.00135
3295.58983	0.00136
3293.66146	0.00117
3291.73309	0.00121
3289.80472	0.00130
3287.87634	0.00111
3285.94797	0.00100
3284.01960	0.00055
3282.09122	0.00100
3280.16285	0.00129
3278.23448	0.00145
3276.30610	0.00151
3274.37773	0.00114
3272.44936	0.00062
3270.52098	0.00038
3268.59261	0.00063
3266.66424	0.00070
3264.73586	0.00049
3262.80749	0.00089
3260.87912	0.00098
3258.95074	0.00079
3257.02237	0.00129
3255.09400	0.00121
3253.16562	0.00072
3251.23725	0.00071
3249.30888	0.00111
3247.38050	0.00139
3245.45213	0.00106
3243.52376	0.00073
3241.59538	0.00038
3239.66701	0.00079
3237.73864	0.00094
3235.81026	0.00048
3233.88189	0.00023
3231.95352	0.00050
3230.02515	0.00087
3228.09677	0.00084
3226.16840	0.00039
3224.24003	0.00031
3222.31165	0.00038
3220.38328	0.00057
3218.45491	0.00044
3216.52653	0.00051
3214.59816	0.00081
3212.66979	0.00053
3210.74141	0.00029
3208.81304	0.00030
3206.88467	0.00078
3204.95629	0.00114
3203.02792	0.00086
3201.09955	0.00024
3199.17117	0.00096
3197.24280	0.00091
3195.31443	0.00055
3193.38605	0.00078
3191.45768	0.00076
3189.52931	0.00053
3187.60093	0.00046
3185.67256	0.00074
3183.74419	0.00092
3181.81581	0.00084
3179.88744	0.00092
3177.95907	0.00080
3176.03070	0.00062
3174.10232	0.00064
3172.17395	0.00047
3170.24558	0.00030
3168.31720	0.00047
3166.38883	0.00088
3164.46046	0.00108
3162.53208	0.00120
3160.60371	0.00122
3158.67534	0.00090
3156.74696	0.00078
3154.81859	0.00082
3152.89022	0.00093
3150.96184	0.00094
3149.03347	0.00071
3147.10510	0.00075
3145.17672	0.00077
3143.24835	0.00066
3141.31998	0.00056
3139.39160	0.00062
3137.46323	0.00045
3135.53486	0.00041
3133.60648	0.00053
3131.67811	0.00037
3129.74974	0.00034
3127.82136	0.00050
3125.89299	0.00102
3123.96462	0.00126
3122.03624	0.00084
3120.10787	0.00101
3118.17950	0.00087
3116.25113	0.00043
3114.32275	0.00043
3112.39438	0.00043
3110.46601	0.00020
3108.53763	0.00068
3106.60926	0.00122
3104.68089	0.00132
3102.75251	0.00108
3100.82414	0.00058
3098.89577	0.00094
3096.96739	0.00127
3095.03902	0.00116
3093.11065	0.00100
3091.18227	0.00106
3089.25390	0.00051
3087.32553	0.00044
3085.39715	0.00070
3083.46878	0.00080
3081.54041	0.00077
3079.61203	0.00030
3077.68366	0.00030
3075.75529	0.00062
3073.82691	0.00063
3071.89854	0.00047
3069.97017	0.00056
3068.04179	0.00073
3066.11342	0.00069
3064.18505	0.00069
3062.25668	0.00065
3060.32830	0.00038
3058.39993	0.00069
3056.47156	0.00087
3054.54318	0.00074
3052.61481	0.00083
3050.68644	0.00043
3048.75806	0.00050
3046.82969	0.00056
3044.90132	0.00046
3042.97294	0.00035
3041.04457	0.00025
3039.11620	0.00039
3037.18782	0.00076
3035.25945	0.00079
3033.33108	0.00035
3031.40270	0.00027
3029.47433	0.00055
3027.54596	0.00079
3025.61758	0.00147
3023.68921	0.00157
3021.76084	0.00124
3019.83246	0.00088
3017.90409	0.00078
3015.97572	0.00090
3014.04734	0.00082
3012.11897	0.00088
3010.19060	0.00097
3008.26222	0.00101
3006.33385	0.00118
3004.40548	0.00146
3002.47711	0.00167
3000.54873	0.00178
2998.62036	0.00169
2996.69199	0.00150
2994.76361	0.00129
2992.83524	0.00094
2990.90687	0.00080
2988.97849	0.00100
2987.05012	0.00112
2985.12175	0.00109
2983.19337	0.00074
2981.26500	0.00074
2979.33663	0.00121
2977.40825	0.00147
2975.47988	0.00100
2973.55151	0.00065
2971.62313	0.00103
2969.69476	0.00137
2967.76639	0.00137
2965.83801	0.00082
2963.90964	0.00116
2961.98127	0.00127
2960.05289	0.00108
2958.12452	0.00073
2956.19615	0.00091
2954.26777	0.00121
2952.33940	0.00092
2950.41103	0.00075
2948.48266	0.00087
2946.55428	0.00148
2944.62591	0.00136
2942.69754	0.00095
2940.76916	0.00089
2938.84079	0.00089
2936.91242	0.00108
2934.98404	0.00135
2933.05567	0.00133
2931.12730	0.00092
2929.19892	0.00027
2927.27055	0.00061
2925.34218	0.00114
2923.41380	0.00130
2921.48543	0.00133
2919.55706	0.00152
2917.62868	0.00168
2915.70031	0.00161
2913.77194	0.00118
2911.84356	0.00128
2909.91519	0.00140
2907.98682	0.00103
2906.05844	0.00070
2904.13007	0.00054
2902.20170	0.00054
2900.27332	0.00091
2898.34495	0.00112
2896.41658	0.00085
2894.48820	0.00069
2892.55983	0.00084
2890.63146	0.00093
2888.70309	0.00132
2886.77471	0.00156
2884.84634	0.00144
2882.91797	0.00143
2880.98959	0.00153
2879.06122	0.00153
2877.13285	0.00112
2875.20447	0.00089
2873.27610	0.00103
2871.34773	0.00136
2869.41935	0.00185
2867.49098	0.00220
2865.56261	0.00248
2863.63423	0.00267
2861.70586	0.00279
2859.77749	0.00284
2857.84911	0.00266
2855.92074	0.00239
2853.99237	0.00234
2852.06399	0.00245
2850.13562	0.00283
2848.20725	0.00345
2846.27887	0.00384
2844.35050	0.00401
2842.42213	0.00427
2840.49375	0.00451
2838.56538	0.00468
2836.63701	0.00504
2834.70863	0.00545
2832.78026	0.00560
2830.85189	0.00547
2828.92352	0.00526
2826.99514	0.00502
2825.06677	0.00482
2823.13840	0.00485
2821.21002	0.00498
2819.28165	0.00514
2817.35328	0.00537
2815.42490	0.00540
2813.49653	0.00524
2811.56816	0.00510
2809.63978	0.00508
2807.71141	0.00516
2805.78304	0.00545
2803.85466	0.00579
2801.92629	0.00597
2799.99792	0.00617
2798.06954	0.00645
2796.14117	0.00668
2794.21280	0.00690
2792.28442	0.00706
2790.35605	0.00698
2788.42768	0.00697
2786.49930	0.00743
2784.57093	0.00814
2782.64256	0.00861
2780.71418	0.00864
2778.78581	0.00849
2776.85744	0.00843
2774.92907	0.00859
2773.00069	0.00900
2771.07232	0.00926
2769.14395	0.00910
2767.21557	0.00892
2765.28720	0.00908
2763.35883	0.00949
2761.43045	0.00996
2759.50208	0.01029
2757.57371	0.01043
2755.64533	0.01066
2753.71696	0.01134
2751.78859	0.01215
2749.86021	0.01257
2747.93184	0.01269
2746.00347	0.01284
2744.07509	0.01311
2742.14672	0.01351
2740.21835	0.01393
2738.28997	0.01436
2736.36160	0.01485
2734.43323	0.01536
2732.50485	0.01576
2730.57648	0.01616
2728.64811	0.01663
2726.71973	0.01691
2724.79136	0.01710
2722.86299	0.01747
2720.93461	0.01778
2719.00624	0.01810
2717.07787	0.01865
2715.14950	0.01934
2713.22112	0.01986
2711.29275	0.02009
2709.36438	0.02043
2707.43600	0.02104
2705.50763	0.02151
2703.57926	0.02163
2701.65088	0.02163
2699.72251	0.02180
2697.79414	0.02224
2695.86576	0.02280
2693.93739	0.02322
2692.00902	0.02339
2690.08064	0.02337
2688.15227	0.02342
2686.22390	0.02371
2684.29552	0.02421
2682.36715	0.02475
2680.43878	0.02511
2678.51040	0.02525
2676.58203	0.02546
2674.65366	0.02614
2672.72528	0.02707
2670.79691	0.02781
2668.86854	0.02825
2666.94016	0.02843
2665.01179	0.02865
2663.08342	0.02928
2661.15505	0.03012
2659.22667	0.03081
2657.29830	0.03124
2655.36993	0.03156
2653.44155	0.03213
2651.51318	0.03291
2649.58481	0.03350
2647.65643	0.03396
2645.72806	0.03460
2643.79969	0.03527
2641.87131	0.03578
2639.94294	0.03622
2638.01457	0.03664
2636.08619	0.03705
2634.15782	0.03759
2632.22945	0.03834
2630.30107	0.03927
2628.37270	0.04038
2626.44433	0.04150
2624.51595	0.04237
2622.58758	0.04296
2620.65921	0.04348
2618.73083	0.04412
2616.80246	0.04499
2614.87409	0.04594
2612.94571	0.04671
2611.01734	0.04748
2609.08897	0.04840
2607.16059	0.04946
2605.23222	0.05065
2603.30385	0.05172
2601.37548	0.05257
2599.44710	0.05353
2597.51873	0.05478
2595.59036	0.05598
2593.66198	0.05678
2591.73361	0.05741
2589.80524	0.05823
2587.87686	0.05921
2585.94849	0.06024
2584.02012	0.06134
2582.09174	0.06235
2580.16337	0.06308
2578.23500	0.06375
2576.30662	0.06461
2574.37825	0.06565
2572.44988	0.06665
2570.52150	0.06755
2568.59313	0.06849
2566.66476	0.06968
2564.73638	0.07108
2562.80801	0.07243
2560.87964	0.07347
2558.95126	0.07428
2557.02289	0.07531
2555.09452	0.07665
2553.16614	0.07790
2551.23777	0.07881
2549.30940	0.07960
2547.38103	0.08044
2545.45265	0.08139
2543.52428	0.08248
2541.59591	0.08359
2539.66753	0.08460
2537.73916	0.08547
2535.81079	0.08609
2533.88241	0.08664
2531.95404	0.08741
2530.02567	0.08837
2528.09729	0.08939
2526.16892	0.09029
2524.24055	0.09092
2522.31217	0.09169
2520.38380	0.09295
2518.45543	0.09422
2516.52705	0.09500
2514.59868	0.09555
2512.67031	0.09649
2510.74193	0.09791
2508.81356	0.09908
2506.88519	0.09969
2504.95681	0.10020
2503.02844	0.10080
2501.10007	0.10147
2499.17169	0.10242
2497.24332	0.10358
2495.31495	0.10454
2493.38657	0.10525
2491.45820	0.10601
2489.52983	0.10691
2487.60146	0.10774
2485.67308	0.10840
2483.74471	0.10925
2481.81634	0.11039
2479.88796	0.11146
2477.95959	0.11236
2476.03122	0.11326
2474.10284	0.11416
2472.17447	0.11516
2470.24610	0.11650
2468.31772	0.11804
2466.38935	0.11945
2464.46098	0.12065
2462.53260	0.12170
2460.60423	0.12261
2458.67586	0.12352
2456.74748	0.12473
2454.81911	0.12614
2452.89074	0.12733
2450.96236	0.12846
2449.03399	0.13003
2447.10562	0.13183
2445.17724	0.13328
2443.24887	0.13415
2441.32050	0.13464
2439.39212	0.13519
2437.46375	0.13614
2435.53538	0.13736
2433.60700	0.13858
2431.67863	0.13981
2429.75026	0.14106
2427.82189	0.14216
2425.89351	0.14314
2423.96514	0.14406
2422.03677	0.14493
2420.10839	0.14583
2418.18002	0.14682
2416.25165	0.14784
2414.32327	0.14888
2412.39490	0.14999
2410.46653	0.15115
2408.53815	0.15217
2406.60978	0.15324
2404.68141	0.15458
2402.75303	0.15591
2400.82466	0.15703
2398.89629	0.15820
2396.96791	0.15971
2395.03954	0.16130
2393.11117	0.16260
2391.18279	0.16362
2389.25442	0.16458
2387.32605	0.16574
2385.39767	0.16707
2383.46930	0.16844
2381.54093	0.16997
2379.61255	0.17175
2377.68418	0.17386
2375.75581	0.17624
2373.82744	0.17832
2371.89906	0.18048
2369.97069	0.18351
2368.04232	0.18584
2366.11394	0.18642
2364.18557	0.18756
2362.25720	0.19012
2360.32882	0.19186
2358.40045	0.19211
2356.47208	0.19221
2354.54370	0.19256
2352.61533	0.19225
2350.68696	0.19117
2348.75858	0.19059
2346.83021	0.19143
2344.90184	0.19356
2342.97346	0.19523
2341.04509	0.19544
2339.11672	0.19565
2337.18834	0.19620
2335.25997	0.19608
2333.33160	0.19586
2331.40322	0.19661
2329.47485	0.19764
2327.54648	0.19814
2325.61810	0.19852
2323.68973	0.19890
2321.76136	0.19892
2319.83298	0.19866
2317.90461	0.19863
2315.97624	0.19905
2314.04787	0.19985
2312.11949	0.20090
2310.19112	0.20194
2308.26275	0.20271
2306.33437	0.20337
2304.40600	0.20422
2302.47763	0.20529
2300.54925	0.20641
2298.62088	0.20728
2296.69251	0.20784
2294.76413	0.20841
2292.83576	0.20915
2290.90739	0.20988
2288.97901	0.21043
2287.05064	0.21099
2285.12227	0.21169
2283.19389	0.21241
2281.26552	0.21292
2279.33715	0.21314
2277.40877	0.21338
2275.48040	0.21403
2273.55203	0.21495
2271.62365	0.21567
2269.69528	0.21599
2267.76691	0.21618
2265.83853	0.21669
2263.91016	0.21745
2261.98179	0.21805
2260.05342	0.21855
2258.12504	0.21922
2256.19667	0.21994
2254.26830	0.22071
2252.33992	0.22159
2250.41155	0.22235
2248.48318	0.22287
2246.55480	0.22340
2244.62643	0.22421
2242.69806	0.22505
2240.76968	0.22564
2238.84131	0.22615
2236.91294	0.22681
2234.98456	0.22750
2233.05619	0.22817
2231.12782	0.22879
2229.19944	0.22919
2227.27107	0.22941
2225.34270	0.22966
2223.41432	0.23004
2221.48595	0.23035
2219.55758	0.23054
2217.62920	0.23073
2215.70083	0.23105
2213.77246	0.23148
2211.84408	0.23175
2209.91571	0.23190
2207.98734	0.23226
2206.05896	0.23277
2204.13059	0.23307
2202.20222	0.23296
2200.27385	0.23294
2198.34547	0.23348
2196.41710	0.23413
2194.48873	0.23439
2192.56035	0.23452
2190.63198	0.23476
2188.70361	0.23494
2186.77523	0.23505
2184.84686	0.23534
2182.91849	0.23596
2180.99011	0.23671
2179.06174	0.23719
2177.13337	0.23727
2175.20499	0.23733
2173.27662	0.23756
2171.34825	0.23781
2169.41987	0.23802
2167.49150	0.23837
2165.56313	0.23883
2163.63475	0.23916
2161.70638	0.23936
2159.77801	0.23967
2157.84963	0.24019
2155.92126	0.24070
2153.99289	0.24116
2152.06451	0.24174
2150.13614	0.24232
2148.20777	0.24277
2146.27940	0.24317
2144.35102	0.24350
2142.42265	0.24373
2140.49428	0.24391
2138.56590	0.24425
2136.63753	0.24469
2134.70916	0.24505
2132.78078	0.24545
2130.85241	0.24606
2128.92404	0.24689
2126.99566	0.24776
2125.06729	0.24839
2123.13892	0.24886
2121.21054	0.24948
2119.28217	0.25010
2117.35380	0.25070
2115.42542	0.25151
2113.49705	0.25245
2111.56868	0.25324
2109.64030	0.25400
2107.71193	0.25498
2105.78356	0.25598
2103.85518	0.25667
2101.92681	0.25720
2099.99844	0.25783
2098.07006	0.25859
2096.14169	0.25944
2094.21332	0.26038
2092.28494	0.26142
2090.35657	0.26228
2088.42820	0.26269
2086.49983	0.26300
2084.57145	0.26349
2082.64308	0.26388
2080.71471	0.26417
2078.78633	0.26458
2076.85796	0.26487
2074.92959	0.26501
2073.00121	0.26522
2071.07284	0.26536
2069.14447	0.26530
2067.21609	0.26524
2065.28772	0.26538
2063.35935	0.26571
2061.43097	0.26607
2059.50260	0.26631
2057.57423	0.26667
2055.64585	0.26731
2053.71748	0.26800
2051.78911	0.26853
2049.86073	0.26906
2047.93236	0.26974
2046.00399	0.27052
2044.07561	0.27140
2042.14724	0.27213
2040.21887	0.27262
2038.29049	0.27322
2036.36212	0.27392
2034.43375	0.27439
2032.50538	0.27465
2030.57700	0.27497
2028.64863	0.27547
2026.72026	0.27614
2024.79188	0.27695
2022.86351	0.27776
2020.93514	0.27834
2019.00676	0.27877
2017.07839	0.27933
2015.15002	0.27994
2013.22164	0.28045
2011.29327	0.28094
2009.36490	0.28155
2007.43652	0.28237
2005.50815	0.28328
2003.57978	0.28408
2001.65140	0.28469
1999.72303	0.28503
1997.79466	0.28522
1995.86628	0.28571
1993.93791	0.28651
1992.00954	0.28713
1990.08116	0.28740
1988.15279	0.28748
1986.22442	0.28746
1984.29604	0.28742
1982.36767	0.28751
1980.43930	0.28775
1978.51092	0.28790
1976.58255	0.28775
1974.65418	0.28754
1972.72581	0.28752
1970.79743	0.28775
1968.86906	0.28818
1966.94069	0.28847
1965.01231	0.28830
1963.08394	0.28806
1961.15557	0.28811
1959.22719	0.28834
1957.29882	0.28887
1955.37045	0.28958
1953.44207	0.29010
1951.51370	0.29055
1949.58533	0.29117
1947.65695	0.29186
1945.72858	0.29262
1943.80021	0.29354
1941.87183	0.29413
1939.94346	0.29407
1938.01509	0.29388
1936.08671	0.29390
1934.15834	0.29415
1932.22997	0.29443
1930.30159	0.29457
1928.37322	0.29462
1926.44485	0.29475
1924.51647	0.29507
1922.58810	0.29529
1920.65973	0.29523
1918.73135	0.29504
1916.80298	0.29445
1914.87461	0.29348
1912.94624	0.29277
1911.01786	0.29252
1909.08949	0.29220
1907.16112	0.29131
1905.23274	0.29015
1903.30437	0.28922
1901.37600	0.28843
1899.44762	0.28770
1897.51925	0.28723
1895.59088	0.28674
1893.66250	0.28589
1891.73413	0.28505
1889.80576	0.28457
1887.87738	0.28398
1885.94901	0.28316
1884.02064	0.28234
1882.09226	0.28158
1880.16389	0.28086
1878.23552	0.28022
1876.30714	0.27982
1874.37877	0.27961
1872.45040	0.27950
1870.52202	0.27964
1868.59365	0.27948
1866.66528	0.27814
1864.73690	0.27625
1862.80853	0.27458
1860.88016	0.27318
1858.95179	0.27198
1857.02341	0.27081
1855.09504	0.26955
1853.16667	0.26838
1851.23829	0.26731
1849.30992	0.26617
1847.38155	0.26503
1845.45317	0.26401
1843.52480	0.26243
1841.59643	0.26029
1839.66805	0.25866
1837.73968	0.25763
1835.81131	0.25649
1833.88293	0.25528
1831.95456	0.25462
1830.02619	0.25400
1828.09781	0.25253
1826.16944	0.25065
1824.24107	0.24842
1822.31269	0.24597
1820.38432	0.24380
1818.45595	0.24170
1816.52757	0.23919
1814.59920	0.23653
1812.67083	0.23408
1810.74245	0.23137
1808.81408	0.22808
1806.88571	0.22439
1804.95733	0.22050
1803.02896	0.21651
1801.10059	0.21194
1799.17222	0.20658
1797.24384	0.20124
1795.31547	0.19653
1793.38710	0.19155
1791.45872	0.18493
1789.53035	0.17791
1787.60198	0.17196
1785.67360	0.16651
1783.74523	0.16112
1781.81686	0.15586
1779.88848	0.15072
1777.96011	0.14605
1776.03174	0.14200
1774.10336	0.13798
1772.17499	0.13297
1770.24662	0.12706
1768.31824	0.12100
1766.38987	0.11491
1764.46150	0.10925
1762.53312	0.10289
1760.60475	0.09502
1758.67638	0.08684
1756.74800	0.07777
1754.81963	0.06847
1752.89126	0.05989
1750.96288	0.05040
1749.03451	0.03979
1747.10614	0.03054
1745.17777	0.02314
1743.24939	0.01671
1741.32102	0.01121
1739.39265	0.00709
1737.46427	0.00467
1735.53590	0.00315
1733.60753	0.00167
1731.67915	0.00069
1729.75078	0.00049
1727.82241	0.00048
1725.89403	0.00047
1723.96566	0.00050
1722.03729	0.00053
1720.10891	0.00085
1718.18054	0.00108
1716.25217	0.00054
1714.32379	0.00062
1712.39542	0.00037
1710.46705	0.00038
1708.53867	0.00058
1706.61030	0.00072
1704.68193	0.00061
1702.75355	0.00084
1700.82518	0.00139
1698.89681	0.00118
1696.96843	0.00081
1695.04006	0.00054
1693.11169	0.00049
1691.18331	0.00058
1689.25494	0.00088
1687.32657	0.00122
1685.39820	0.00113
1683.46982	0.00057
1681.54145	0.00031
1679.61308	0.00050
1677.68470	0.00065
1675.75633	0.00078
1673.82796	0.00061
1671.89958	0.00039
1669.97121	0.00083
1668.04284	0.00095
1666.11446	0.00060
1664.18609	0.00050
1662.25772	0.00044
1660.32934	0.00048
1658.40097	0.00046
1656.47260	0.00053
1654.54422	0.00049
1652.61585	0.00059
1650.68748	0.00057
1648.75910	0.00078
1646.83073	0.00083
1644.90236	0.00074
1642.97398	0.00079
1641.04561	0.00076
1639.11724	0.00080
1637.18886	0.00097
1635.26049	0.00105
1633.33212	0.00079
1631.40375	0.00043
1629.47537	0.00035
1627.54700	0.00030
1625.61863	0.00039
1623.69025	0.00064
1621.76188	0.00100
1619.83351	0.00129
1617.90513	0.00112
1615.97676	0.00062
1614.04839	0.00044
1612.12001	0.00050
1610.19164	0.00052
1608.26327	0.00034
1606.33489	0.00058
1604.40652	0.00082
1602.47815	0.00052
1600.54977	0.00056
1598.62140	0.00074
1596.69303	0.00070
1594.76465	0.00082
1592.83628	0.00073
1590.90791	0.00053
1588.97953	0.00026
1587.05116	0.00030
1585.12279	0.00032
1583.19441	0.00020
1581.26604	0.00036
1579.33767	0.00040
1577.40929	0.00063
1575.48092	0.00060
1573.55255	0.00037
1571.62418	0.00027
1569.69580	0.00055
1567.76743	0.00055
1565.83906	0.00089
1563.91068	0.00126
1561.98231	0.00127
1560.05394	0.00111
1558.12556	0.00044
1556.19719	0.00043
1554.26882	0.00053
1552.34044	0.00047
1550.41207	0.00021
1548.48370	0.00044
1546.55532	0.00052
1544.62695	0.00033
1542.69858	0.00075
1540.77020	0.00138
1538.84183	0.00117
1536.91346	0.00059
1534.98508	0.00038
1533.05671	0.00041
1531.12834	0.00069
1529.19996	0.00062
1527.27159	0.00026
1525.34322	0.00050
1523.41484	0.00056
1521.48647	0.00061
1519.55810	0.00100
1517.62972	0.00136
1515.70135	0.00103
1513.77298	0.00068
1511.84461	0.00055
1509.91623	0.00056
1507.98786	0.00115
1506.05949	0.00107
1504.13111	0.00091
1502.20274	0.00078
1500.27437	0.00069
1498.34599	0.00045
1496.41762	0.00034
1494.48925	0.00049
1492.56087	0.00036
1490.63250	0.00047
1488.70413	0.00087
1486.77575	0.00142
1484.84738	0.00155
1482.91901	0.00146
1480.99063	0.00149
1479.06226	0.00173
1477.13389	0.00206
1475.20551	0.00226
1473.27714	0.00201
1471.34877	0.00155
1469.42039	0.00133
1467.49202	0.00111
1465.56365	0.00095
1463.63527	0.00116
1461.70690	0.00164
1459.77853	0.00209
1457.85016	0.00186
1455.92178	0.00104
1453.99341	0.00082
1452.06504	0.00050
1450.13666	0.00074
1448.20829	0.00106
1446.27992	0.00086
1444.35154	0.00045
1442.42317	0.00081
1440.49480	0.00108
1438.56642	0.00090
1436.63805	0.00092
1434.70968	0.00086
1432.78130	0.00083
1430.85293	0.00099
1428.92456	0.00108
1426.99618	0.00091
1425.06781	0.00084
1423.13944	0.00090
1421.21106	0.00071
1419.28269	0.00039
1417.35432	0.00050
1415.42594	0.00063
1413.49757	0.00048
1411.56920	0.00057
1409.64082	0.00095
1407.71245	0.00094
1405.78408	0.00079
1403.85570	0.00072
1401.92733	0.00061
1399.99896	0.00056
1398.07059	0.00050
1396.14221	0.00072
1394.21384	0.00105
1392.28547	0.00132
1390.35709	0.00145
1388.42872	0.00143
1386.50035	0.00116
1384.57197	0.00086
1382.64360	0.00083
1380.71523	0.00091
1378.78685	0.00104
1376.85848	0.00063
1374.93011	0.00034
1373.00173	0.00039
1371.07336	0.00033
1369.14499	0.00037
1367.21661	0.00059
1365.28824	0.00050
1363.35987	0.00053
1361.43149	0.00076
1359.50312	0.00068
1357.57475	0.00074
1355.64637	0.00102
1353.71800	0.00117
1351.78963	0.00125
1349.86125	0.00141
1347.93288	0.00141
1346.00451	0.00128
1344.07614	0.00118
1342.14776	0.00138
1340.21939	0.00183
1338.29102	0.00172
1336.36264	0.00117
1334.43427	0.00089
1332.50590	0.00077
1330.57752	0.00052
1328.64915	0.00065
1326.72078	0.00074
1324.79240	0.00077
1322.86403	0.00068
1320.93566	0.00069
1319.00728	0.00074
1317.07891	0.00065
1315.15054	0.00040
1313.22216	0.00043
1311.29379	0.00072
1309.36542	0.00089
1307.43704	0.00074
1305.50867	0.00089
1303.58030	0.00091
1301.65192	0.00106
1299.72355	0.00107
1297.79518	0.00114
1295.86680	0.00117
1293.93843	0.00113
1292.01006	0.00106
1290.08168	0.00130
1288.15331	0.00158
1286.22494	0.00128
1284.29657	0.00089
1282.36819	0.00099
1280.43982	0.00133
1278.51145	0.00108
1276.58307	0.00096
1274.65470	0.00115
1272.72633	0.00101
1270.79795	0.00077
1268.86958	0.00060
1266.94121	0.00027
1265.01283	0.00050
1263.08446	0.00092
1261.15609	0.00184
1259.22771	0.00198
1257.29934	0.00131
1255.37097	0.00126
1253.44259	0.00110
1251.51422	0.00108
1249.58585	0.00141
1247.65747	0.00120
1245.72910	0.00103
1243.80073	0.00083
1241.87235	0.00084
1239.94398	0.00102
1238.01561	0.00138
1236.08723	0.00176
1234.15886	0.00160
1232.23049	0.00120
1230.30212	0.00238
1228.37374	0.00372
1226.44537	0.00395
1224.51700	0.00343
1222.58862	0.00312
1220.66025	0.00323
1218.73188	0.00330
1216.80350	0.00348
1214.87513	0.00374
1212.94676	0.00374
1211.01838	0.00385
1209.09001	0.00401
1207.16164	0.00375
1205.23326	0.00333
1203.30489	0.00405
1201.37652	0.00525
1199.44814	0.00619
1197.51977	0.00722
1195.59140	0.00812
1193.66302	0.00865
1191.73465	0.00889
1189.80628	0.00881
1187.87790	0.00880
1185.94953	0.00908
1184.02116	0.00906
1182.09278	0.00837
1180.16441	0.00732
1178.23604	0.00626
1176.30766	0.00543
1174.37929	0.00450
1172.45092	0.00305
1170.52255	0.00163
1168.59417	0.00103
1166.66580	0.00059
1164.73743	0.00095
1162.80905	0.00161
1160.88068	0.00166
1158.95231	0.00123
1157.02393	0.00112
1155.09556	0.00138
1153.16719	0.00123
1151.23881	0.00117
1149.31044	0.00186
1147.38207	0.00255
1145.45369	0.00323
1143.52532	0.00423
1141.59695	0.00535
1139.66857	0.00560
1137.74020	0.00436
1135.81183	0.00268
1133.88345	0.00176
1131.95508	0.00222
1130.02671	0.00217
1128.09833	0.00156
1126.16996	0.00132
1124.24159	0.00189
1122.31321	0.00192
1120.38484	0.00133
1118.45647	0.00107
1116.52809	0.00134
1114.59972	0.00100
1112.67135	0.00098
1110.74298	0.00099
1108.81460	0.00078
1106.88623	0.00138
1104.95786	0.00126
1103.02948	0.00155
1101.10111	0.00216
1099.17274	0.00190
1097.24436	0.00122
1095.31599	0.00129
1093.38762	0.00102
1091.45924	0.00068
1089.53087	0.00168
1087.60250	0.00215
1085.67412	0.00168
1083.74575	0.00124
1081.81738	0.00137
1079.88900	0.00141
1077.96063	0.00155
1076.03226	0.00195
1074.10388	0.00154
1072.17551	0.00070
1070.24714	0.00076
1068.31876	0.00145
1066.39039	0.00194
1064.46202	0.00250
1062.53364	0.00230
1060.60527	0.00167
1058.67690	0.00134
1056.74853	0.00128
1054.82015	0.00160
1052.89178	0.00199
1050.96341	0.00147
1049.03503	0.00090
1047.10666	0.00113
1045.17829	0.00149
1043.24991	0.00182
1041.32154	0.00131
1039.39317	0.00053
1037.46479	0.00085
1035.53642	0.00103
1033.60805	0.00059
1031.67967	0.00148
1029.75130	0.00182
1027.82293	0.00094
1025.89455	0.00088
1023.96618	0.00100
1022.03781	0.00127
1020.10943	0.00121
1018.18106	0.00096
1016.25269	0.00165
1014.32431	0.00201
1012.39594	0.00166
1010.46757	0.00133
1008.53919	0.00108
1006.61082	0.00155
1004.68245	0.00223
1002.75407	0.00342
1000.82570	0.00534
998.89733	0.00756
996.96896	0.00922
995.04058	0.01034
993.11221	0.01137
991.18384	0.01259
989.25546	0.01409
987.32709	0.01591
985.39872	0.01728
983.47034	0.01736
981.54197	0.01674
979.61360	0.01617
977.68522	0.01583
975.75685	0.01616
973.82848	0.01739
971.90010	0.01954
969.97173	0.02272
968.04336	0.02650
966.11498	0.02992
964.18661	0.03180
962.25824	0.03078
960.32986	0.02646
958.40149	0.02042
956.47312	0.01550
954.54474	0.01369
952.61637	0.01510
950.68800	0.01868
948.75962	0.02320
946.83125	0.02765
944.90288	0.03161
942.97451	0.03522
941.04613	0.03882
939.11776	0.04223
937.18939	0.04479
935.26101	0.04648
933.33264	0.04792
931.40427	0.04897
929.47589	0.04901
927.54752	0.04884
925.61915	0.04883
923.69077	0.04765
921.76240	0.04552
919.83403	0.04468
917.90565	0.04566
915.97728	0.04668
914.04891	0.04673
912.12053	0.04589
910.19216	0.04365
908.26379	0.03975
906.33541	0.03557
904.40704	0.03237
902.47867	0.03014
900.55029	0.02845
898.62192	0.02642
896.69355	0.02430
894.76517	0.02385
892.83680	0.02475
890.90843	0.02509
888.98005	0.02471
887.05168	0.02465
885.12331	0.02549
883.19494	0.02703
881.26656	0.02837
879.33819	0.02856
877.40982	0.02786
875.48144	0.02752
873.55307	0.02796
871.62470	0.02834
869.69632	0.02753
867.76795	0.02582
865.83958	0.02484
863.91120	0.02513
861.98283	0.02627
860.05446	0.02765
858.12608	0.02822
856.19771	0.02761
854.26934	0.02659
852.34096	0.02555
850.41259	0.02448
848.48422	0.02397
846.55584	0.02408
844.62747	0.02398
842.69910	0.02300
840.77072	0.02132
838.84235	0.01997
836.91398	0.01929
834.98560	0.01854
833.05723	0.01770
831.12886	0.01710
829.20049	0.01647
827.27211	0.01527
825.34374	0.01375
823.41537	0.01263
821.48699	0.01175
819.55862	0.01108
817.63025	0.01157
815.70187	0.01287
813.77350	0.01342
811.84513	0.01328
809.91675	0.01300
807.98838	0.01210
806.06001	0.01050
804.13163	0.00932
802.20326	0.00922
800.27489	0.00926
798.34651	0.00791
796.41814	0.00596
794.48977	0.00493
792.56139	0.00466
790.63302	0.00433
788.70465	0.00424
786.77627	0.00450
784.84790	0.00439
782.91953	0.00403
780.99115	0.00386
779.06278	0.00382
777.13441	0.00478
775.20603	0.00523
773.27766	0.00504
771.34929	0.00473
769.42092	0.00382
767.49254	0.00291
765.56417	0.00301
763.63580	0.00294
761.70742	0.00277
759.77905	0.00272
757.85068	0.00283
755.92230	0.00300
753.99393	0.00273
752.06556	0.00189
750.13718	0.00098
748.20881	0.00120
746.28044	0.00175
744.35206	0.00294
742.42369	0.00348
740.49532	0.00266
738.56694	0.00200
736.63857	0.00254
734.71020	0.00404
732.78182	0.00482
730.85345	0.00467
728.92508	0.00431
726.99670	0.00371
725.06833	0.00331
723.13996	0.00306
721.21158	0.00301
719.28321	0.00271
717.35484	0.00218
715.42647	0.00155
713.49809	0.00217
711.56972	0.00368
709.64135	0.00419
707.71297	0.00346
705.78460	0.00198
703.85623	0.00121
701.92785	0.00226
699.99948	0.00241
698.07111	0.00201
696.14273	0.00189
694.21436	0.00260
692.28599	0.00226
690.35761	0.00288
688.42924	0.00282
686.50087	0.00376
684.57249	0.00538
682.64412	0.00561
680.71575	0.00616
678.78737	0.00673
676.85900	0.00636
674.93063	0.00562
673.00225	0.00621
671.07388	0.00818
669.14551	0.00987
667.21713	0.00714
665.28876	0.00447
663.36039	0.00510
661.43201	0.00500
659.50364	0.00445
657.57527	0.00505
655.64690	0.00588
653.71852	0.00494
651.79015	0.00777
649.86178	0.00861
647.93340	0.00762
646.00503	0.00553
644.07666	0.00323
642.14828	0.00217
640.21991	0.00291
638.29154	0.00546
636.36316	0.00570
634.43479	0.00240
632.50642	0.00118
630.57804	0.00266
628.64967	0.00324
626.72130	0.00218
624.79292	0.00332
622.86455	0.00666
620.93618	0.00764
619.00780	0.00541
617.07943	0.00567
615.15106	0.00487
613.22268	0.00587
611.29431	0.00750
609.36594	0.00978
607.43756	0.00765
605.50919	0.00550
603.58082	0.00564
601.65244	0.00713
599.72407	0.01082
