3997.51769	0.09403
3995.58931	0.09403
3993.66094	0.09436
3991.73257	0.09456
3989.80419	0.09477
3987.87582	0.09509
3985.94745	0.09512
3984.01907	0.09486
3982.09070	0.09456
3980.16233	0.09419
3978.23396	0.09417
3976.30558	0.09497
3974.37721	0.09600
3972.44884	0.09620
3970.52046	0.09577
3968.59209	0.09570
3966.66372	0.09601
3964.73534	0.09620
3962.80697	0.09622
3960.87860	0.09606
3958.95022	0.09596
3957.02185	0.09635
3955.09348	0.09708
3953.16510	0.09765
3951.23673	0.09776
3949.30836	0.09754
3947.37998	0.09751
3945.45161	0.09786
3943.52324	0.09821
3941.59486	0.09821
3939.66649	0.09805
3937.73812	0.09817
3935.80974	0.09839
3933.88137	0.09855
3931.95300	0.09877
3930.02462	0.09881
3928.09625	0.09876
3926.16788	0.09890
3924.23950	0.09907
3922.31113	0.09945
3920.38276	0.10019
3918.45439	0.10092
3916.52601	0.10123
3914.59764	0.10086
3912.66927	0.10030
3910.74089	0.10019
3908.81252	0.10052
3906.88415	0.10123
3904.95577	0.10228
3903.02740	0.10287
3901.09903	0.10269
3899.17065	0.10228
3897.24228	0.10204
3895.31391	0.10224
3893.38553	0.10284
3891.45716	0.10353
3889.52879	0.10385
3887.60041	0.10363
3885.67204	0.10331
3883.74367	0.10376
3881.81529	0.10469
3879.88692	0.10486
3877.95855	0.10461
3876.03017	0.10497
3874.10180	0.10533
3872.17343	0.10543
3870.24505	0.10587
3868.31668	0.10621
3866.38831	0.10628
3864.45994	0.10635
3862.53156	0.10628
3860.60319	0.10623
3858.67482	0.10627
3856.74644	0.10643
3854.81807	0.10732
3852.88970	0.10868
3850.96132	0.10826
3849.03295	0.10703
3847.10458	0.10650
3845.17620	0.10695
3843.24783	0.10784
3841.31946	0.10825
3839.39108	0.10801
3837.46271	0.10782
3835.53434	0.10822
3833.60596	0.10879
3831.67759	0.10889
3829.74922	0.10850
3827.82084	0.10828
3825.89247	0.10837
3823.96410	0.10851
3822.03572	0.10878
3820.10735	0.10896
3818.17898	0.10903
3816.25060	0.10929
3814.32223	0.10918
3812.39386	0.10878
3810.46548	0.10891
3808.53711	0.10963
3806.60874	0.10989
3804.68037	0.10925
3802.75199	0.10890
3800.82362	0.10900
3798.89525	0.10864
3796.96687	0.10793
3795.03850	0.10727
3793.11013	0.10697
3791.18175	0.10722
3789.25338	0.10777
3787.32501	0.10831
3785.39663	0.10885
3783.46826	0.10914
3781.53989	0.10904
3779.61151	0.10869
3777.68314	0.10815
3775.75477	0.10777
3773.82639	0.10758
3771.89802	0.10740
3769.96965	0.10734
3768.04127	0.10746
3766.11290	0.10762
3764.18453	0.10771
3762.25615	0.10780
3760.32778	0.10779
3758.39941	0.10745
3756.47103	0.10733
3754.54266	0.10789
3752.61429	0.10891
3750.68591	0.10935
3748.75754	0.10859
3746.82917	0.10808
3744.90080	0.10771
3742.97242	0.10664
3741.04405	0.10587
3739.11568	0.10582
3737.18730	0.10596
3735.25893	0.10577
3733.33056	0.10512
3731.40218	0.10432
3729.47381	0.10401
3727.54544	0.10422
3725.61706	0.10418
3723.68869	0.10339
3721.76032	0.10232
3719.83194	0.10144
3717.90357	0.10084
3715.97520	0.10053
3714.04682	0.10068
3712.11845	0.10133
3710.19008	0.10118
3708.26170	0.09934
3706.33333	0.09721
3704.40496	0.09582
3702.47658	0.09494
3700.54821	0.09392
3698.61984	0.09274
3696.69146	0.09167
3694.76309	0.09076
3692.83472	0.08981
3690.90635	0.08866
3688.97797	0.08715
3687.04960	0.08472
3685.12123	0.08152
3683.19285	0.07847
3681.26448	0.07638
3679.33611	0.07532
3677.40773	0.07439
3675.47936	0.07151
3673.55099	0.06712
3671.62261	0.06393
3669.69424	0.06101
3667.76587	0.05783
3665.83749	0.05503
3663.90912	0.05224
3661.98075	0.04938
3660.05237	0.04666
3658.12400	0.04406
3656.19563	0.04122
3654.26725	0.03859
3652.33888	0.03648
3650.41051	0.03433
3648.48213	0.03176
3646.55376	0.02908
3644.62539	0.02680
3642.69701	0.02502
3640.76864	0.02341
3638.84027	0.02164
3636.91189	0.01974
3634.98352	0.01804
3633.05515	0.01673
3631.12678	0.01550
3629.19840	0.01401
3627.27003	0.01272
3625.34166	0.01179
3623.41328	0.01091
3621.48491	0.01016
3619.55654	0.00939
3617.62816	0.00854
3615.69979	0.00766
3613.77142	0.00671
3611.84304	0.00590
3609.91467	0.00535
3607.98630	0.00499
3606.05792	0.00480
3604.12955	0.00494
3602.20118	0.00514
3600.27280	0.00481
3598.34443	0.00439
3596.41606	0.00434
3594.48768	0.00424
3592.55931	0.00381
3590.63094	0.00308
3588.70256	0.00239
3586.77419	0.00250
3584.84582	0.00275
3582.91744	0.00270
3580.98907	0.00234
3579.06070	0.00201
3577.13233	0.00189
3575.20395	0.00157
3573.27558	0.00094
3571.34721	0.00060
3569.41883	0.00104
3567.49046	0.00076
3565.56209	0.00097
3563.63371	0.00122
3561.70534	0.00085
3559.77697	0.00074
3557.84859	0.00097
3555.92022	0.00129
3553.99185	0.00162
3552.06347	0.00180
3550.13510	0.00169
3548.20673	0.00098
3546.27835	0.00067
3544.34998	0.00123
3542.42161	0.00117
3540.49323	0.00083
3538.56486	0.00064
3536.63649	0.00066
3534.70811	0.00060
3532.77974	0.00047
3530.85137	0.00066
3528.92299	0.00088
3526.99462	0.00052
3525.06625	0.00081
3523.13787	0.00049
3521.20950	0.00087
3519.28113	0.00102
3517.35276	0.00127
3515.42438	0.00128
3513.49601	0.00102
3511.56764	0.00071
3509.63926	0.00090
3507.71089	0.00106
3505.78252	0.00072
3503.85414	0.00053
3501.92577	0.00125
3499.99740	0.00128
3498.06902	0.00068
3496.14065	0.00048
3494.21228	0.00076
3492.28390	0.00074
3490.35553	0.00063
3488.42716	0.00075
3486.49878	0.00111
3484.57041	0.00104
3482.64204	0.00076
3480.71366	0.00062
3478.78529	0.00033
3476.85692	0.00039
3474.92854	0.00016
3473.00017	0.00079
3471.07180	0.00080
3469.14342	0.00030
3467.21505	0.00050
3465.28668	0.00093
3463.35831	0.00102
3461.42993	0.00078
3459.50156	0.00077
3457.57319	0.00088
3455.64481	0.00090
3453.71644	0.00090
3451.78807	0.00100
3449.85969	0.00117
3447.93132	0.00128
3446.00295	0.00140
3444.07457	0.00123
3442.14620	0.00109
3440.21783	0.00100
3438.28945	0.00097
3436.36108	0.00084
3434.43271	0.00063
3432.50433	0.00114
3430.57596	0.00111
3428.64759	0.00074
3426.71921	0.00067
3424.79084	0.00087
3422.86247	0.00132
3420.93409	0.00095
3419.00572	0.00081
3417.07735	0.00082
3415.14897	0.00099
3413.22060	0.00098
3411.29223	0.00108
3409.36385	0.00126
3407.43548	0.00070
3405.50711	0.00068
3403.57874	0.00065
3401.65036	0.00061
3399.72199	0.00058
3397.79362	0.00048
3395.86524	0.00060
3393.93687	0.00058
3392.00850	0.00067
3390.08012	0.00048
3388.15175	0.00062
3386.22338	0.00075
3384.29500	0.00049
3382.36663	0.00062
3380.43826	0.00049
3378.50988	0.00056
3376.58151	0.00075
3374.65314	0.00064
3372.72476	0.00104
3370.79639	0.00136
3368.86802	0.00115
3366.93964	0.00076
3365.01127	0.00097
3363.08290	0.00114
3361.15452	0.00090
3359.22615	0.00053
3357.29778	0.00064
3355.36940	0.00026
3353.44103	0.00039
3351.51266	0.00041
3349.58428	0.00057
3347.65591	0.00079
3345.72754	0.00078
3343.79917	0.00069
3341.87079	0.00056
3339.94242	0.00030
3338.01405	0.00070
3336.08567	0.00088
3334.15730	0.00062
3332.22893	0.00064
3330.30055	0.00079
3328.37218	0.00078
3326.44381	0.00051
3324.51543	0.00015
3322.58706	0.00099
3320.65869	0.00115
3318.73031	0.00081
3316.80194	0.00085
3314.87357	0.00074
3312.94519	0.00070
3311.01682	0.00050
3309.08845	0.00073
3307.16007	0.00065
3305.23170	0.00044
3303.30333	0.00045
3301.37495	0.00040
3299.44658	0.00059
3297.51821	0.00051
3295.58983	0.00055
3293.66146	0.00054
3291.73309	0.00042
3289.80472	0.00054
3287.87634	0.00074
3285.94797	0.00069
3284.01960	0.00083
3282.09122	0.00103
3280.16285	0.00049
3278.23448	0.00053
3276.30610	0.00063
3274.37773	0.00039
3272.44936	0.00058
3270.52098	0.00080
3268.59261	0.00062
3266.66424	0.00087
3264.73586	0.00113
3262.80749	0.00117
3260.87912	0.00110
3258.95074	0.00062
3257.02237	0.00035
3255.09400	0.00046
3253.16562	0.00037
3251.23725	0.00014
3249.30888	0.00053
3247.38050	0.00104
3245.45213	0.00103
3243.52376	0.00087
3241.59538	0.00082
3239.66701	0.00086
3237.73864	0.00068
3235.81026	0.00070
3233.88189	0.00080
3231.95352	0.00084
3230.02515	0.00068
3228.09677	0.00098
3226.16840	0.00081
3224.24003	0.00047
3222.31165	0.00083
3220.38328	0.00100
3218.45491	0.00096
3216.52653	0.00093
3214.59816	0.00126
3212.66979	0.00084
3210.74141	0.00027
3208.81304	0.00078
3206.88467	0.00070
3204.95629	0.00066
3203.02792	0.00074
3201.09955	0.00117
3199.17117	0.00128
3197.24280	0.00082
3195.31443	0.00054
3193.38605	0.00063
3191.45768	0.00052
3189.52931	0.00077
3187.60093	0.00081
3185.67256	0.00079
3183.74419	0.00084
3181.81581	0.00076
3179.88744	0.00064
3177.95907	0.00098
3176.03070	0.00118
3174.10232	0.00083
3172.17395	0.00029
3170.24558	0.00071
3168.31720	0.00075
3166.38883	0.00053
3164.46046	0.00066
3162.53208	0.00052
3160.60371	0.00072
3158.67534	0.00087
3156.74696	0.00074
3154.81859	0.00072
3152.89022	0.00110
3150.96184	0.00134
3149.03347	0.00108
3147.10510	0.00071
3145.17672	0.00074
3143.24835	0.00097
3141.31998	0.00095
3139.39160	0.00070
3137.46323	0.00060
3135.53486	0.00079
3133.60648	0.00071
3131.67811	0.00043
3129.74974	0.00072
3127.82136	0.00066
3125.89299	0.00024
3123.96462	0.00047
3122.03624	0.00071
3120.10787	0.00085
3118.17950	0.00084
3116.25113	0.00062
3114.32275	0.00083
3112.39438	0.00087
3110.46601	0.00077
3108.53763	0.00051
3106.60926	0.00038
3104.68089	0.00036
3102.75251	0.00053
3100.82414	0.00053
3098.89577	0.00072
3096.96739	0.00080
3095.03902	0.00079
3093.11065	0.00067
3091.18227	0.00078
3089.25390	0.00087
3087.32553	0.00055
3085.39715	0.00025
3083.46878	0.00037
3081.54041	0.00075
3079.61203	0.00089
3077.68366	0.00086
3075.75529	0.00080
3073.82691	0.00118
3071.89854	0.00146
3069.97017	0.00128
3068.04179	0.00090
3066.11342	0.00067
3064.18505	0.00043
3062.25668	0.00040
3060.32830	0.00068
3058.39993	0.00086
3056.47156	0.00056
3054.54318	0.00049
3052.61481	0.00061
3050.68644	0.00064
3048.75806	0.00063
3046.82969	0.00074
3044.90132	0.00107
3042.97294	0.00134
3041.04457	0.00120
3039.11620	0.00089
3037.18782	0.00101
3035.25945	0.00078
3033.33108	0.00063
3031.40270	0.00072
3029.47433	0.00082
3027.54596	0.00057
3025.61758	0.00077
3023.68921	0.00096
3021.76084	0.00070
3019.83246	0.00076
3017.90409	0.00068
3015.97572	0.00096
3014.04734	0.00100
3012.11897	0.00058
3010.19060	0.00063
3008.26222	0.00084
3006.33385	0.00085
3004.40548	0.00082
3002.47711	0.00106
3000.54873	0.00103
2998.62036	0.00056
2996.69199	0.00018
2994.76361	0.00058
2992.83524	0.00087
2990.90687	0.00083
2988.97849	0.00053
2987.05012	0.00067
2985.12175	0.00070
2983.19337	0.00108
2981.26500	0.00080
2979.33663	0.00062
2977.40825	0.00047
2975.47988	0.00044
2973.55151	0.00059
2971.62313	0.00070
2969.69476	0.00092
2967.76639	0.00106
2965.83801	0.00129
2963.90964	0.00116
2961.98127	0.00111
2960.05289	0.00113
2958.12452	0.00120
2956.19615	0.00130
2954.26777	0.00128
2952.33940	0.00131
2950.41103	0.00144
2948.48266	0.00137
2946.55428	0.00129
2944.62591	0.00143
2942.69754	0.00135
2940.76916	0.00110
2938.84079	0.00112
2936.91242	0.00146
2934.98404	0.00121
2933.05567	0.00100
2931.12730	0.00106
2929.19892	0.00071
2927.27055	0.00096
2925.34218	0.00134
2923.41380	0.00139
2921.48543	0.00194
2919.55706	0.00195
2917.62868	0.00157
2915.70031	0.00114
2913.77194	0.00086
2911.84356	0.00115
2909.91519	0.00140
2907.98682	0.00129
2906.05844	0.00104
2904.13007	0.00096
2902.20170	0.00108
2900.27332	0.00112
2898.34495	0.00088
2896.41658	0.00079
2894.48820	0.00131
2892.55983	0.00107
2890.63146	0.00037
2888.70309	0.00035
2886.77471	0.00049
2884.84634	0.00014
2882.91797	0.00024
2880.98959	0.00042
2879.06122	0.00054
2877.13285	0.00074
2875.20447	0.00073
2873.27610	0.00077
2871.34773	0.00100
2869.41935	0.00085
2867.49098	0.00056
2865.56261	0.00052
2863.63423	0.00024
2861.70586	0.00016
2859.77749	0.00069
2857.84911	0.00102
2855.92074	0.00070
2853.99237	0.00084
2852.06399	0.00096
2850.13562	0.00081
2848.20725	0.00074
2846.27887	0.00108
2844.35050	0.00120
2842.42213	0.00087
2840.49375	0.00058
2838.56538	0.00039
2836.63701	0.00045
2834.70863	0.00059
2832.78026	0.00066
2830.85189	0.00067
2828.92352	0.00077
2826.99514	0.00115
2825.06677	0.00131
2823.13840	0.00106
2821.21002	0.00095
2819.28165	0.00087
2817.35328	0.00081
2815.42490	0.00058
2813.49653	0.00040
2811.56816	0.00030
2809.63978	0.00049
2807.71141	0.00073
2805.78304	0.00087
2803.85466	0.00085
2801.92629	0.00083
2799.99792	0.00086
2798.06954	0.00091
2796.14117	0.00080
2794.21280	0.00076
2792.28442	0.00090
2790.35605	0.00093
2788.42768	0.00086
2786.49930	0.00098
2784.57093	0.00112
2782.64256	0.00114
2780.71418	0.00118
2778.78581	0.00130
2776.85744	0.00147
2774.92907	0.00142
2773.00069	0.00117
2771.07232	0.00088
2769.14395	0.00082
2767.21557	0.00111
2765.28720	0.00142
2763.35883	0.00130
2761.43045	0.00119
2759.50208	0.00119
2757.57371	0.00123
2755.64533	0.00127
2753.71696	0.00123
2751.78859	0.00117
2749.86021	0.00115
2747.93184	0.00121
2746.00347	0.00146
2744.07509	0.00180
2742.14672	0.00195
2740.21835	0.00190
2738.28997	0.00191
2736.36160	0.00217
2734.43323	0.00249
2732.50485	0.00263
2730.57648	0.00239
2728.64811	0.00210
2726.71973	0.00231
2724.79136	0.00285
2722.86299	0.00333
2720.93461	0.00341
2719.00624	0.00305
2717.07787	0.00274
2715.14950	0.00281
2713.22112	0.00291
2711.29275	0.00295
2709.36438	0.00309
2707.43600	0.00322
2705.50763	0.00338
2703.57926	0.00348
2701.65088	0.00357
2699.72251	0.00359
2697.79414	0.00345
2695.86576	0.00340
2693.93739	0.00369
2692.00902	0.00407
2690.08064	0.00403
2688.15227	0.00386
2686.22390	0.00405
2684.29552	0.00423
2682.36715	0.00414
2680.43878	0.00412
2678.51040	0.00422
2676.58203	0.00420
2674.65366	0.00407
2672.72528	0.00407
2670.79691	0.00428
2668.86854	0.00445
2666.94016	0.00450
2665.01179	0.00462
2663.08342	0.00484
2661.15505	0.00503
2659.22667	0.00517
2657.29830	0.00541
2655.36993	0.00570
2653.44155	0.00569
2651.51318	0.00530
2649.58481	0.00503
2647.65643	0.00523
2645.72806	0.00561
2643.79969	0.00565
2641.87131	0.00544
2639.94294	0.00552
2638.01457	0.00584
2636.08619	0.00591
2634.15782	0.00588
2632.22945	0.00600
2630.30107	0.00611
2628.37270	0.00609
2626.44433	0.00613
2624.51595	0.00638
2622.58758	0.00670
2620.65921	0.00676
2618.73083	0.00657
2616.80246	0.00658
2614.87409	0.00684
2612.94571	0.00711
2611.01734	0.00743
2609.08897	0.00777
2607.16059	0.00797
2605.23222	0.00812
2603.30385	0.00835
2601.37548	0.00862
2599.44710	0.00891
2597.51873	0.00910
2595.59036	0.00900
2593.66198	0.00888
2591.73361	0.00908
2589.80524	0.00928
2587.87686	0.00933
2585.94849	0.00954
2584.02012	0.00984
2582.09174	0.01009
2580.16337	0.01045
2578.23500	0.01076
2576.30662	0.01067
2574.37825	0.01054
2572.44988	0.01067
2570.52150	0.01091
2568.59313	0.01121
2566.66476	0.01154
2564.73638	0.01172
2562.80801	0.01188
2560.87964	0.01217
2558.95126	0.01234
2557.02289	0.01231
2555.09452	0.01243
2553.16614	0.01278
2551.23777	0.01303
2549.30940	0.01315
2547.38103	0.01334
2545.45265	0.01374
2543.52428	0.01421
2541.59591	0.01457
2539.66753	0.01485
2537.73916	0.01508
2535.81079	0.01528
2533.88241	0.01553
2531.95404	0.01573
2530.02567	0.01565
2528.09729	0.01544
2526.16892	0.01540
2524.24055	0.01567
2522.31217	0.01616
2520.38380	0.01657
2518.45543	0.01684
2516.52705	0.01711
2514.59868	0.01734
2512.67031	0.01732
2510.74193	0.01705
2508.81356	0.01681
2506.88519	0.01678
2504.95681	0.01697
2503.02844	0.01742
2501.10007	0.01795
2499.17169	0.01814
2497.24332	0.01799
2495.31495	0.01786
2493.38657	0.01816
2491.45820	0.01887
2489.52983	0.01950
2487.60146	0.01974
2485.67308	0.01976
2483.74471	0.01988
2481.81634	0.02024
2479.88796	0.02059
2477.95959	0.02080
2476.03122	0.02097
2474.10284	0.02115
2472.17447	0.02131
2470.24610	0.02157
2468.31772	0.02193
2466.38935	0.02230
2464.46098	0.02260
2462.53260	0.02282
2460.60423	0.02302
2458.67586	0.02336
2456.74748	0.02380
2454.81911	0.02393
2452.89074	0.02388
2450.96236	0.02426
2449.03399	0.02495
2447.10562	0.02536
2445.17724	0.02550
2443.24887	0.02565
2441.32050	0.02586
2439.39212	0.02602
2437.46375	0.02616
2435.53538	0.02651
2433.60700	0.02694
2431.67863	0.02720
2429.75026	0.02742
2427.82189	0.02775
2425.89351	0.02799
2423.96514	0.02815
2422.03677	0.02833
2420.10839	0.02848
2418.18002	0.02862
2416.25165	0.02883
2414.32327	0.02913
2412.39490	0.02953
2410.46653	0.02994
2408.53815	0.03032
2406.60978	0.03069
2404.68141	0.03101
2402.75303	0.03115
2400.82466	0.03125
2398.89629	0.03167
2396.96791	0.03233
2395.03954	0.03276
2393.11117	0.03290
2391.18279	0.03313
2389.25442	0.03355
2387.32605	0.03374
2385.39767	0.03362
2383.46930	0.03382
2381.54093	0.03462
2379.61255	0.03549
2377.68418	0.03602
2375.75581	0.03664
2373.82744	0.03756
2371.89906	0.03832
2369.97069	0.03894
2368.04232	0.03985
2366.11394	0.04085
2364.18557	0.04147
2362.25720	0.04088
2360.32882	0.03904
2358.40045	0.03793
2356.47208	0.03843
2354.54370	0.03895
2352.61533	0.03906
2350.68696	0.03940
2348.75858	0.03977
2346.83021	0.03988
2344.90184	0.04006
2342.97346	0.04095
2341.04509	0.04208
2339.11672	0.04222
2337.18834	0.04109
2335.25997	0.04027
2333.33160	0.04080
2331.40322	0.04179
2329.47485	0.04253
2327.54648	0.04309
2325.61810	0.04336
2323.68973	0.04346
2321.76136	0.04331
2319.83298	0.04285
2317.90461	0.04241
2315.97624	0.04224
2314.04787	0.04262
2312.11949	0.04376
2310.19112	0.04493
2308.26275	0.04514
2306.33437	0.04455
2304.40600	0.04417
2302.47763	0.04467
2300.54925	0.04562
2298.62088	0.04620
2296.69251	0.04640
2294.76413	0.04660
2292.83576	0.04677
2290.90739	0.04688
2288.97901	0.04705
2287.05064	0.04717
2285.12227	0.04716
2283.19389	0.04715
2281.26552	0.04726
2279.33715	0.04759
2277.40877	0.04808
2275.48040	0.04844
2273.55203	0.04854
2271.62365	0.04854
2269.69528	0.04860
2267.76691	0.04873
2265.83853	0.04896
2263.91016	0.04927
2261.98179	0.04956
2260.05342	0.04974
2258.12504	0.04978
2256.19667	0.04969
2254.26830	0.04959
2252.33992	0.04972
2250.41155	0.05001
2248.48318	0.05037
2246.55480	0.05085
2244.62643	0.05117
2242.69806	0.05114
2240.76968	0.05119
2238.84131	0.05154
2236.91294	0.05200
2234.98456	0.05236
2233.05619	0.05252
2231.12782	0.05249
2229.19944	0.05241
2227.27107	0.05250
2225.34270	0.05281
2223.41432	0.05311
2221.48595	0.05311
2219.55758	0.05291
2217.62920	0.05297
2215.70083	0.05344
2213.77246	0.05383
2211.84408	0.05381
2209.91571	0.05372
2207.98734	0.05374
2206.05896	0.05366
2204.13059	0.05356
2202.20222	0.05358
2200.27385	0.05362
2198.34547	0.05369
2196.41710	0.05389
2194.48873	0.05402
2192.56035	0.05397
2190.63198	0.05392
2188.70361	0.05396
2186.77523	0.05396
2184.84686	0.05400
2182.91849	0.05423
2180.99011	0.05450
2179.06174	0.05464
2177.13337	0.05468
2175.20499	0.05478
2173.27662	0.05489
2171.34825	0.05486
2169.41987	0.05478
2167.49150	0.05473
2165.56313	0.05473
2163.63475	0.05490
2161.70638	0.05510
2159.77801	0.05509
2157.84963	0.05499
2155.92126	0.05509
2153.99289	0.05538
2152.06451	0.05559
2150.13614	0.05560
2148.20777	0.05553
2146.27940	0.05544
2144.35102	0.05536
2142.42265	0.05539
2140.49428	0.05552
2138.56590	0.05568
2136.63753	0.05575
2134.70916	0.05577
2132.78078	0.05601
2130.85241	0.05650
2128.92404	0.05687
2126.99566	0.05692
2125.06729	0.05678
2123.13892	0.05665
2121.21054	0.05674
2119.28217	0.05713
2117.35380	0.05768
2115.42542	0.05804
2113.49705	0.05799
2111.56868	0.05794
2109.64030	0.05827
2107.71193	0.05859
2105.78356	0.05868
2103.85518	0.05885
2101.92681	0.05907
2099.99844	0.05916
2098.07006	0.05935
2096.14169	0.05970
2094.21332	0.05993
2092.28494	0.05997
2090.35657	0.05993
2088.42820	0.05992
2086.49983	0.05998
2084.57145	0.05998
2082.64308	0.05993
2080.71471	0.06001
2078.78633	0.06014
2076.85796	0.06014
2074.92959	0.06002
2073.00121	0.05988
2071.07284	0.05977
2069.14447	0.05977
2067.21609	0.05997
2065.28772	0.06027
2063.35935	0.06041
2061.43097	0.06038
2059.50260	0.06040
2057.57423	0.06064
2055.64585	0.06085
2053.71748	0.06087
2051.78911	0.06092
2049.86073	0.06121
2047.93236	0.06157
2046.00399	0.06174
2044.07561	0.06177
2042.14724	0.06181
2040.21887	0.06196
2038.29049	0.06218
2036.36212	0.06232
2034.43375	0.06251
2032.50538	0.06294
2030.57700	0.06325
2028.64863	0.06316
2026.72026	0.06298
2024.79188	0.06296
2022.86351	0.06301
2020.93514	0.06310
2019.00676	0.06341
2017.07839	0.06384
2015.15002	0.06401
2013.22164	0.06399
2011.29327	0.06408
2009.36490	0.06433
2007.43652	0.06454
2005.50815	0.06464
2003.57978	0.06476
2001.65140	0.06491
1999.72303	0.06492
1997.79466	0.06485
1995.86628	0.06499
1993.93791	0.06525
1992.00954	0.06537
1990.08116	0.06532
1988.15279	0.06516
1986.22442	0.06497
1984.29604	0.06496
1982.36767	0.06525
1980.43930	0.06573
1978.51092	0.06613
1976.58255	0.06618
1974.65418	0.06599
1972.72581	0.06582
1970.79743	0.06576
1968.86906	0.06582
1966.94069	0.06600
1965.01231	0.06623
1963.08394	0.06648
1961.15557	0.06678
1959.22719	0.06711
1957.29882	0.06741
1955.37045	0.06760
1953.44207	0.06769
1951.51370	0.06786
1949.58533	0.06808
1947.65695	0.06812
1945.72858	0.06794
1943.80021	0.06789
1941.87183	0.06813
1939.94346	0.06839
1938.01509	0.06853
1936.08671	0.06855
1934.15834	0.06860
1932.22997	0.06876
1930.30159	0.06882
1928.37322	0.06868
1926.44485	0.06851
1924.51647	0.06856
1922.58810	0.06885
1920.65973	0.06918
1918.73135	0.06937
1916.80298	0.06932
1914.87461	0.06912
1912.94624	0.06895
1911.01786	0.06897
1909.08949	0.06910
1907.16112	0.06921
1905.23274	0.06927
1903.30437	0.06934
1901.37600	0.06945
1899.44762	0.06959
1897.51925	0.06958
1895.59088	0.06922
1893.66250	0.06883
1891.73413	0.06888
1889.80576	0.06916
1887.87738	0.06915
1885.94901	0.06892
1884.02064	0.06875
1882.09226	0.06869
1880.16389	0.06871
1878.23552	0.06872
1876.30714	0.06861
1874.37877	0.06840
1872.45040	0.06831
1870.52202	0.06856
1868.59365	0.06884
1866.66528	0.06853
1864.73690	0.06799
1862.80853	0.06771
1860.88016	0.06764
1858.95179	0.06757
1857.02341	0.06731
1855.09504	0.06690
1853.16667	0.06674
1851.23829	0.06690
1849.30992	0.06698
1847.38155	0.06680
1845.45317	0.06657
1843.52480	0.06642
1841.59643	0.06615
1839.66805	0.06578
1837.73968	0.06547
1835.81131	0.06535
1833.88293	0.06535
1831.95456	0.06547
1830.02619	0.06555
1828.09781	0.06530
1826.16944	0.06480
1824.24107	0.06417
1822.31269	0.06353
1820.38432	0.06289
1818.45595	0.06214
1816.52757	0.06140
1814.59920	0.06070
1812.67083	0.05987
1810.74245	0.05899
1808.81408	0.05820
1806.88571	0.05730
1804.95733	0.05624
1803.02896	0.05507
1801.10059	0.05359
1799.17222	0.05183
1797.24384	0.05024
1795.31547	0.04896
1793.38710	0.04745
1791.45872	0.04529
1789.53035	0.04308
1787.60198	0.04127
1785.67360	0.03971
1783.74523	0.03826
1781.81686	0.03682
1779.88848	0.03535
1777.96011	0.03394
1776.03174	0.03260
1774.10336	0.03112
1772.17499	0.02963
1770.24662	0.02836
1768.31824	0.02703
1766.38987	0.02558
1764.46150	0.02430
1762.53312	0.02291
1760.60475	0.02103
1758.67638	0.01887
1756.74800	0.01638
1754.81963	0.01384
1752.89126	0.01159
1750.96288	0.00947
1749.03451	0.00770
1747.10614	0.00626
1745.17777	0.00472
1743.24939	0.00308
1741.32102	0.00168
1739.39265	0.00104
1737.46427	0.00100
1735.53590	0.00118
1733.60753	0.00168
1731.67915	0.00145
1729.75078	0.00092
1727.82241	0.00064
1725.89403	0.00045
1723.96566	0.00050
1722.03729	0.00053
1720.10891	0.00045
1718.18054	0.00056
1716.25217	0.00088
1714.32379	0.00038
1712.39542	0.00035
1710.46705	0.00068
1708.53867	0.00098
1706.61030	0.00092
1704.68193	0.00060
1702.75355	0.00070
1700.82518	0.00090
1698.89681	0.00067
1696.96843	0.00035
1695.04006	0.00042
1693.11169	0.00067
1691.18331	0.00086
1689.25494	0.00064
1687.32657	0.00053
1685.39820	0.00073
1683.46982	0.00075
1681.54145	0.00058
1679.61308	0.00046
1677.68470	0.00020
1675.75633	0.00069
1673.82796	0.00099
1671.89958	0.00069
1669.97121	0.00063
1668.04284	0.00060
1666.11446	0.00063
1664.18609	0.00067
1662.25772	0.00049
1660.32934	0.00012
1658.40097	0.00041
1656.47260	0.00084
1654.54422	0.00131
1652.61585	0.00117
1650.68748	0.00050
1648.75910	0.00058
1646.83073	0.00056
1644.90236	0.00025
1642.97398	0.00048
1641.04561	0.00079
1639.11724	0.00106
1637.18886	0.00117
1635.26049	0.00098
1633.33212	0.00066
1631.40375	0.00067
1629.47537	0.00072
1627.54700	0.00068
1625.61863	0.00059
1623.69025	0.00037
1621.76188	0.00045
1619.83351	0.00057
1617.90513	0.00041
1615.97676	0.00058
1614.04839	0.00083
1612.12001	0.00062
1610.19164	0.00047
1608.26327	0.00044
1606.33489	0.00046
1604.40652	0.00067
1602.47815	0.00077
1600.54977	0.00067
1598.62140	0.00063
1596.69303	0.00071
1594.76465	0.00061
1592.83628	0.00034
1590.90791	0.00034
1588.97953	0.00061
1587.05116	0.00077
1585.12279	0.00070
1583.19441	0.00048
1581.26604	0.00037
1579.33767	0.00052
1577.40929	0.00070
1575.48092	0.00073
1573.55255	0.00063
1571.62418	0.00057
1569.69580	0.00040
1567.76743	0.00054
1565.83906	0.00063
1563.91068	0.00067
1561.98231	0.00061
1560.05394	0.00065
1558.12556	0.00131
1556.19719	0.00126
1554.26882	0.00078
1552.34044	0.00046
1550.41207	0.00029
1548.48370	0.00028
1546.55532	0.00047
1544.62695	0.00039
1542.69858	0.00066
1540.77020	0.00131
1538.84183	0.00092
1536.91346	0.00034
1534.98508	0.00041
1533.05671	0.00058
1531.12834	0.00070
1529.19996	0.00088
1527.27159	0.00100
1525.34322	0.00078
1523.41484	0.00028
1521.48647	0.00074
1519.55810	0.00127
1517.62972	0.00124
1515.70135	0.00096
1513.77298	0.00059
1511.84461	0.00045
1509.91623	0.00063
1507.98786	0.00077
1506.05949	0.00059
1504.13111	0.00064
1502.20274	0.00076
1500.27437	0.00094
1498.34599	0.00081
1496.41762	0.00049
1494.48925	0.00034
1492.56087	0.00059
1490.63250	0.00099
1488.70413	0.00108
1486.77575	0.00082
1484.84738	0.00084
1482.91901	0.00063
1480.99063	0.00061
1479.06226	0.00055
1477.13389	0.00055
1475.20551	0.00063
1473.27714	0.00065
1471.34877	0.00068
1469.42039	0.00109
1467.49202	0.00134
1465.56365	0.00091
1463.63527	0.00053
1461.70690	0.00065
1459.77853	0.00069
1457.85016	0.00076
1455.92178	0.00071
1453.99341	0.00052
1452.06504	0.00064
1450.13666	0.00073
1448.20829	0.00067
1446.27992	0.00084
1444.35154	0.00071
1442.42317	0.00064
1440.49480	0.00045
1438.56642	0.00078
1436.63805	0.00065
1434.70968	0.00041
1432.78130	0.00108
1430.85293	0.00119
1428.92456	0.00079
1426.99618	0.00079
1425.06781	0.00077
1423.13944	0.00034
1421.21106	0.00047
1419.28269	0.00072
1417.35432	0.00073
1415.42594	0.00084
1413.49757	0.00080
1411.56920	0.00061
1409.64082	0.00041
1407.71245	0.00027
1405.78408	0.00024
1403.85570	0.00040
1401.92733	0.00064
1399.99896	0.00082
1398.07059	0.00103
1396.14221	0.00076
1394.21384	0.00049
1392.28547	0.00034
1390.35709	0.00076
1388.42872	0.00053
1386.50035	0.00046
1384.57197	0.00063
1382.64360	0.00057
1380.71523	0.00045
1378.78685	0.00075
1376.85848	0.00091
1374.93011	0.00084
1373.00173	0.00075
1371.07336	0.00081
1369.14499	0.00094
1367.21661	0.00080
1365.28824	0.00121
1363.35987	0.00148
1361.43149	0.00115
1359.50312	0.00046
1357.57475	0.00053
1355.64637	0.00098
1353.71800	0.00116
1351.78963	0.00091
1349.86125	0.00066
1347.93288	0.00072
1346.00451	0.00110
1344.07614	0.00130
1342.14776	0.00117
1340.21939	0.00088
1338.29102	0.00063
1336.36264	0.00051
1334.43427	0.00046
1332.50590	0.00059
1330.57752	0.00081
1328.64915	0.00049
1326.72078	0.00045
1324.79240	0.00093
1322.86403	0.00065
1320.93566	0.00071
1319.00728	0.00132
1317.07891	0.00184
1315.15054	0.00165
1313.22216	0.00082
1311.29379	0.00050
1309.36542	0.00074
1307.43704	0.00060
1305.50867	0.00038
1303.58030	0.00048
1301.65192	0.00035
1299.72355	0.00069
1297.79518	0.00090
1295.86680	0.00072
1293.93843	0.00095
1292.01006	0.00099
1290.08168	0.00074
1288.15331	0.00043
1286.22494	0.00049
1284.29657	0.00054
1282.36819	0.00065
1280.43982	0.00067
1278.51145	0.00065
1276.58307	0.00087
1274.65470	0.00084
1272.72633	0.00050
1270.79795	0.00067
1268.86958	0.00083
1266.94121	0.00097
1265.01283	0.00060
1263.08446	0.00044
1261.15609	0.00100
1259.22771	0.00113
1257.29934	0.00064
1255.37097	0.00108
1253.44259	0.00091
1251.51422	0.00081
1249.58585	0.00093
1247.65747	0.00078
1245.72910	0.00069
1243.80073	0.00053
1241.87235	0.00042
1239.94398	0.00047
1238.01561	0.00073
1236.08723	0.00070
1234.15886	0.00090
1232.23049	0.00142
1230.30212	0.00184
1228.37374	0.00197
1226.44537	0.00193
1224.51700	0.00277
1222.58862	0.00301
1220.66025	0.00294
1218.73188	0.00274
1216.80350	0.00213
1214.87513	0.00127
1212.94676	0.00092
1211.01838	0.00124
1209.09001	0.00122
1207.16164	0.00084
1205.23326	0.00138
1203.30489	0.00125
1201.37652	0.00036
1199.44814	0.00089
1197.51977	0.00145
1195.59140	0.00234
1193.66302	0.00318
1191.73465	0.00305
1189.80628	0.00289
1187.87790	0.00297
1185.94953	0.00263
1184.02116	0.00185
1182.09278	0.00155
1180.16441	0.00146
1178.23604	0.00148
1176.30766	0.00147
1174.37929	0.00108
1172.45092	0.00065
1170.52255	0.00046
1168.59417	0.00107
1166.66580	0.00159
1164.73743	0.00146
1162.80905	0.00072
1160.88068	0.00072
1158.95231	0.00103
1157.02393	0.00157
1155.09556	0.00191
1153.16719	0.00191
1151.23881	0.00166
1149.31044	0.00140
1147.38207	0.00192
1145.45369	0.00302
1143.52532	0.00269
1141.59695	0.00152
1139.66857	0.00123
1137.74020	0.00101
1135.81183	0.00096
1133.88345	0.00120
1131.95508	0.00141
1130.02671	0.00100
1128.09833	0.00103
1126.16996	0.00136
1124.24159	0.00083
1122.31321	0.00103
1120.38484	0.00122
1118.45647	0.00132
1116.52809	0.00135
1114.59972	0.00077
1112.67135	0.00029
1110.74298	0.00101
1108.81460	0.00192
1106.88623	0.00244
1104.95786	0.00222
1103.02948	0.00231
1101.10111	0.00209
1099.17274	0.00143
1097.24436	0.00155
1095.31599	0.00173
1093.38762	0.00119
1091.45924	0.00134
1089.53087	0.00220
1087.60250	0.00165
1085.67412	0.00126
1083.74575	0.00159
1081.81738	0.00179
1079.88900	0.00161
1077.96063	0.00110
1076.03226	0.00067
1074.10388	0.00078
1072.17551	0.00055
1070.24714	0.00062
1068.31876	0.00218
1066.39039	0.00299
1064.46202	0.00249
1062.53364	0.00213
1060.60527	0.00218
1058.67690	0.00161
1056.74853	0.00111
1054.82015	0.00146
1052.89178	0.00159
1050.96341	0.00169
1049.03503	0.00240
1047.10666	0.00278
1045.17829	0.00214
1043.24991	0.00150
1041.32154	0.00136
1039.39317	0.00101
1037.46479	0.00151
1035.53642	0.00160
1033.60805	0.00157
1031.67967	0.00097
1029.75130	0.00104
1027.82293	0.00110
1025.89455	0.00157
1023.96618	0.00197
1022.03781	0.00160
1020.10943	0.00128
1018.18106	0.00140
1016.25269	0.00095
1014.32431	0.00111
1012.39594	0.00145
1010.46757	0.00103
1008.53919	0.00066
1006.61082	0.00104
1004.68245	0.00119
1002.75407	0.00095
1000.82570	0.00049
998.89733	0.00049
996.96896	0.00083
995.04058	0.00100
993.11221	0.00120
991.18384	0.00152
989.25546	0.00233
987.32709	0.00288
985.39872	0.00254
983.47034	0.00205
981.54197	0.00168
979.61360	0.00144
977.68522	0.00143
975.75685	0.00130
973.82848	0.00111
971.90010	0.00189
969.97173	0.00316
968.04336	0.00419
966.11498	0.00453
964.18661	0.00412
962.25824	0.00372
960.32986	0.00372
958.40149	0.00354
956.47312	0.00306
954.54474	0.00285
952.61637	0.00296
950.68800	0.00315
948.75962	0.00377
946.83125	0.00452
944.90288	0.00484
942.97451	0.00484
941.04613	0.00530
939.11776	0.00635
937.18939	0.00691
935.26101	0.00666
933.33264	0.00652
931.40427	0.00701
929.47589	0.00770
927.54752	0.00800
925.61915	0.00811
923.69077	0.00831
921.76240	0.00842
919.83403	0.00844
917.90565	0.00849
915.97728	0.00872
914.04891	0.00886
912.12053	0.00850
910.19216	0.00805
908.26379	0.00773
906.33541	0.00672
904.40704	0.00532
902.47867	0.00467
900.55029	0.00456
898.62192	0.00443
896.69355	0.00456
894.76517	0.00457
892.83680	0.00436
890.90843	0.00459
888.98005	0.00505
887.05168	0.00584
885.12331	0.00677
883.19494	0.00682
881.26656	0.00558
879.33819	0.00409
877.40982	0.00357
875.48144	0.00376
873.55307	0.00406
871.62470	0.00393
869.69632	0.00317
867.76795	0.00321
865.83958	0.00418
863.91120	0.00481
861.98283	0.00452
860.05446	0.00390
858.12608	0.00388
856.19771	0.00520
854.26934	0.00573
852.34096	0.00447
850.41259	0.00302
848.48422	0.00318
846.55584	0.00425
844.62747	0.00461
842.69910	0.00435
840.77072	0.00419
838.84235	0.00426
836.91398	0.00417
834.98560	0.00402
833.05723	0.00361
831.12886	0.00316
829.20049	0.00306
827.27211	0.00274
825.34374	0.00182
823.41537	0.00219
821.48699	0.00306
819.55862	0.00292
817.63025	0.00260
815.70187	0.00257
813.77350	0.00302
811.84513	0.00303
809.91675	0.00264
807.98838	0.00167
806.06001	0.00177
804.13163	0.00308
802.20326	0.00347
800.27489	0.00285
798.34651	0.00219
796.41814	0.00064
794.48977	0.00121
792.56139	0.00150
790.63302	0.00141
788.70465	0.00141
786.77627	0.00216
784.84790	0.00233
782.91953	0.00181
780.99115	0.00181
779.06278	0.00172
777.13441	0.00136
775.20603	0.00167
773.27766	0.00196
771.34929	0.00151
769.42092	0.00147
767.49254	0.00216
765.56417	0.00166
763.63580	0.00155
761.70742	0.00201
759.77905	0.00256
757.85068	0.00278
755.92230	0.00238
753.99393	0.00192
752.06556	0.00225
750.13718	0.00241
748.20881	0.00185
746.28044	0.00164
744.35206	0.00231
742.42369	0.00185
740.49532	0.00202
738.56694	0.00286
736.63857	0.00217
734.71020	0.00135
732.78182	0.00186
730.85345	0.00221
728.92508	0.00232
726.99670	0.00174
725.06833	0.00070
723.13996	0.00120
721.21158	0.00139
719.28321	0.00222
717.35484	0.00316
715.42647	0.00334
713.49809	0.00260
711.56972	0.00119
709.64135	0.00164
707.71297	0.00178
705.78460	0.00301
703.85623	0.00369
701.92785	0.00348
699.99948	0.00267
698.07111	0.00265
696.14273	0.00256
694.21436	0.00277
692.28599	0.00283
690.35761	0.00171
688.42924	0.00222
686.50087	0.00387
684.57249	0.00494
682.64412	0.00513
680.71575	0.00289
678.78737	0.00250
676.85900	0.00165
674.93063	0.00265
673.00225	0.00502
671.07388	0.00579
669.14551	0.00685
667.21713	0.00492
665.28876	0.00353
663.36039	0.00442
661.43201	0.00457
659.50364	0.00403
657.57527	0.00451
655.64690	0.00393
653.71852	0.00446
651.79015	0.00689
649.86178	0.00788
647.93340	0.00670
646.00503	0.00485
644.07666	0.00371
642.14828	0.00271
640.21991	0.00443
638.29154	0.00622
636.36316	0.00877
634.43479	0.00913
632.50642	0.00661
630.57804	0.00429
628.64967	0.00149
626.72130	0.00310
624.79292	0.00307
622.86455	0.00393
620.93618	0.00628
619.00780	0.00875
617.07943	0.00882
615.15106	0.00747
613.22268	0.00697
611.29431	0.00523
609.36594	0.00598
607.43756	0.00655
605.50919	0.00562
603.58082	0.00312
601.65244	0.00854
599.72407	0.01175
