3997.51769	0.56685
3995.58931	0.56653
3993.66094	0.56623
3991.73257	0.56635
3989.80419	0.56678
3987.87582	0.56707
3985.94745	0.56725
3984.01907	0.56751
3982.09070	0.56763
3980.16233	0.56771
3978.23396	0.56808
3976.30558	0.56838
3974.37721	0.56815
3972.44884	0.56791
3970.52046	0.56837
3968.59209	0.56917
3966.66372	0.56979
3964.73534	0.57068
3962.80697	0.57182
3960.87860	0.57281
3958.95022	0.57395
3957.02185	0.57501
3955.09348	0.57533
3953.16510	0.57561
3951.23673	0.57637
3949.30836	0.57670
3947.37998	0.57641
3945.45161	0.57660
3943.52324	0.57737
3941.59486	0.57779
3939.66649	0.57794
3937.73812	0.57849
3935.80974	0.57931
3933.88137	0.58054
3931.95300	0.58196
3930.02462	0.58251
3928.09625	0.58292
3926.16788	0.58444
3924.23950	0.58554
3922.31113	0.58496
3920.38276	0.58453
3918.45439	0.58534
3916.52601	0.58616
3914.59764	0.58595
3912.66927	0.58538
3910.74089	0.58575
3908.81252	0.58755
3906.88415	0.59052
3904.95577	0.59382
3903.02740	0.59588
3901.09903	0.59629
3899.17065	0.59547
3897.24228	0.59390
3895.31391	0.59356
3893.38553	0.59554
3891.45716	0.59771
3889.52879	0.59773
3887.60041	0.59791
3885.67204	0.59943
3883.74367	0.60059
3881.81529	0.60153
3879.88692	0.60181
3877.95855	0.60102
3876.03017	0.60177
3874.10180	0.60451
3872.17343	0.60764
3870.24505	0.60963
3868.31668	0.60895
3866.38831	0.60829
3864.45994	0.60925
3862.53156	0.60878
3860.60319	0.60696
3858.67482	0.60663
3856.74644	0.60828
3854.81807	0.61227
3852.88970	0.61646
3850.96132	0.61469
3849.03295	0.61072
3847.10458	0.60880
3845.17620	0.60972
3843.24783	0.61207
3841.31946	0.61434
3839.39108	0.61631
3837.46271	0.61677
3835.53434	0.61545
3833.60596	0.61410
3831.67759	0.61289
3829.74922	0.61218
3827.82084	0.61262
3825.89247	0.61351
3823.96410	0.61530
3822.03572	0.61910
3820.10735	0.62119
3818.17898	0.61954
3816.25060	0.61698
3814.32223	0.61388
3812.39386	0.61213
3810.46548	0.61279
3808.53711	0.61492
3806.60874	0.61644
3804.68037	0.61683
3802.75199	0.61849
3800.82362	0.61948
3798.89525	0.61751
3796.96687	0.61572
3795.03850	0.61424
3793.11013	0.61252
3791.18175	0.61136
3789.25338	0.61085
3787.32501	0.61100
3785.39663	0.61146
3783.46826	0.61169
3781.53989	0.61229
3779.61151	0.61323
3777.68314	0.61282
3775.75477	0.61154
3773.82639	0.61136
3771.89802	0.61263
3769.96965	0.61404
3768.04127	0.61436
3766.11290	0.61406
3764.18453	0.61323
3762.25615	0.61276
3760.32778	0.61379
3758.39941	0.61469
3756.47103	0.61450
3754.54266	0.61527
3752.61429	0.61824
3750.68591	0.62060
3748.75754	0.61923
3746.82917	0.61817
3744.90080	0.61759
3742.97242	0.61431
3741.04405	0.61118
3739.11568	0.61089
3737.18730	0.61336
3735.25893	0.61642
3733.33056	0.61502
3731.40218	0.60949
3729.47381	0.60557
3727.54544	0.60493
3725.61706	0.60519
3723.68869	0.60393
3721.76032	0.60100
3719.83194	0.59690
3717.90357	0.59319
3715.97520	0.59162
3714.04682	0.59238
3712.11845	0.59406
3710.19008	0.59197
3708.26170	0.58541
3706.33333	0.57928
3704.40496	0.57588
3702.47658	0.57399
3700.54821	0.57037
3698.61984	0.56548
3696.69146	0.56094
3694.76309	0.55684
3692.83472	0.55375
3690.90635	0.55083
3688.97797	0.54390
3687.04960	0.53190
3685.12123	0.52043
3683.19285	0.51114
3681.26448	0.50305
3679.33611	0.49602
3677.40773	0.48943
3675.47936	0.47833
3673.55099	0.46333
3671.62261	0.45095
3669.69424	0.43605
3667.76587	0.41845
3665.83749	0.40362
3663.90912	0.39011
3661.98075	0.37651
3660.05237	0.36327
3658.12400	0.35034
3656.19563	0.33535
3654.26725	0.32093
3652.33888	0.31079
3650.41051	0.30028
3648.48213	0.28317
3646.55376	0.26430
3644.62539	0.24946
3642.69701	0.23691
3640.76864	0.22485
3638.84027	0.21307
3636.91189	0.20190
3634.98352	0.19144
3633.05515	0.18184
3631.12678	0.17341
3629.19840	0.16326
3627.27003	0.15099
3625.34166	0.14169
3623.41328	0.13436
3621.48491	0.12703
3619.55654	0.11881
3617.62816	0.11087
3615.69979	0.10441
3613.77142	0.09789
3611.84304	0.09104
3609.91467	0.08505
3607.98630	0.07958
3606.05792	0.07415
3604.12955	0.06928
3602.20118	0.06495
3600.27280	0.06091
3598.34443	0.05702
3596.41606	0.05320
3594.48768	0.04941
3592.55931	0.04580
3590.63094	0.04276
3588.70256	0.03992
3586.77419	0.03697
3584.84582	0.03424
3582.91744	0.03175
3580.98907	0.02934
3579.06070	0.02689
3577.13233	0.02449
3575.20395	0.02224
3573.27558	0.02026
3571.34721	0.01871
3569.41883	0.01775
3567.49046	0.01703
3565.56209	0.01560
3563.63371	0.01361
3561.70534	0.01177
3559.77697	0.01056
3557.84859	0.00991
3555.92022	0.00936
3553.99185	0.00864
3552.06347	0.00791
3550.13510	0.00765
3548.20673	0.00725
3546.27835	0.00608
3544.34998	0.00497
3542.42161	0.00475
3540.49323	0.00497
3538.56486	0.00463
3536.63649	0.00368
3534.70811	0.00296
3532.77974	0.00280
3530.85137	0.00275
3528.92299	0.00279
3526.99462	0.00284
3525.06625	0.00244
3523.13787	0.00168
3521.20950	0.00128
3519.28113	0.00107
3517.35276	0.00072
3515.42438	0.00063
3513.49601	0.00040
3511.56764	0.00040
3509.63926	0.00045
3507.71089	0.00081
3505.78252	0.00100
3503.85414	0.00096
3501.92577	0.00077
3499.99740	0.00116
3498.06902	0.00077
3496.14065	0.00072
3494.21228	0.00075
3492.28390	0.00098
3490.35553	0.00105
3488.42716	0.00088
3486.49878	0.00103
3484.57041	0.00119
3482.64204	0.00141
3480.71366	0.00154
3478.78529	0.00166
3476.85692	0.00150
3474.92854	0.00142
3473.00017	0.00132
3471.07180	0.00084
3469.14342	0.00074
3467.21505	0.00113
3465.28668	0.00119
3463.35831	0.00088
3461.42993	0.00150
3459.50156	0.00227
3457.57319	0.00208
3455.64481	0.00131
3453.71644	0.00086
3451.78807	0.00076
3449.85969	0.00077
3447.93132	0.00054
3446.00295	0.00046
3444.07457	0.00078
3442.14620	0.00115
3440.21783	0.00117
3438.28945	0.00071
3436.36108	0.00034
3434.43271	0.00056
3432.50433	0.00049
3430.57596	0.00042
3428.64759	0.00031
3426.71921	0.00040
3424.79084	0.00050
3422.86247	0.00059
3420.93409	0.00081
3419.00572	0.00107
3417.07735	0.00094
3415.14897	0.00064
3413.22060	0.00060
3411.29223	0.00083
3409.36385	0.00106
3407.43548	0.00095
3405.50711	0.00058
3403.57874	0.00061
3401.65036	0.00123
3399.72199	0.00156
3397.79362	0.00133
3395.86524	0.00111
3393.93687	0.00095
3392.00850	0.00080
3390.08012	0.00123
3388.15175	0.00126
3386.22338	0.00086
3384.29500	0.00038
3382.36663	0.00096
3380.43826	0.00188
3378.50988	0.00176
3376.58151	0.00105
3374.65314	0.00052
3372.72476	0.00060
3370.79639	0.00061
3368.86802	0.00071
3366.93964	0.00056
3365.01127	0.00083
3363.08290	0.00115
3361.15452	0.00147
3359.22615	0.00163
3357.29778	0.00117
3355.36940	0.00046
3353.44103	0.00066
3351.51266	0.00067
3349.58428	0.00061
3347.65591	0.00089
3345.72754	0.00120
3343.79917	0.00124
3341.87079	0.00115
3339.94242	0.00105
3338.01405	0.00106
3336.08567	0.00086
3334.15730	0.00117
3332.22893	0.00100
3330.30055	0.00048
3328.37218	0.00031
3326.44381	0.00052
3324.51543	0.00053
3322.58706	0.00086
3320.65869	0.00092
3318.73031	0.00045
3316.80194	0.00044
3314.87357	0.00089
3312.94519	0.00102
3311.01682	0.00072
3309.08845	0.00076
3307.16007	0.00103
3305.23170	0.00087
3303.30333	0.00071
3301.37495	0.00064
3299.44658	0.00071
3297.51821	0.00103
3295.58983	0.00135
3293.66146	0.00125
3291.73309	0.00108
3289.80472	0.00084
3287.87634	0.00141
3285.94797	0.00171
3284.01960	0.00138
3282.09122	0.00118
3280.16285	0.00104
3278.23448	0.00115
3276.30610	0.00114
3274.37773	0.00083
3272.44936	0.00074
3270.52098	0.00090
3268.59261	0.00087
3266.66424	0.00076
3264.73586	0.00084
3262.80749	0.00123
3260.87912	0.00142
3258.95074	0.00122
3257.02237	0.00089
3255.09400	0.00070
3253.16562	0.00114
3251.23725	0.00132
3249.30888	0.00103
3247.38050	0.00093
3245.45213	0.00045
3243.52376	0.00022
3241.59538	0.00035
3239.66701	0.00061
3237.73864	0.00072
3235.81026	0.00086
3233.88189	0.00126
3231.95352	0.00134
3230.02515	0.00107
3228.09677	0.00056
3226.16840	0.00047
3224.24003	0.00082
3222.31165	0.00057
3220.38328	0.00086
3218.45491	0.00145
3216.52653	0.00186
3214.59816	0.00195
3212.66979	0.00154
3210.74141	0.00094
3208.81304	0.00036
3206.88467	0.00089
3204.95629	0.00095
3203.02792	0.00054
3201.09955	0.00051
3199.17117	0.00074
3197.24280	0.00104
3195.31443	0.00104
3193.38605	0.00077
3191.45768	0.00055
3189.52931	0.00092
3187.60093	0.00100
3185.67256	0.00100
3183.74419	0.00074
3181.81581	0.00092
3179.88744	0.00117
3177.95907	0.00087
3176.03070	0.00067
3174.10232	0.00126
3172.17395	0.00096
3170.24558	0.00076
3168.31720	0.00068
3166.38883	0.00046
3164.46046	0.00102
3162.53208	0.00114
3160.60371	0.00085
3158.67534	0.00049
3156.74696	0.00088
3154.81859	0.00099
3152.89022	0.00101
3150.96184	0.00132
3149.03347	0.00172
3147.10510	0.00173
3145.17672	0.00116
3143.24835	0.00063
3141.31998	0.00050
3139.39160	0.00059
3137.46323	0.00073
3135.53486	0.00076
3133.60648	0.00042
3131.67811	0.00070
3129.74974	0.00108
3127.82136	0.00108
3125.89299	0.00088
3123.96462	0.00042
3122.03624	0.00043
3120.10787	0.00085
3118.17950	0.00088
3116.25113	0.00049
3114.32275	0.00074
3112.39438	0.00089
3110.46601	0.00107
3108.53763	0.00135
3106.60926	0.00159
3104.68089	0.00129
3102.75251	0.00077
3100.82414	0.00069
3098.89577	0.00070
3096.96739	0.00074
3095.03902	0.00062
3093.11065	0.00045
3091.18227	0.00074
3089.25390	0.00073
3087.32553	0.00047
3085.39715	0.00035
3083.46878	0.00042
3081.54041	0.00060
3079.61203	0.00072
3077.68366	0.00057
3075.75529	0.00073
3073.82691	0.00079
3071.89854	0.00065
3069.97017	0.00123
3068.04179	0.00156
3066.11342	0.00111
3064.18505	0.00100
3062.25668	0.00118
3060.32830	0.00096
3058.39993	0.00045
3056.47156	0.00059
3054.54318	0.00089
3052.61481	0.00084
3050.68644	0.00050
3048.75806	0.00024
3046.82969	0.00043
3044.90132	0.00075
3042.97294	0.00099
3041.04457	0.00119
3039.11620	0.00144
3037.18782	0.00125
3035.25945	0.00062
3033.33108	0.00075
3031.40270	0.00101
3029.47433	0.00118
3027.54596	0.00163
3025.61758	0.00186
3023.68921	0.00196
3021.76084	0.00180
3019.83246	0.00165
3017.90409	0.00140
3015.97572	0.00095
3014.04734	0.00081
3012.11897	0.00058
3010.19060	0.00048
3008.26222	0.00083
3006.33385	0.00117
3004.40548	0.00139
3002.47711	0.00179
3000.54873	0.00211
2998.62036	0.00200
2996.69199	0.00181
2994.76361	0.00152
2992.83524	0.00113
2990.90687	0.00107
2988.97849	0.00098
2987.05012	0.00113
2985.12175	0.00136
2983.19337	0.00124
2981.26500	0.00096
2979.33663	0.00056
2977.40825	0.00108
2975.47988	0.00170
2973.55151	0.00120
2971.62313	0.00106
2969.69476	0.00074
2967.76639	0.00080
2965.83801	0.00116
2963.90964	0.00107
2961.98127	0.00052
2960.05289	0.00061
2958.12452	0.00129
2956.19615	0.00125
2954.26777	0.00068
2952.33940	0.00039
2950.41103	0.00074
2948.48266	0.00108
2946.55428	0.00133
2944.62591	0.00114
2942.69754	0.00070
2940.76916	0.00091
2938.84079	0.00135
2936.91242	0.00153
2934.98404	0.00135
2933.05567	0.00118
2931.12730	0.00092
2929.19892	0.00096
2927.27055	0.00108
2925.34218	0.00126
2923.41380	0.00148
2921.48543	0.00169
2919.55706	0.00188
2917.62868	0.00161
2915.70031	0.00100
2913.77194	0.00078
2911.84356	0.00142
2909.91519	0.00187
2907.98682	0.00155
2906.05844	0.00112
2904.13007	0.00163
2902.20170	0.00192
2900.27332	0.00203
2898.34495	0.00210
2896.41658	0.00204
2894.48820	0.00211
2892.55983	0.00179
2890.63146	0.00117
2888.70309	0.00110
2886.77471	0.00168
2884.84634	0.00274
2882.91797	0.00336
2880.98959	0.00313
2879.06122	0.00255
2877.13285	0.00214
2875.20447	0.00198
2873.27610	0.00209
2871.34773	0.00247
2869.41935	0.00292
2867.49098	0.00320
2865.56261	0.00329
2863.63423	0.00349
2861.70586	0.00409
2859.77749	0.00489
2857.84911	0.00545
2855.92074	0.00566
2853.99237	0.00580
2852.06399	0.00591
2850.13562	0.00605
2848.20725	0.00628
2846.27887	0.00662
2844.35050	0.00691
2842.42213	0.00720
2840.49375	0.00766
2838.56538	0.00803
2836.63701	0.00795
2834.70863	0.00772
2832.78026	0.00779
2830.85189	0.00803
2828.92352	0.00838
2826.99514	0.00889
2825.06677	0.00946
2823.13840	0.00964
2821.21002	0.00921
2819.28165	0.00888
2817.35328	0.00906
2815.42490	0.00902
2813.49653	0.00874
2811.56816	0.00895
2809.63978	0.00933
2807.71141	0.00952
2805.78304	0.00976
2803.85466	0.01005
2801.92629	0.01018
2799.99792	0.01026
2798.06954	0.01061
2796.14117	0.01115
2794.21280	0.01149
2792.28442	0.01152
2790.35605	0.01170
2788.42768	0.01227
2786.49930	0.01275
2784.57093	0.01285
2782.64256	0.01294
2780.71418	0.01327
2778.78581	0.01374
2776.85744	0.01428
2774.92907	0.01490
2773.00069	0.01560
2771.07232	0.01620
2769.14395	0.01633
2767.21557	0.01598
2765.28720	0.01577
2763.35883	0.01611
2761.43045	0.01688
2759.50208	0.01783
2757.57371	0.01858
2755.64533	0.01892
2753.71696	0.01922
2751.78859	0.01987
2749.86021	0.02046
2747.93184	0.02075
2746.00347	0.02136
2744.07509	0.02248
2742.14672	0.02341
2740.21835	0.02389
2738.28997	0.02444
2736.36160	0.02524
2734.43323	0.02599
2732.50485	0.02647
2730.57648	0.02693
2728.64811	0.02759
2726.71973	0.02841
2724.79136	0.02937
2722.86299	0.03040
2720.93461	0.03119
2719.00624	0.03159
2717.07787	0.03175
2715.14950	0.03208
2713.22112	0.03276
2711.29275	0.03338
2709.36438	0.03379
2707.43600	0.03434
2705.50763	0.03503
2703.57926	0.03558
2701.65088	0.03608
2699.72251	0.03673
2697.79414	0.03734
2695.86576	0.03764
2693.93739	0.03772
2692.00902	0.03797
2690.08064	0.03832
2688.15227	0.03842
2686.22390	0.03838
2684.29552	0.03878
2682.36715	0.03975
2680.43878	0.04074
2678.51040	0.04148
2676.58203	0.04213
2674.65366	0.04276
2672.72528	0.04331
2670.79691	0.04393
2668.86854	0.04485
2666.94016	0.04593
2665.01179	0.04695
2663.08342	0.04788
2661.15505	0.04875
2659.22667	0.04952
2657.29830	0.05015
2655.36993	0.05078
2653.44155	0.05173
2651.51318	0.05287
2649.58481	0.05357
2647.65643	0.05409
2645.72806	0.05505
2643.79969	0.05626
2641.87131	0.05737
2639.94294	0.05824
2638.01457	0.05888
2636.08619	0.05972
2634.15782	0.06096
2632.22945	0.06231
2630.30107	0.06356
2628.37270	0.06470
2626.44433	0.06587
2624.51595	0.06712
2622.58758	0.06836
2620.65921	0.06953
2618.73083	0.07075
2616.80246	0.07205
2614.87409	0.07336
2612.94571	0.07474
2611.01734	0.07627
2609.08897	0.07789
2607.16059	0.07944
2605.23222	0.08086
2603.30385	0.08218
2601.37548	0.08352
2599.44710	0.08492
2597.51873	0.08633
2595.59036	0.08785
2593.66198	0.08951
2591.73361	0.09104
2589.80524	0.09240
2587.87686	0.09384
2585.94849	0.09544
2584.02012	0.09701
2582.09174	0.09844
2580.16337	0.09980
2578.23500	0.10120
2576.30662	0.10262
2574.37825	0.10420
2572.44988	0.10597
2570.52150	0.10764
2568.59313	0.10902
2566.66476	0.11029
2564.73638	0.11178
2562.80801	0.11361
2560.87964	0.11554
2558.95126	0.11724
2557.02289	0.11873
2555.09452	0.12019
2553.16614	0.12166
2551.23777	0.12313
2549.30940	0.12458
2547.38103	0.12596
2545.45265	0.12738
2543.52428	0.12884
2541.59591	0.13024
2539.66753	0.13153
2537.73916	0.13279
2535.81079	0.13411
2533.88241	0.13549
2531.95404	0.13688
2530.02567	0.13813
2528.09729	0.13918
2526.16892	0.14041
2524.24055	0.14209
2522.31217	0.14380
2520.38380	0.14518
2518.45543	0.14635
2516.52705	0.14752
2514.59868	0.14881
2512.67031	0.15029
2510.74193	0.15187
2508.81356	0.15341
2506.88519	0.15467
2504.95681	0.15565
2503.02844	0.15672
2501.10007	0.15817
2499.17169	0.15994
2497.24332	0.16157
2495.31495	0.16256
2493.38657	0.16326
2491.45820	0.16433
2489.52983	0.16559
2487.60146	0.16671
2485.67308	0.16797
2483.74471	0.16973
2481.81634	0.17159
2479.88796	0.17308
2477.95959	0.17440
2476.03122	0.17569
2474.10284	0.17690
2472.17447	0.17823
2470.24610	0.17982
2468.31772	0.18159
2466.38935	0.18349
2464.46098	0.18551
2462.53260	0.18759
2460.60423	0.18964
2458.67586	0.19164
2456.74748	0.19351
2454.81911	0.19524
2452.89074	0.19706
2450.96236	0.19914
2449.03399	0.20129
2447.10562	0.20318
2445.17724	0.20484
2443.24887	0.20657
2441.32050	0.20833
2439.39212	0.20989
2437.46375	0.21153
2435.53538	0.21363
2433.60700	0.21576
2431.67863	0.21737
2429.75026	0.21894
2427.82189	0.22088
2425.89351	0.22273
2423.96514	0.22417
2422.03677	0.22561
2420.10839	0.22740
2418.18002	0.22918
2416.25165	0.23062
2414.32327	0.23206
2412.39490	0.23389
2410.46653	0.23593
2408.53815	0.23782
2406.60978	0.23961
2404.68141	0.24144
2402.75303	0.24328
2400.82466	0.24521
2398.89629	0.24717
2396.96791	0.24910
2395.03954	0.25114
2393.11117	0.25332
2391.18279	0.25545
2389.25442	0.25740
2387.32605	0.25927
2385.39767	0.26122
2383.46930	0.26322
2381.54093	0.26538
2379.61255	0.26808
2377.68418	0.27122
2375.75581	0.27431
2373.82744	0.27746
2371.89906	0.28122
2369.97069	0.28558
2368.04232	0.28991
2366.11394	0.29370
2364.18557	0.29682
2362.25720	0.29875
2360.32882	0.29996
2358.40045	0.30197
2356.47208	0.30440
2354.54370	0.30486
2352.61533	0.30274
2350.68696	0.30064
2348.75858	0.30053
2346.83021	0.30235
2344.90184	0.30529
2342.97346	0.30795
2341.04509	0.30976
2339.11672	0.31120
2337.18834	0.31240
2335.25997	0.31344
2333.33160	0.31440
2331.40322	0.31483
2329.47485	0.31498
2327.54648	0.31575
2325.61810	0.31691
2323.68973	0.31759
2321.76136	0.31740
2319.83298	0.31691
2317.90461	0.31702
2315.97624	0.31808
2314.04787	0.31979
2312.11949	0.32145
2310.19112	0.32267
2308.26275	0.32389
2306.33437	0.32545
2304.40600	0.32701
2302.47763	0.32840
2300.54925	0.32975
2298.62088	0.33089
2296.69251	0.33186
2294.76413	0.33310
2292.83576	0.33455
2290.90739	0.33575
2288.97901	0.33687
2287.05064	0.33827
2285.12227	0.33974
2283.19389	0.34098
2281.26552	0.34204
2279.33715	0.34308
2277.40877	0.34435
2275.48040	0.34593
2273.55203	0.34740
2271.62365	0.34844
2269.69528	0.34936
2267.76691	0.35051
2265.83853	0.35181
2263.91016	0.35320
2261.98179	0.35454
2260.05342	0.35577
2258.12504	0.35710
2256.19667	0.35862
2254.26830	0.36004
2252.33992	0.36116
2250.41155	0.36231
2248.48318	0.36382
2246.55480	0.36548
2244.62643	0.36689
2242.69806	0.36792
2240.76968	0.36867
2238.84131	0.36938
2236.91294	0.37018
2234.98456	0.37108
2233.05619	0.37195
2231.12782	0.37236
2229.19944	0.37247
2227.27107	0.37302
2225.34270	0.37412
2223.41432	0.37500
2221.48595	0.37526
2219.55758	0.37532
2217.62920	0.37577
2215.70083	0.37668
2213.77246	0.37779
2211.84408	0.37874
2209.91571	0.37930
2207.98734	0.37988
2206.05896	0.38078
2204.13059	0.38158
2202.20222	0.38213
2200.27385	0.38270
2198.34547	0.38341
2196.41710	0.38428
2194.48873	0.38522
2192.56035	0.38606
2190.63198	0.38683
2188.70361	0.38761
2186.77523	0.38850
2184.84686	0.38946
2182.91849	0.39025
2180.99011	0.39071
2179.06174	0.39119
2177.13337	0.39205
2175.20499	0.39299
2173.27662	0.39351
2171.34825	0.39374
2169.41987	0.39396
2167.49150	0.39430
2165.56313	0.39488
2163.63475	0.39555
2161.70638	0.39609
2159.77801	0.39654
2157.84963	0.39692
2155.92126	0.39728
2153.99289	0.39780
2152.06451	0.39848
2150.13614	0.39899
2148.20777	0.39934
2146.27940	0.39983
2144.35102	0.40053
2142.42265	0.40127
2140.49428	0.40186
2138.56590	0.40243
2136.63753	0.40307
2134.70916	0.40365
2132.78078	0.40420
2130.85241	0.40491
2128.92404	0.40583
2126.99566	0.40683
2125.06729	0.40782
2123.13892	0.40900
2121.21054	0.41054
2119.28217	0.41211
2117.35380	0.41341
2115.42542	0.41455
2113.49705	0.41570
2111.56868	0.41705
2109.64030	0.41864
2107.71193	0.42008
2105.78356	0.42127
2103.85518	0.42250
2101.92681	0.42383
2099.99844	0.42508
2098.07006	0.42619
2096.14169	0.42721
2094.21332	0.42819
2092.28494	0.42924
2090.35657	0.43027
2088.42820	0.43125
2086.49983	0.43210
2084.57145	0.43253
2082.64308	0.43250
2080.71471	0.43242
2078.78633	0.43256
2076.85796	0.43291
2074.92959	0.43330
2073.00121	0.43338
2071.07284	0.43301
2069.14447	0.43271
2067.21609	0.43269
2065.28772	0.43262
2063.35935	0.43247
2061.43097	0.43254
2059.50260	0.43279
2057.57423	0.43305
2055.64585	0.43350
2053.71748	0.43412
2051.78911	0.43468
2049.86073	0.43539
2047.93236	0.43651
2046.00399	0.43773
2044.07561	0.43881
2042.14724	0.43984
2040.21887	0.44097
2038.29049	0.44214
2036.36212	0.44297
2034.43375	0.44341
2032.50538	0.44397
2030.57700	0.44496
2028.64863	0.44602
2026.72026	0.44677
2024.79188	0.44729
2022.86351	0.44777
2020.93514	0.44828
2019.00676	0.44906
2017.07839	0.45006
2015.15002	0.45084
2013.22164	0.45140
2011.29327	0.45206
2009.36490	0.45289
2007.43652	0.45371
2005.50815	0.45431
2003.57978	0.45484
2001.65140	0.45548
1999.72303	0.45622
1997.79466	0.45687
1995.86628	0.45744
1993.93791	0.45826
1992.00954	0.45896
1990.08116	0.45886
1988.15279	0.45825
1986.22442	0.45757
1984.29604	0.45698
1982.36767	0.45674
1980.43930	0.45682
1978.51092	0.45685
1976.58255	0.45670
1974.65418	0.45654
1972.72581	0.45658
1970.79743	0.45693
1968.86906	0.45744
1966.94069	0.45779
1965.01231	0.45783
1963.08394	0.45766
1961.15557	0.45750
1959.22719	0.45766
1957.29882	0.45830
1955.37045	0.45920
1953.44207	0.45999
1951.51370	0.46055
1949.58533	0.46109
1947.65695	0.46177
1945.72858	0.46281
1943.80021	0.46430
1941.87183	0.46541
1939.94346	0.46542
1938.01509	0.46507
1936.08671	0.46516
1934.15834	0.46555
1932.22997	0.46566
1930.30159	0.46541
1928.37322	0.46520
1926.44485	0.46527
1924.51647	0.46563
1922.58810	0.46563
1920.65973	0.46509
1918.73135	0.46475
1916.80298	0.46422
1914.87461	0.46295
1912.94624	0.46172
1911.01786	0.46102
1909.08949	0.46040
1907.16112	0.45941
1905.23274	0.45832
1903.30437	0.45738
1901.37600	0.45632
1899.44762	0.45506
1897.51925	0.45404
1895.59088	0.45323
1893.66250	0.45232
1891.73413	0.45156
1889.80576	0.45081
1887.87738	0.44936
1885.94901	0.44773
1884.02064	0.44655
1882.09226	0.44559
1880.16389	0.44485
1878.23552	0.44425
1876.30714	0.44339
1874.37877	0.44206
1872.45040	0.44108
1870.52202	0.44134
1868.59365	0.44149
1866.66528	0.43946
1864.73690	0.43653
1862.80853	0.43437
1860.88016	0.43267
1858.95179	0.43090
1857.02341	0.42904
1855.09504	0.42714
1853.16667	0.42541
1851.23829	0.42409
1849.30992	0.42310
1847.38155	0.42237
1845.45317	0.42153
1843.52480	0.41937
1841.59643	0.41619
1839.66805	0.41368
1837.73968	0.41188
1835.81131	0.41008
1833.88293	0.40824
1831.95456	0.40687
1830.02619	0.40558
1828.09781	0.40342
1826.16944	0.40064
1824.24107	0.39740
1822.31269	0.39410
1820.38432	0.39103
1818.45595	0.38779
1816.52757	0.38435
1814.59920	0.38109
1812.67083	0.37786
1810.74245	0.37339
1808.81408	0.36754
1806.88571	0.36156
1804.95733	0.35603
1803.02896	0.35045
1801.10059	0.34354
1799.17222	0.33519
1797.24384	0.32689
1795.31547	0.31935
1793.38710	0.31116
1791.45872	0.30051
1789.53035	0.28959
1787.60198	0.28052
1785.67360	0.27226
1783.74523	0.26403
1781.81686	0.25592
1779.88848	0.24751
1777.96011	0.23941
1776.03174	0.23260
1774.10336	0.22610
1772.17499	0.21784
1770.24662	0.20826
1768.31824	0.19879
1766.38987	0.18917
1764.46150	0.17992
1762.53312	0.16946
1760.60475	0.15689
1758.67638	0.14403
1756.74800	0.12957
1754.81963	0.11443
1752.89126	0.10013
1750.96288	0.08415
1749.03451	0.06668
1747.10614	0.05135
1745.17777	0.03872
1743.24939	0.02822
1741.32102	0.01959
1739.39265	0.01271
1737.46427	0.00823
1735.53590	0.00514
1733.60753	0.00255
1731.67915	0.00148
1729.75078	0.00129
1727.82241	0.00113
1725.89403	0.00086
1723.96566	0.00062
1722.03729	0.00051
1720.10891	0.00044
1718.18054	0.00083
1716.25217	0.00126
1714.32379	0.00122
1712.39542	0.00073
1710.46705	0.00075
1708.53867	0.00068
1706.61030	0.00047
1704.68193	0.00071
1702.75355	0.00034
1700.82518	0.00064
1698.89681	0.00128
1696.96843	0.00166
1695.04006	0.00176
1693.11169	0.00141
1691.18331	0.00112
1689.25494	0.00086
1687.32657	0.00098
1685.39820	0.00101
1683.46982	0.00043
1681.54145	0.00058
1679.61308	0.00071
1677.68470	0.00077
1675.75633	0.00104
1673.82796	0.00135
1671.89958	0.00147
1669.97121	0.00125
1668.04284	0.00062
1666.11446	0.00095
1664.18609	0.00121
1662.25772	0.00106
1660.32934	0.00078
1658.40097	0.00070
1656.47260	0.00055
1654.54422	0.00027
1652.61585	0.00080
1650.68748	0.00101
1648.75910	0.00113
1646.83073	0.00164
1644.90236	0.00156
1642.97398	0.00112
1641.04561	0.00092
1639.11724	0.00102
1637.18886	0.00110
1635.26049	0.00069
1633.33212	0.00039
1631.40375	0.00050
1629.47537	0.00024
1627.54700	0.00043
1625.61863	0.00061
1623.69025	0.00057
1621.76188	0.00061
1619.83351	0.00060
1617.90513	0.00077
1615.97676	0.00077
1614.04839	0.00054
1612.12001	0.00042
1610.19164	0.00074
1608.26327	0.00071
1606.33489	0.00097
1604.40652	0.00113
1602.47815	0.00098
1600.54977	0.00091
1598.62140	0.00074
1596.69303	0.00046
1594.76465	0.00050
1592.83628	0.00062
1590.90791	0.00067
1588.97953	0.00081
1587.05116	0.00075
1585.12279	0.00055
1583.19441	0.00044
1581.26604	0.00055
1579.33767	0.00085
1577.40929	0.00078
1575.48092	0.00064
1573.55255	0.00081
1571.62418	0.00133
1569.69580	0.00133
1567.76743	0.00090
1565.83906	0.00066
1563.91068	0.00072
1561.98231	0.00078
1560.05394	0.00094
1558.12556	0.00069
1556.19719	0.00041
1554.26882	0.00034
1552.34044	0.00033
1550.41207	0.00057
1548.48370	0.00093
1546.55532	0.00109
1544.62695	0.00098
1542.69858	0.00089
1540.77020	0.00102
1538.84183	0.00099
1536.91346	0.00084
1534.98508	0.00082
1533.05671	0.00073
1531.12834	0.00046
1529.19996	0.00024
1527.27159	0.00039
1525.34322	0.00057
1523.41484	0.00064
1521.48647	0.00091
1519.55810	0.00106
1517.62972	0.00082
1515.70135	0.00099
1513.77298	0.00095
1511.84461	0.00084
1509.91623	0.00057
1507.98786	0.00078
1506.05949	0.00095
1504.13111	0.00062
1502.20274	0.00090
1500.27437	0.00100
1498.34599	0.00088
1496.41762	0.00108
1494.48925	0.00110
1492.56087	0.00135
1490.63250	0.00157
1488.70413	0.00172
1486.77575	0.00182
1484.84738	0.00196
1482.91901	0.00223
1480.99063	0.00248
1479.06226	0.00255
1477.13389	0.00263
1475.20551	0.00295
1473.27714	0.00299
1471.34877	0.00230
1469.42039	0.00172
1467.49202	0.00170
1465.56365	0.00183
1463.63527	0.00147
1461.70690	0.00110
1459.77853	0.00107
1457.85016	0.00090
1455.92178	0.00033
1453.99341	0.00022
1452.06504	0.00026
1450.13666	0.00017
1448.20829	0.00045
1446.27992	0.00076
1444.35154	0.00067
1442.42317	0.00042
1440.49480	0.00044
1438.56642	0.00048
1436.63805	0.00077
1434.70968	0.00087
1432.78130	0.00076
1430.85293	0.00059
1428.92456	0.00110
1426.99618	0.00123
1425.06781	0.00090
1423.13944	0.00081
1421.21106	0.00080
1419.28269	0.00061
1417.35432	0.00039
1415.42594	0.00075
1413.49757	0.00073
1411.56920	0.00045
1409.64082	0.00034
1407.71245	0.00044
1405.78408	0.00081
1403.85570	0.00121
1401.92733	0.00138
1399.99896	0.00138
1398.07059	0.00111
1396.14221	0.00071
1394.21384	0.00072
1392.28547	0.00091
1390.35709	0.00069
1388.42872	0.00093
1386.50035	0.00105
1384.57197	0.00051
1382.64360	0.00054
1380.71523	0.00090
1378.78685	0.00133
1376.85848	0.00160
1374.93011	0.00148
1373.00173	0.00094
1371.07336	0.00080
1369.14499	0.00107
1367.21661	0.00119
1365.28824	0.00105
1363.35987	0.00096
1361.43149	0.00141
1359.50312	0.00171
1357.57475	0.00152
1355.64637	0.00133
1353.71800	0.00158
1351.78963	0.00188
1349.86125	0.00164
1347.93288	0.00139
1346.00451	0.00161
1344.07614	0.00208
1342.14776	0.00221
1340.21939	0.00205
1338.29102	0.00173
1336.36264	0.00145
1334.43427	0.00146
1332.50590	0.00146
1330.57752	0.00133
1328.64915	0.00125
1326.72078	0.00119
1324.79240	0.00095
1322.86403	0.00068
1320.93566	0.00096
1319.00728	0.00129
1317.07891	0.00134
1315.15054	0.00132
1313.22216	0.00148
1311.29379	0.00166
1309.36542	0.00150
1307.43704	0.00136
1305.50867	0.00141
1303.58030	0.00110
1301.65192	0.00076
1299.72355	0.00078
1297.79518	0.00110
1295.86680	0.00108
1293.93843	0.00088
1292.01006	0.00068
1290.08168	0.00049
1288.15331	0.00069
1286.22494	0.00121
1284.29657	0.00122
1282.36819	0.00084
1280.43982	0.00089
1278.51145	0.00119
1276.58307	0.00155
1274.65470	0.00185
1272.72633	0.00160
1270.79795	0.00106
1268.86958	0.00071
1266.94121	0.00055
1265.01283	0.00046
1263.08446	0.00076
1261.15609	0.00057
1259.22771	0.00039
1257.29934	0.00053
1255.37097	0.00104
1253.44259	0.00137
1251.51422	0.00116
1249.58585	0.00084
1247.65747	0.00135
1245.72910	0.00208
1243.80073	0.00269
1241.87235	0.00276
1239.94398	0.00227
1238.01561	0.00216
1236.08723	0.00275
1234.15886	0.00324
1232.23049	0.00361
1230.30212	0.00412
1228.37374	0.00443
1226.44537	0.00437
1224.51700	0.00414
1222.58862	0.00425
1220.66025	0.00495
1218.73188	0.00580
1216.80350	0.00636
1214.87513	0.00658
1212.94676	0.00655
1211.01838	0.00617
1209.09001	0.00570
1207.16164	0.00545
1205.23326	0.00554
1203.30489	0.00626
1201.37652	0.00746
1199.44814	0.00910
1197.51977	0.01105
1195.59140	0.01266
1193.66302	0.01364
1191.73465	0.01432
1189.80628	0.01495
1187.87790	0.01531
1185.94953	0.01502
1184.02116	0.01398
1182.09278	0.01252
1180.16441	0.01114
1178.23604	0.00976
1176.30766	0.00830
1174.37929	0.00688
1172.45092	0.00527
1170.52255	0.00364
1168.59417	0.00270
1166.66580	0.00228
1164.73743	0.00186
1162.80905	0.00160
1160.88068	0.00177
1158.95231	0.00192
1157.02393	0.00142
1155.09556	0.00054
1153.16719	0.00062
1151.23881	0.00087
1149.31044	0.00183
1147.38207	0.00366
1145.45369	0.00562
1143.52532	0.00742
1141.59695	0.00827
1139.66857	0.00795
1137.74020	0.00729
1135.81183	0.00696
1133.88345	0.00659
1131.95508	0.00551
1130.02671	0.00371
1128.09833	0.00195
1126.16996	0.00083
1124.24159	0.00089
1122.31321	0.00114
1120.38484	0.00139
1118.45647	0.00163
1116.52809	0.00155
1114.59972	0.00088
1112.67135	0.00095
1110.74298	0.00078
1108.81460	0.00118
1106.88623	0.00173
1104.95786	0.00142
1103.02948	0.00100
1101.10111	0.00156
1099.17274	0.00270
1097.24436	0.00288
1095.31599	0.00228
1093.38762	0.00174
1091.45924	0.00114
1089.53087	0.00155
1087.60250	0.00205
1085.67412	0.00186
1083.74575	0.00133
1081.81738	0.00160
1079.88900	0.00227
1077.96063	0.00206
1076.03226	0.00180
1074.10388	0.00190
1072.17551	0.00133
1070.24714	0.00131
1068.31876	0.00163
1066.39039	0.00219
1064.46202	0.00257
1062.53364	0.00287
1060.60527	0.00250
1058.67690	0.00198
1056.74853	0.00139
1054.82015	0.00112
1052.89178	0.00158
1050.96341	0.00147
1049.03503	0.00198
1047.10666	0.00216
1045.17829	0.00113
1043.24991	0.00088
1041.32154	0.00082
1039.39317	0.00132
1037.46479	0.00141
1035.53642	0.00112
1033.60805	0.00054
1031.67967	0.00173
1029.75130	0.00266
1027.82293	0.00250
1025.89455	0.00166
1023.96618	0.00077
1022.03781	0.00132
1020.10943	0.00118
1018.18106	0.00114
1016.25269	0.00153
1014.32431	0.00192
1012.39594	0.00240
1010.46757	0.00293
1008.53919	0.00399
1006.61082	0.00555
1004.68245	0.00729
1002.75407	0.00931
1000.82570	0.01154
998.89733	0.01366
996.96896	0.01564
995.04058	0.01773
993.11221	0.02008
991.18384	0.02261
989.25546	0.02501
987.32709	0.02693
985.39872	0.02825
983.47034	0.02875
981.54197	0.02837
979.61360	0.02770
977.68522	0.02737
975.75685	0.02806
973.82848	0.03066
971.90010	0.03560
969.97173	0.04194
968.04336	0.04814
966.11498	0.05324
964.18661	0.05603
962.25824	0.05435
960.32986	0.04715
958.40149	0.03692
956.47312	0.02855
954.54474	0.02540
952.61637	0.02752
950.68800	0.03319
948.75962	0.04066
946.83125	0.04877
944.90288	0.05642
942.97451	0.06275
941.04613	0.06793
939.11776	0.07254
937.18939	0.07644
935.26101	0.07913
933.33264	0.08063
931.40427	0.08189
929.47589	0.08338
927.54752	0.08377
925.61915	0.08216
923.69077	0.08000
921.76240	0.07853
919.83403	0.07816
917.90565	0.07939
915.97728	0.08117
914.04891	0.08172
912.12053	0.08046
910.19216	0.07747
908.26379	0.07305
906.33541	0.06731
904.40704	0.06059
902.47867	0.05458
900.55029	0.05060
898.62192	0.04802
896.69355	0.04536
894.76517	0.04244
892.83680	0.04099
890.90843	0.04191
888.98005	0.04398
887.05168	0.04557
885.12331	0.04553
883.19494	0.04437
881.26656	0.04432
879.33819	0.04547
877.40982	0.04591
875.48144	0.04599
873.55307	0.04657
871.62470	0.04677
869.69632	0.04670
867.76795	0.04760
865.83958	0.04880
863.91120	0.04885
861.98283	0.04798
860.05446	0.04701
858.12608	0.04620
856.19771	0.04567
854.26934	0.04555
852.34096	0.04541
850.41259	0.04490
848.48422	0.04396
846.55584	0.04237
844.62747	0.04050
842.69910	0.03937
840.77072	0.03899
838.84235	0.03783
836.91398	0.03505
834.98560	0.03210
833.05723	0.03031
831.12886	0.02945
829.20049	0.02897
827.27211	0.02800
825.34374	0.02654
823.41537	0.02595
821.48699	0.02622
819.55862	0.02600
817.63025	0.02491
815.70187	0.02359
813.77350	0.02277
811.84513	0.02234
809.91675	0.02159
807.98838	0.02038
806.06001	0.01929
804.13163	0.01886
802.20326	0.01828
800.27489	0.01612
798.34651	0.01343
796.41814	0.01194
794.48977	0.01096
792.56139	0.00976
790.63302	0.00938
788.70465	0.00986
786.77627	0.00988
784.84790	0.00920
782.91953	0.00882
780.99115	0.00942
779.06278	0.00999
777.13441	0.01015
775.20603	0.01022
773.27766	0.00999
771.34929	0.00952
769.42092	0.00914
767.49254	0.00851
765.56417	0.00806
763.63580	0.00869
761.70742	0.00931
759.77905	0.00813
757.85068	0.00606
755.92230	0.00462
753.99393	0.00345
752.06556	0.00296
750.13718	0.00375
748.20881	0.00494
746.28044	0.00574
744.35206	0.00553
742.42369	0.00563
740.49532	0.00566
738.56694	0.00552
736.63857	0.00550
734.71020	0.00585
732.78182	0.00653
730.85345	0.00691
728.92508	0.00720
726.99670	0.00726
725.06833	0.00662
723.13996	0.00570
721.21158	0.00565
719.28321	0.00594
717.35484	0.00569
715.42647	0.00505
713.49809	0.00432
711.56972	0.00384
709.64135	0.00337
707.71297	0.00329
705.78460	0.00332
703.85623	0.00352
701.92785	0.00469
699.99948	0.00600
698.07111	0.00705
696.14273	0.00676
694.21436	0.00509
692.28599	0.00478
690.35761	0.00650
688.42924	0.00867
686.50087	0.01005
684.57249	0.00996
682.64412	0.00925
680.71575	0.00870
678.78737	0.00785
676.85900	0.00661
674.93063	0.00559
673.00225	0.00474
671.07388	0.00440
669.14551	0.00393
667.21713	0.00416
665.28876	0.00425
663.36039	0.00426
661.43201	0.00541
659.50364	0.00577
657.57527	0.00659
655.64690	0.00756
653.71852	0.00822
651.79015	0.00915
649.86178	0.01014
647.93340	0.00852
646.00503	0.00533
644.07666	0.00632
642.14828	0.01004
640.21991	0.00960
638.29154	0.00435
636.36316	0.00354
634.43479	0.00492
632.50642	0.00785
630.57804	0.00837
628.64967	0.00865
626.72130	0.00809
624.79292	0.00662
622.86455	0.00685
620.93618	0.00803
619.00780	0.01134
617.07943	0.00897
615.15106	0.00697
613.22268	0.00696
611.29431	0.00762
609.36594	0.01019
607.43756	0.01101
605.50919	0.01086
603.58082	0.01066
601.65244	0.00977
599.72407	0.00721
