3997.51769	0.16057
3995.58931	0.15972
3993.66094	0.15918
3991.73257	0.15967
3989.80419	0.16055
3987.87582	0.16075
3985.94745	0.16059
3984.01907	0.16084
3982.09070	0.16142
3980.16233	0.16194
3978.23396	0.16212
3976.30558	0.16212
3974.37721	0.16213
3972.44884	0.16211
3970.52046	0.16220
3968.59209	0.16238
3966.66372	0.16253
3964.73534	0.16290
3962.80697	0.16372
3960.87860	0.16444
3958.95022	0.16455
3957.02185	0.16439
3955.09348	0.16461
3953.16510	0.16542
3951.23673	0.16643
3949.30836	0.16699
3947.37998	0.16670
3945.45161	0.16617
3943.52324	0.16635
3941.59486	0.16702
3939.66649	0.16731
3937.73812	0.16728
3935.80974	0.16748
3933.88137	0.16805
3931.95300	0.16872
3930.02462	0.16917
3928.09625	0.16953
3926.16788	0.16986
3924.23950	0.16996
3922.31113	0.16983
3920.38276	0.16998
3918.45439	0.17083
3916.52601	0.17179
3914.59764	0.17194
3912.66927	0.17172
3910.74089	0.17195
3908.81252	0.17283
3906.88415	0.17412
3904.95577	0.17533
3903.02740	0.17579
3901.09903	0.17566
3899.17065	0.17542
3897.24228	0.17510
3895.31391	0.17514
3893.38553	0.17600
3891.45716	0.17700
3889.52879	0.17735
3887.60041	0.17781
3885.67204	0.17869
3883.74367	0.17921
3881.81529	0.17963
3879.88692	0.18015
3877.95855	0.18012
3876.03017	0.17987
3874.10180	0.18009
3872.17343	0.18115
3870.24505	0.18251
3868.31668	0.18272
3866.38831	0.18250
3864.45994	0.18321
3862.53156	0.18374
3860.60319	0.18337
3858.67482	0.18311
3856.74644	0.18353
3854.81807	0.18538
3852.88970	0.18786
3850.96132	0.18731
3849.03295	0.18560
3847.10458	0.18465
3845.17620	0.18458
3843.24783	0.18507
3841.31946	0.18570
3839.39108	0.18642
3837.46271	0.18687
3835.53434	0.18652
3833.60596	0.18591
3831.67759	0.18534
3829.74922	0.18514
3827.82084	0.18579
3825.89247	0.18666
3823.96410	0.18738
3822.03572	0.18876
3820.10735	0.19007
3818.17898	0.18994
3816.25060	0.18897
3814.32223	0.18757
3812.39386	0.18656
3810.46548	0.18647
3808.53711	0.18720
3806.60874	0.18815
3804.68037	0.18869
3802.75199	0.18916
3800.82362	0.18914
3798.89525	0.18831
3796.96687	0.18779
3795.03850	0.18752
3793.11013	0.18707
3791.18175	0.18663
3789.25338	0.18630
3787.32501	0.18620
3785.39663	0.18630
3783.46826	0.18634
3781.53989	0.18652
3779.61151	0.18693
3777.68314	0.18675
3775.75477	0.18597
3773.82639	0.18580
3771.89802	0.18665
3769.96965	0.18752
3768.04127	0.18742
3766.11290	0.18687
3764.18453	0.18636
3762.25615	0.18624
3760.32778	0.18675
3758.39941	0.18708
3756.47103	0.18662
3754.54266	0.18634
3752.61429	0.18728
3750.68591	0.18860
3748.75754	0.18835
3746.82917	0.18778
3744.90080	0.18768
3742.97242	0.18667
3741.04405	0.18495
3739.11568	0.18399
3737.18730	0.18411
3735.25893	0.18469
3733.33056	0.18451
3731.40218	0.18341
3729.47381	0.18235
3727.54544	0.18176
3725.61706	0.18134
3723.68869	0.18052
3721.76032	0.17948
3719.83194	0.17824
3717.90357	0.17670
3715.97520	0.17584
3714.04682	0.17596
3712.11845	0.17589
3710.19008	0.17452
3708.26170	0.17257
3706.33333	0.17083
3704.40496	0.16961
3702.47658	0.16835
3700.54821	0.16596
3698.61984	0.16344
3696.69146	0.16159
3694.76309	0.15998
3692.83472	0.15832
3690.90635	0.15611
3688.97797	0.15261
3687.04960	0.14827
3685.12123	0.14412
3683.19285	0.14024
3681.26448	0.13671
3679.33611	0.13364
3677.40773	0.13054
3675.47936	0.12562
3673.55099	0.11933
3671.62261	0.11373
3669.69424	0.10728
3667.76587	0.10093
3665.83749	0.09613
3663.90912	0.09150
3661.98075	0.08663
3660.05237	0.08208
3658.12400	0.07799
3656.19563	0.07319
3654.26725	0.06816
3652.33888	0.06438
3650.41051	0.06068
3648.48213	0.05542
3646.55376	0.05016
3644.62539	0.04613
3642.69701	0.04261
3640.76864	0.03928
3638.84027	0.03615
3636.91189	0.03312
3634.98352	0.03038
3633.05515	0.02814
3631.12678	0.02601
3629.19840	0.02329
3627.27003	0.02066
3625.34166	0.01902
3623.41328	0.01771
3621.48491	0.01644
3619.55654	0.01493
3617.62816	0.01314
3615.69979	0.01151
3613.77142	0.01019
3611.84304	0.00911
3609.91467	0.00799
3607.98630	0.00691
3606.05792	0.00608
3604.12955	0.00528
3602.20118	0.00476
3600.27280	0.00483
3598.34443	0.00464
3596.41606	0.00397
3594.48768	0.00340
3592.55931	0.00307
3590.63094	0.00276
3588.70256	0.00272
3586.77419	0.00299
3584.84582	0.00278
3582.91744	0.00210
3580.98907	0.00161
3579.06070	0.00136
3577.13233	0.00110
3575.20395	0.00098
3573.27558	0.00107
3571.34721	0.00090
3569.41883	0.00120
3567.49046	0.00139
3565.56209	0.00092
3563.63371	0.00045
3561.70534	0.00062
3559.77697	0.00080
3557.84859	0.00077
3555.92022	0.00035
3553.99185	0.00040
3552.06347	0.00048
3550.13510	0.00069
3548.20673	0.00086
3546.27835	0.00064
3544.34998	0.00074
3542.42161	0.00088
3540.49323	0.00084
3538.56486	0.00116
3536.63649	0.00095
3534.70811	0.00059
3532.77974	0.00068
3530.85137	0.00048
3528.92299	0.00038
3526.99462	0.00042
3525.06625	0.00064
3523.13787	0.00044
3521.20950	0.00059
3519.28113	0.00050
3517.35276	0.00047
3515.42438	0.00037
3513.49601	0.00043
3511.56764	0.00063
3509.63926	0.00062
3507.71089	0.00075
3505.78252	0.00053
3503.85414	0.00069
3501.92577	0.00112
3499.99740	0.00075
3498.06902	0.00037
3496.14065	0.00088
3494.21228	0.00102
3492.28390	0.00069
3490.35553	0.00095
3488.42716	0.00094
3486.49878	0.00093
3484.57041	0.00116
3482.64204	0.00097
3480.71366	0.00060
3478.78529	0.00036
3476.85692	0.00057
3474.92854	0.00052
3473.00017	0.00074
3471.07180	0.00096
3469.14342	0.00085
3467.21505	0.00040
3465.28668	0.00105
3463.35831	0.00136
3461.42993	0.00124
3459.50156	0.00090
3457.57319	0.00057
3455.64481	0.00067
3453.71644	0.00113
3451.78807	0.00136
3449.85969	0.00119
3447.93132	0.00092
3446.00295	0.00082
3444.07457	0.00060
3442.14620	0.00049
3440.21783	0.00090
3438.28945	0.00084
3436.36108	0.00067
3434.43271	0.00087
3432.50433	0.00086
3430.57596	0.00053
3428.64759	0.00033
3426.71921	0.00064
3424.79084	0.00050
3422.86247	0.00080
3420.93409	0.00075
3419.00572	0.00033
3417.07735	0.00075
3415.14897	0.00105
3413.22060	0.00074
3411.29223	0.00030
3409.36385	0.00030
3407.43548	0.00033
3405.50711	0.00049
3403.57874	0.00061
3401.65036	0.00082
3399.72199	0.00105
3397.79362	0.00112
3395.86524	0.00099
3393.93687	0.00068
3392.00850	0.00069
3390.08012	0.00077
3388.15175	0.00048
3386.22338	0.00031
3384.29500	0.00060
3382.36663	0.00057
3380.43826	0.00023
3378.50988	0.00043
3376.58151	0.00125
3374.65314	0.00142
3372.72476	0.00127
3370.79639	0.00110
3368.86802	0.00087
3366.93964	0.00093
3365.01127	0.00071
3363.08290	0.00053
3361.15452	0.00078
3359.22615	0.00095
3357.29778	0.00098
3355.36940	0.00102
3353.44103	0.00098
3351.51266	0.00069
3349.58428	0.00062
3347.65591	0.00095
3345.72754	0.00112
3343.79917	0.00102
3341.87079	0.00074
3339.94242	0.00035
3338.01405	0.00048
3336.08567	0.00062
3334.15730	0.00086
3332.22893	0.00080
3330.30055	0.00030
3328.37218	0.00038
3326.44381	0.00054
3324.51543	0.00048
3322.58706	0.00063
3320.65869	0.00037
3318.73031	0.00077
3316.80194	0.00106
3314.87357	0.00082
3312.94519	0.00093
3311.01682	0.00082
3309.08845	0.00070
3307.16007	0.00094
3305.23170	0.00123
3303.30333	0.00112
3301.37495	0.00097
3299.44658	0.00111
3297.51821	0.00117
3295.58983	0.00088
3293.66146	0.00063
3291.73309	0.00060
3289.80472	0.00039
3287.87634	0.00030
3285.94797	0.00053
3284.01960	0.00084
3282.09122	0.00130
3280.16285	0.00125
3278.23448	0.00085
3276.30610	0.00095
3274.37773	0.00092
3272.44936	0.00088
3270.52098	0.00064
3268.59261	0.00079
3266.66424	0.00089
3264.73586	0.00049
3262.80749	0.00027
3260.87912	0.00030
3258.95074	0.00045
3257.02237	0.00036
3255.09400	0.00063
3253.16562	0.00076
3251.23725	0.00080
3249.30888	0.00137
3247.38050	0.00150
3245.45213	0.00079
3243.52376	0.00019
3241.59538	0.00049
3239.66701	0.00083
3237.73864	0.00093
3235.81026	0.00068
3233.88189	0.00060
3231.95352	0.00095
3230.02515	0.00122
3228.09677	0.00133
3226.16840	0.00126
3224.24003	0.00099
3222.31165	0.00060
3220.38328	0.00042
3218.45491	0.00074
3216.52653	0.00056
3214.59816	0.00085
3212.66979	0.00075
3210.74141	0.00031
3208.81304	0.00034
3206.88467	0.00074
3204.95629	0.00074
3203.02792	0.00064
3201.09955	0.00053
3199.17117	0.00063
3197.24280	0.00045
3195.31443	0.00064
3193.38605	0.00062
3191.45768	0.00075
3189.52931	0.00075
3187.60093	0.00103
3185.67256	0.00096
3183.74419	0.00078
3181.81581	0.00085
3179.88744	0.00078
3177.95907	0.00065
3176.03070	0.00060
3174.10232	0.00091
3172.17395	0.00082
3170.24558	0.00038
3168.31720	0.00028
3166.38883	0.00057
3164.46046	0.00099
3162.53208	0.00121
3160.60371	0.00103
3158.67534	0.00077
3156.74696	0.00067
3154.81859	0.00047
3152.89022	0.00054
3150.96184	0.00086
3149.03347	0.00080
3147.10510	0.00073
3145.17672	0.00110
3143.24835	0.00136
3141.31998	0.00113
3139.39160	0.00091
3137.46323	0.00067
3135.53486	0.00059
3133.60648	0.00070
3131.67811	0.00104
3129.74974	0.00085
3127.82136	0.00044
3125.89299	0.00029
3123.96462	0.00064
3122.03624	0.00075
3120.10787	0.00067
3118.17950	0.00092
3116.25113	0.00109
3114.32275	0.00121
3112.39438	0.00133
3110.46601	0.00106
3108.53763	0.00080
3106.60926	0.00060
3104.68089	0.00030
3102.75251	0.00054
3100.82414	0.00053
3098.89577	0.00059
3096.96739	0.00072
3095.03902	0.00061
3093.11065	0.00039
3091.18227	0.00052
3089.25390	0.00038
3087.32553	0.00075
3085.39715	0.00114
3083.46878	0.00068
3081.54041	0.00083
3079.61203	0.00076
3077.68366	0.00026
3075.75529	0.00054
3073.82691	0.00093
3071.89854	0.00110
3069.97017	0.00082
3068.04179	0.00062
3066.11342	0.00067
3064.18505	0.00089
3062.25668	0.00099
3060.32830	0.00086
3058.39993	0.00055
3056.47156	0.00045
3054.54318	0.00054
3052.61481	0.00097
3050.68644	0.00115
3048.75806	0.00101
3046.82969	0.00083
3044.90132	0.00042
3042.97294	0.00045
3041.04457	0.00028
3039.11620	0.00030
3037.18782	0.00064
3035.25945	0.00082
3033.33108	0.00083
3031.40270	0.00062
3029.47433	0.00036
3027.54596	0.00044
3025.61758	0.00072
3023.68921	0.00083
3021.76084	0.00072
3019.83246	0.00086
3017.90409	0.00090
3015.97572	0.00093
3014.04734	0.00051
3012.11897	0.00055
3010.19060	0.00065
3008.26222	0.00050
3006.33385	0.00029
3004.40548	0.00062
3002.47711	0.00080
3000.54873	0.00076
2998.62036	0.00049
2996.69199	0.00062
2994.76361	0.00068
2992.83524	0.00036
2990.90687	0.00086
2988.97849	0.00142
2987.05012	0.00124
2985.12175	0.00073
2983.19337	0.00080
2981.26500	0.00116
2979.33663	0.00106
2977.40825	0.00060
2975.47988	0.00040
2973.55151	0.00085
2971.62313	0.00113
2969.69476	0.00097
2967.76639	0.00132
2965.83801	0.00157
2963.90964	0.00150
2961.98127	0.00158
2960.05289	0.00144
2958.12452	0.00102
2956.19615	0.00106
2954.26777	0.00099
2952.33940	0.00072
2950.41103	0.00056
2948.48266	0.00038
2946.55428	0.00045
2944.62591	0.00060
2942.69754	0.00066
2940.76916	0.00087
2938.84079	0.00114
2936.91242	0.00087
2934.98404	0.00082
2933.05567	0.00132
2931.12730	0.00124
2929.19892	0.00128
2927.27055	0.00126
2925.34218	0.00085
2923.41380	0.00044
2921.48543	0.00039
2919.55706	0.00068
2917.62868	0.00087
2915.70031	0.00086
2913.77194	0.00071
2911.84356	0.00081
2909.91519	0.00072
2907.98682	0.00042
2906.05844	0.00056
2904.13007	0.00059
2902.20170	0.00095
2900.27332	0.00118
2898.34495	0.00117
2896.41658	0.00108
2894.48820	0.00078
2892.55983	0.00055
2890.63146	0.00098
2888.70309	0.00109
2886.77471	0.00056
2884.84634	0.00056
2882.91797	0.00096
2880.98959	0.00106
2879.06122	0.00071
2877.13285	0.00090
2875.20447	0.00126
2873.27610	0.00117
2871.34773	0.00104
2869.41935	0.00087
2867.49098	0.00043
2865.56261	0.00097
2863.63423	0.00097
2861.70586	0.00067
2859.77749	0.00052
2857.84911	0.00033
2855.92074	0.00049
2853.99237	0.00052
2852.06399	0.00063
2850.13562	0.00103
2848.20725	0.00104
2846.27887	0.00049
2844.35050	0.00066
2842.42213	0.00110
2840.49375	0.00115
2838.56538	0.00080
2836.63701	0.00046
2834.70863	0.00058
2832.78026	0.00079
2830.85189	0.00061
2828.92352	0.00042
2826.99514	0.00043
2825.06677	0.00056
2823.13840	0.00083
2821.21002	0.00066
2819.28165	0.00079
2817.35328	0.00081
2815.42490	0.00051
2813.49653	0.00062
2811.56816	0.00052
2809.63978	0.00035
2807.71141	0.00073
2805.78304	0.00117
2803.85466	0.00121
2801.92629	0.00104
2799.99792	0.00091
2798.06954	0.00053
2796.14117	0.00024
2794.21280	0.00043
2792.28442	0.00064
2790.35605	0.00096
2788.42768	0.00088
2786.49930	0.00051
2784.57093	0.00069
2782.64256	0.00079
2780.71418	0.00096
2778.78581	0.00096
2776.85744	0.00094
2774.92907	0.00096
2773.00069	0.00100
2771.07232	0.00132
2769.14395	0.00139
2767.21557	0.00127
2765.28720	0.00115
2763.35883	0.00127
2761.43045	0.00150
2759.50208	0.00133
2757.57371	0.00106
2755.64533	0.00110
2753.71696	0.00119
2751.78859	0.00115
2749.86021	0.00111
2747.93184	0.00109
2746.00347	0.00104
2744.07509	0.00098
2742.14672	0.00120
2740.21835	0.00121
2738.28997	0.00107
2736.36160	0.00093
2734.43323	0.00100
2732.50485	0.00125
2730.57648	0.00144
2728.64811	0.00157
2726.71973	0.00165
2724.79136	0.00160
2722.86299	0.00160
2720.93461	0.00172
2719.00624	0.00182
2717.07787	0.00201
2715.14950	0.00222
2713.22112	0.00232
2711.29275	0.00234
2709.36438	0.00239
2707.43600	0.00279
2705.50763	0.00330
2703.57926	0.00339
2701.65088	0.00294
2699.72251	0.00240
2697.79414	0.00200
2695.86576	0.00178
2693.93739	0.00188
2692.00902	0.00214
2690.08064	0.00240
2688.15227	0.00247
2686.22390	0.00248
2684.29552	0.00278
2682.36715	0.00313
2680.43878	0.00336
2678.51040	0.00339
2676.58203	0.00301
2674.65366	0.00267
2672.72528	0.00292
2670.79691	0.00352
2668.86854	0.00391
2666.94016	0.00394
2665.01179	0.00387
2663.08342	0.00397
2661.15505	0.00407
2659.22667	0.00401
2657.29830	0.00394
2655.36993	0.00399
2653.44155	0.00404
2651.51318	0.00397
2649.58481	0.00404
2647.65643	0.00451
2645.72806	0.00494
2643.79969	0.00497
2641.87131	0.00488
2639.94294	0.00499
2638.01457	0.00525
2636.08619	0.00553
2634.15782	0.00569
2632.22945	0.00566
2630.30107	0.00570
2628.37270	0.00564
2626.44433	0.00523
2624.51595	0.00513
2622.58758	0.00570
2620.65921	0.00628
2618.73083	0.00665
2616.80246	0.00709
2614.87409	0.00746
2612.94571	0.00744
2611.01734	0.00725
2609.08897	0.00733
2607.16059	0.00750
2605.23222	0.00751
2603.30385	0.00757
2601.37548	0.00766
2599.44710	0.00760
2597.51873	0.00779
2595.59036	0.00841
2593.66198	0.00889
2591.73361	0.00909
2589.80524	0.00931
2587.87686	0.00948
2585.94849	0.00942
2584.02012	0.00928
2582.09174	0.00937
2580.16337	0.00968
2578.23500	0.00988
2576.30662	0.01011
2574.37825	0.01063
2572.44988	0.01111
2570.52150	0.01114
2568.59313	0.01104
2566.66476	0.01123
2564.73638	0.01164
2562.80801	0.01216
2560.87964	0.01269
2558.95126	0.01311
2557.02289	0.01327
2555.09452	0.01310
2553.16614	0.01295
2551.23777	0.01326
2549.30940	0.01381
2547.38103	0.01418
2545.45265	0.01446
2543.52428	0.01464
2541.59591	0.01465
2539.66753	0.01477
2537.73916	0.01506
2535.81079	0.01526
2533.88241	0.01534
2531.95404	0.01557
2530.02567	0.01606
2528.09729	0.01644
2526.16892	0.01663
2524.24055	0.01694
2522.31217	0.01734
2520.38380	0.01766
2518.45543	0.01799
2516.52705	0.01829
2514.59868	0.01833
2512.67031	0.01825
2510.74193	0.01847
2508.81356	0.01887
2506.88519	0.01913
2504.95681	0.01949
2503.02844	0.02010
2501.10007	0.02058
2499.17169	0.02079
2497.24332	0.02104
2495.31495	0.02143
2493.38657	0.02173
2491.45820	0.02176
2489.52983	0.02169
2487.60146	0.02188
2485.67308	0.02231
2483.74471	0.02270
2481.81634	0.02312
2479.88796	0.02367
2477.95959	0.02418
2476.03122	0.02459
2474.10284	0.02482
2472.17447	0.02490
2470.24610	0.02528
2468.31772	0.02597
2466.38935	0.02642
2464.46098	0.02665
2462.53260	0.02706
2460.60423	0.02764
2458.67586	0.02827
2456.74748	0.02876
2454.81911	0.02903
2452.89074	0.02941
2450.96236	0.03006
2449.03399	0.03074
2447.10562	0.03142
2445.17724	0.03192
2443.24887	0.03200
2441.32050	0.03207
2439.39212	0.03241
2437.46375	0.03282
2435.53538	0.03326
2433.60700	0.03376
2431.67863	0.03428
2429.75026	0.03483
2427.82189	0.03525
2425.89351	0.03556
2423.96514	0.03597
2422.03677	0.03651
2420.10839	0.03700
2418.18002	0.03733
2416.25165	0.03763
2414.32327	0.03800
2412.39490	0.03850
2410.46653	0.03932
2408.53815	0.04030
2406.60978	0.04093
2404.68141	0.04113
2402.75303	0.04141
2400.82466	0.04203
2398.89629	0.04262
2396.96791	0.04316
2395.03954	0.04395
2393.11117	0.04478
2391.18279	0.04545
2389.25442	0.04606
2387.32605	0.04658
2385.39767	0.04691
2383.46930	0.04724
2381.54093	0.04779
2379.61255	0.04854
2377.68418	0.04936
2375.75581	0.05005
2373.82744	0.05057
2371.89906	0.05108
2369.97069	0.05174
2368.04232	0.05286
2366.11394	0.05479
2364.18557	0.05699
2362.25720	0.05801
2360.32882	0.05822
2358.40045	0.05909
2356.47208	0.05966
2354.54370	0.05914
2352.61533	0.05841
2350.68696	0.05775
2348.75858	0.05748
2346.83021	0.05807
2344.90184	0.05937
2342.97346	0.06062
2341.04509	0.06151
2339.11672	0.06205
2337.18834	0.06236
2335.25997	0.06222
2333.33160	0.06149
2331.40322	0.06116
2329.47485	0.06194
2327.54648	0.06302
2325.61810	0.06327
2323.68973	0.06309
2321.76136	0.06322
2319.83298	0.06337
2317.90461	0.06362
2315.97624	0.06424
2314.04787	0.06498
2312.11949	0.06567
2310.19112	0.06621
2308.26275	0.06639
2306.33437	0.06648
2304.40600	0.06688
2302.47763	0.06755
2300.54925	0.06824
2298.62088	0.06873
2296.69251	0.06901
2294.76413	0.06942
2292.83576	0.06999
2290.90739	0.07040
2288.97901	0.07074
2287.05064	0.07114
2285.12227	0.07141
2283.19389	0.07169
2281.26552	0.07213
2279.33715	0.07241
2277.40877	0.07266
2275.48040	0.07317
2273.55203	0.07361
2271.62365	0.07398
2269.69528	0.07453
2267.76691	0.07488
2265.83853	0.07492
2263.91016	0.07509
2261.98179	0.07544
2260.05342	0.07567
2258.12504	0.07587
2256.19667	0.07614
2254.26830	0.07648
2252.33992	0.07691
2250.41155	0.07720
2248.48318	0.07746
2246.55480	0.07803
2244.62643	0.07865
2242.69806	0.07904
2240.76968	0.07929
2238.84131	0.07941
2236.91294	0.07953
2234.98456	0.07985
2233.05619	0.08034
2231.12782	0.08077
2229.19944	0.08096
2227.27107	0.08096
2225.34270	0.08088
2223.41432	0.08087
2221.48595	0.08105
2219.55758	0.08143
2217.62920	0.08182
2215.70083	0.08202
2213.77246	0.08208
2211.84408	0.08225
2209.91571	0.08261
2207.98734	0.08307
2206.05896	0.08342
2204.13059	0.08362
2202.20222	0.08373
2200.27385	0.08378
2198.34547	0.08387
2196.41710	0.08399
2194.48873	0.08396
2192.56035	0.08383
2190.63198	0.08386
2188.70361	0.08409
2186.77523	0.08433
2184.84686	0.08437
2182.91849	0.08421
2180.99011	0.08421
2179.06174	0.08452
2177.13337	0.08477
2175.20499	0.08483
2173.27662	0.08492
2171.34825	0.08499
2169.41987	0.08492
2167.49150	0.08479
2165.56313	0.08472
2163.63475	0.08476
2161.70638	0.08484
2159.77801	0.08506
2157.84963	0.08552
2155.92126	0.08591
2153.99289	0.08610
2152.06451	0.08627
2150.13614	0.08636
2148.20777	0.08633
2146.27940	0.08636
2144.35102	0.08658
2142.42265	0.08690
2140.49428	0.08714
2138.56590	0.08732
2136.63753	0.08756
2134.70916	0.08786
2132.78078	0.08807
2130.85241	0.08827
2128.92404	0.08859
2126.99566	0.08892
2125.06729	0.08925
2123.13892	0.08971
2121.21054	0.09016
2119.28217	0.09042
2117.35380	0.09061
2115.42542	0.09096
2113.49705	0.09137
2111.56868	0.09169
2109.64030	0.09195
2107.71193	0.09226
2105.78356	0.09262
2103.85518	0.09290
2101.92681	0.09311
2099.99844	0.09341
2098.07006	0.09374
2096.14169	0.09387
2094.21332	0.09381
2092.28494	0.09385
2090.35657	0.09412
2088.42820	0.09443
2086.49983	0.09457
2084.57145	0.09454
2082.64308	0.09440
2080.71471	0.09430
2078.78633	0.09435
2076.85796	0.09454
2074.92959	0.09464
2073.00121	0.09444
2071.07284	0.09418
2069.14447	0.09426
2067.21609	0.09444
2065.28772	0.09448
2063.35935	0.09462
2061.43097	0.09490
2059.50260	0.09496
2057.57423	0.09479
2055.64585	0.09479
2053.71748	0.09523
2051.78911	0.09593
2049.86073	0.09652
2047.93236	0.09695
2046.00399	0.09735
2044.07561	0.09775
2042.14724	0.09816
2040.21887	0.09845
2038.29049	0.09864
2036.36212	0.09893
2034.43375	0.09928
2032.50538	0.09955
2030.57700	0.09971
2028.64863	0.09989
2026.72026	0.10011
2024.79188	0.10021
2022.86351	0.10022
2020.93514	0.10034
2019.00676	0.10048
2017.07839	0.10050
2015.15002	0.10052
2013.22164	0.10072
2011.29327	0.10098
2009.36490	0.10119
2007.43652	0.10135
2005.50815	0.10146
2003.57978	0.10159
2001.65140	0.10187
1999.72303	0.10213
1997.79466	0.10214
1995.86628	0.10210
1993.93791	0.10230
1992.00954	0.10282
1990.08116	0.10336
1988.15279	0.10353
1986.22442	0.10337
1984.29604	0.10324
1982.36767	0.10329
1980.43930	0.10346
1978.51092	0.10368
1976.58255	0.10387
1974.65418	0.10407
1972.72581	0.10426
1970.79743	0.10438
1968.86906	0.10461
1966.94069	0.10505
1965.01231	0.10540
1963.08394	0.10541
1961.15557	0.10531
1959.22719	0.10540
1957.29882	0.10567
1955.37045	0.10593
1953.44207	0.10605
1951.51370	0.10617
1949.58533	0.10655
1947.65695	0.10701
1945.72858	0.10738
1943.80021	0.10772
1941.87183	0.10793
1939.94346	0.10791
1938.01509	0.10787
1936.08671	0.10784
1934.15834	0.10777
1932.22997	0.10788
1930.30159	0.10817
1928.37322	0.10833
1926.44485	0.10839
1924.51647	0.10858
1922.58810	0.10881
1920.65973	0.10885
1918.73135	0.10885
1916.80298	0.10877
1914.87461	0.10858
1912.94624	0.10849
1911.01786	0.10850
1909.08949	0.10848
1907.16112	0.10846
1905.23274	0.10847
1903.30437	0.10846
1901.37600	0.10837
1899.44762	0.10835
1897.51925	0.10848
1895.59088	0.10844
1893.66250	0.10798
1891.73413	0.10746
1889.80576	0.10728
1887.87738	0.10710
1885.94901	0.10674
1884.02064	0.10638
1882.09226	0.10606
1880.16389	0.10585
1878.23552	0.10576
1876.30714	0.10564
1874.37877	0.10541
1872.45040	0.10523
1870.52202	0.10533
1868.59365	0.10540
1866.66528	0.10475
1864.73690	0.10375
1862.80853	0.10309
1860.88016	0.10286
1858.95179	0.10272
1857.02341	0.10241
1855.09504	0.10196
1853.16667	0.10162
1851.23829	0.10141
1849.30992	0.10116
1847.38155	0.10098
1845.45317	0.10087
1843.52480	0.10045
1841.59643	0.09984
1839.66805	0.09944
1837.73968	0.09912
1835.81131	0.09871
1833.88293	0.09834
1831.95456	0.09808
1830.02619	0.09772
1828.09781	0.09697
1826.16944	0.09589
1824.24107	0.09464
1822.31269	0.09357
1820.38432	0.09269
1818.45595	0.09169
1816.52757	0.09047
1814.59920	0.08935
1812.67083	0.08842
1810.74245	0.08701
1808.81408	0.08500
1806.88571	0.08322
1804.95733	0.08177
1803.02896	0.08027
1801.10059	0.07851
1799.17222	0.07619
1797.24384	0.07346
1795.31547	0.07097
1793.38710	0.06853
1791.45872	0.06556
1789.53035	0.06262
1787.60198	0.06011
1785.67360	0.05757
1783.74523	0.05492
1781.81686	0.05238
1779.88848	0.05000
1777.96011	0.04811
1776.03174	0.04678
1774.10336	0.04544
1772.17499	0.04334
1770.24662	0.04067
1768.31824	0.03807
1766.38987	0.03554
1764.46150	0.03321
1762.53312	0.03066
1760.60475	0.02776
1758.67638	0.02513
1756.74800	0.02240
1754.81963	0.01949
1752.89126	0.01656
1750.96288	0.01317
1749.03451	0.00984
1747.10614	0.00737
1745.17777	0.00536
1743.24939	0.00356
1741.32102	0.00225
1739.39265	0.00141
1737.46427	0.00095
1735.53590	0.00050
1733.60753	0.00096
1731.67915	0.00102
1729.75078	0.00065
1727.82241	0.00037
1725.89403	0.00061
1723.96566	0.00086
1722.03729	0.00102
1720.10891	0.00103
1718.18054	0.00116
1716.25217	0.00105
1714.32379	0.00057
1712.39542	0.00049
1710.46705	0.00036
1708.53867	0.00039
1706.61030	0.00046
1704.68193	0.00057
1702.75355	0.00089
1700.82518	0.00135
1698.89681	0.00106
1696.96843	0.00055
1695.04006	0.00056
1693.11169	0.00066
1691.18331	0.00083
1689.25494	0.00073
1687.32657	0.00050
1685.39820	0.00034
1683.46982	0.00062
1681.54145	0.00101
1679.61308	0.00114
1677.68470	0.00094
1675.75633	0.00078
1673.82796	0.00089
1671.89958	0.00081
1669.97121	0.00048
1668.04284	0.00061
1666.11446	0.00077
1664.18609	0.00054
1662.25772	0.00060
1660.32934	0.00098
1658.40097	0.00112
1656.47260	0.00115
1654.54422	0.00095
1652.61585	0.00065
1650.68748	0.00068
1648.75910	0.00130
1646.83073	0.00161
1644.90236	0.00095
1642.97398	0.00065
1641.04561	0.00079
1639.11724	0.00085
1637.18886	0.00082
1635.26049	0.00092
1633.33212	0.00118
1631.40375	0.00103
1629.47537	0.00083
1627.54700	0.00082
1625.61863	0.00073
1623.69025	0.00086
1621.76188	0.00103
1619.83351	0.00084
1617.90513	0.00049
1615.97676	0.00053
1614.04839	0.00068
1612.12001	0.00061
1610.19164	0.00034
1608.26327	0.00023
1606.33489	0.00047
1604.40652	0.00055
1602.47815	0.00051
1600.54977	0.00050
1598.62140	0.00044
1596.69303	0.00044
1594.76465	0.00054
1592.83628	0.00056
1590.90791	0.00044
1588.97953	0.00058
1587.05116	0.00038
1585.12279	0.00035
1583.19441	0.00021
1581.26604	0.00018
1579.33767	0.00033
1577.40929	0.00045
1575.48092	0.00061
1573.55255	0.00074
1571.62418	0.00063
1569.69580	0.00045
1567.76743	0.00017
1565.83906	0.00023
1563.91068	0.00043
1561.98231	0.00098
1560.05394	0.00171
1558.12556	0.00153
1556.19719	0.00096
1554.26882	0.00063
1552.34044	0.00027
1550.41207	0.00041
1548.48370	0.00062
1546.55532	0.00065
1544.62695	0.00074
1542.69858	0.00114
1540.77020	0.00116
1538.84183	0.00050
1536.91346	0.00061
1534.98508	0.00072
1533.05671	0.00130
1531.12834	0.00111
1529.19996	0.00068
1527.27159	0.00050
1525.34322	0.00034
1523.41484	0.00059
1521.48647	0.00092
1519.55810	0.00077
1517.62972	0.00078
1515.70135	0.00083
1513.77298	0.00067
1511.84461	0.00070
1509.91623	0.00086
1507.98786	0.00053
1506.05949	0.00048
1504.13111	0.00088
1502.20274	0.00092
1500.27437	0.00089
1498.34599	0.00072
1496.41762	0.00044
1494.48925	0.00046
1492.56087	0.00067
1490.63250	0.00080
1488.70413	0.00066
1486.77575	0.00069
1484.84738	0.00060
1482.91901	0.00048
1480.99063	0.00050
1479.06226	0.00060
1477.13389	0.00063
1475.20551	0.00071
1473.27714	0.00085
1471.34877	0.00063
1469.42039	0.00022
1467.49202	0.00019
1465.56365	0.00052
1463.63527	0.00094
1461.70690	0.00104
1459.77853	0.00090
1457.85016	0.00075
1455.92178	0.00103
1453.99341	0.00073
1452.06504	0.00058
1450.13666	0.00086
1448.20829	0.00102
1446.27992	0.00084
1444.35154	0.00056
1442.42317	0.00042
1440.49480	0.00065
1438.56642	0.00090
1436.63805	0.00087
1434.70968	0.00074
1432.78130	0.00044
1430.85293	0.00045
1428.92456	0.00025
1426.99618	0.00042
1425.06781	0.00064
1423.13944	0.00058
1421.21106	0.00081
1419.28269	0.00074
1417.35432	0.00032
1415.42594	0.00035
1413.49757	0.00034
1411.56920	0.00036
1409.64082	0.00054
1407.71245	0.00050
1405.78408	0.00043
1403.85570	0.00058
1401.92733	0.00112
1399.99896	0.00114
1398.07059	0.00104
1396.14221	0.00115
1394.21384	0.00099
1392.28547	0.00068
1390.35709	0.00047
1388.42872	0.00025
1386.50035	0.00037
1384.57197	0.00070
1382.64360	0.00065
1380.71523	0.00058
1378.78685	0.00050
1376.85848	0.00048
1374.93011	0.00093
1373.00173	0.00100
1371.07336	0.00094
1369.14499	0.00118
1367.21661	0.00122
1365.28824	0.00081
1363.35987	0.00054
1361.43149	0.00067
1359.50312	0.00087
1357.57475	0.00096
1355.64637	0.00094
1353.71800	0.00089
1351.78963	0.00058
1349.86125	0.00019
1347.93288	0.00030
1346.00451	0.00048
1344.07614	0.00060
1342.14776	0.00065
1340.21939	0.00059
1338.29102	0.00081
1336.36264	0.00079
1334.43427	0.00082
1332.50590	0.00096
1330.57752	0.00089
1328.64915	0.00055
1326.72078	0.00034
1324.79240	0.00008
1322.86403	0.00024
1320.93566	0.00063
1319.00728	0.00083
1317.07891	0.00056
1315.15054	0.00071
1313.22216	0.00105
1311.29379	0.00085
1309.36542	0.00045
1307.43704	0.00054
1305.50867	0.00038
1303.58030	0.00057
1301.65192	0.00102
1299.72355	0.00073
1297.79518	0.00031
1295.86680	0.00088
1293.93843	0.00099
1292.01006	0.00077
1290.08168	0.00081
1288.15331	0.00106
1286.22494	0.00126
1284.29657	0.00119
1282.36819	0.00089
1280.43982	0.00072
1278.51145	0.00073
1276.58307	0.00041
1274.65470	0.00058
1272.72633	0.00099
1270.79795	0.00079
1268.86958	0.00085
1266.94121	0.00086
1265.01283	0.00121
1263.08446	0.00105
1261.15609	0.00112
1259.22771	0.00085
1257.29934	0.00034
1255.37097	0.00094
1253.44259	0.00112
1251.51422	0.00054
1249.58585	0.00037
1247.65747	0.00032
1245.72910	0.00040
1243.80073	0.00091
1241.87235	0.00117
1239.94398	0.00120
1238.01561	0.00099
1236.08723	0.00096
1234.15886	0.00105
1232.23049	0.00119
1230.30212	0.00143
1228.37374	0.00188
1226.44537	0.00182
1224.51700	0.00133
1222.58862	0.00216
1220.66025	0.00290
1218.73188	0.00284
1216.80350	0.00190
1214.87513	0.00169
1212.94676	0.00140
1211.01838	0.00068
1209.09001	0.00093
1207.16164	0.00082
1205.23326	0.00149
1203.30489	0.00146
1201.37652	0.00103
1199.44814	0.00098
1197.51977	0.00147
1195.59140	0.00135
1193.66302	0.00062
1191.73465	0.00119
1189.80628	0.00189
1187.87790	0.00201
1185.94953	0.00111
1184.02116	0.00093
1182.09278	0.00060
1180.16441	0.00017
1178.23604	0.00040
1176.30766	0.00138
1174.37929	0.00175
1172.45092	0.00137
1170.52255	0.00122
1168.59417	0.00117
1166.66580	0.00097
1164.73743	0.00086
1162.80905	0.00103
1160.88068	0.00108
1158.95231	0.00164
1157.02393	0.00188
1155.09556	0.00176
1153.16719	0.00097
1151.23881	0.00050
1149.31044	0.00062
1147.38207	0.00053
1145.45369	0.00071
1143.52532	0.00074
1141.59695	0.00089
1139.66857	0.00078
1137.74020	0.00140
1135.81183	0.00163
1133.88345	0.00115
1131.95508	0.00084
1130.02671	0.00046
1128.09833	0.00074
1126.16996	0.00132
1124.24159	0.00071
1122.31321	0.00083
1120.38484	0.00098
1118.45647	0.00106
1116.52809	0.00119
1114.59972	0.00130
1112.67135	0.00104
1110.74298	0.00164
1108.81460	0.00224
1106.88623	0.00166
1104.95786	0.00156
1103.02948	0.00204
1101.10111	0.00174
1099.17274	0.00163
1097.24436	0.00180
1095.31599	0.00276
1093.38762	0.00235
1091.45924	0.00150
1089.53087	0.00173
1087.60250	0.00132
1085.67412	0.00083
1083.74575	0.00161
1081.81738	0.00168
1079.88900	0.00145
1077.96063	0.00108
1076.03226	0.00131
1074.10388	0.00137
1072.17551	0.00206
1070.24714	0.00228
1068.31876	0.00176
1066.39039	0.00105
1064.46202	0.00157
1062.53364	0.00197
1060.60527	0.00193
1058.67690	0.00131
1056.74853	0.00124
1054.82015	0.00168
1052.89178	0.00122
1050.96341	0.00167
1049.03503	0.00230
1047.10666	0.00228
1045.17829	0.00172
1043.24991	0.00122
1041.32154	0.00173
1039.39317	0.00164
1037.46479	0.00114
1035.53642	0.00107
1033.60805	0.00059
1031.67967	0.00074
1029.75130	0.00155
1027.82293	0.00215
1025.89455	0.00161
1023.96618	0.00047
1022.03781	0.00120
1020.10943	0.00153
1018.18106	0.00142
1016.25269	0.00153
1014.32431	0.00149
1012.39594	0.00099
1010.46757	0.00119
1008.53919	0.00120
1006.61082	0.00100
1004.68245	0.00100
1002.75407	0.00101
1000.82570	0.00084
998.89733	0.00085
996.96896	0.00173
995.04058	0.00203
993.11221	0.00167
991.18384	0.00087
989.25546	0.00104
987.32709	0.00167
985.39872	0.00192
983.47034	0.00216
981.54197	0.00259
979.61360	0.00255
977.68522	0.00211
975.75685	0.00212
973.82848	0.00252
971.90010	0.00272
969.97173	0.00295
968.04336	0.00345
966.11498	0.00398
964.18661	0.00429
962.25824	0.00397
960.32986	0.00282
958.40149	0.00164
956.47312	0.00149
954.54474	0.00175
952.61637	0.00167
950.68800	0.00150
948.75962	0.00202
946.83125	0.00254
944.90288	0.00329
942.97451	0.00410
941.04613	0.00471
939.11776	0.00578
937.18939	0.00734
935.26101	0.00787
933.33264	0.00741
931.40427	0.00715
929.47589	0.00701
927.54752	0.00663
925.61915	0.00626
923.69077	0.00623
921.76240	0.00682
919.83403	0.00772
917.90565	0.00796
915.97728	0.00726
914.04891	0.00690
912.12053	0.00743
910.19216	0.00763
908.26379	0.00690
906.33541	0.00634
904.40704	0.00601
902.47867	0.00477
900.55029	0.00343
898.62192	0.00285
896.69355	0.00235
894.76517	0.00182
892.83680	0.00186
890.90843	0.00262
888.98005	0.00314
887.05168	0.00320
885.12331	0.00373
883.19494	0.00519
881.26656	0.00602
879.33819	0.00559
877.40982	0.00438
875.48144	0.00329
873.55307	0.00366
871.62470	0.00443
869.69632	0.00449
867.76795	0.00458
865.83958	0.00527
863.91120	0.00556
861.98283	0.00508
860.05446	0.00457
858.12608	0.00446
856.19771	0.00480
854.26934	0.00532
852.34096	0.00559
850.41259	0.00496
848.48422	0.00418
846.55584	0.00417
844.62747	0.00437
842.69910	0.00416
840.77072	0.00354
838.84235	0.00305
836.91398	0.00276
834.98560	0.00256
833.05723	0.00315
831.12886	0.00311
829.20049	0.00217
827.27211	0.00091
825.34374	0.00072
823.41537	0.00092
821.48699	0.00030
819.55862	0.00153
817.63025	0.00166
815.70187	0.00210
813.77350	0.00251
811.84513	0.00207
809.91675	0.00153
807.98838	0.00221
806.06001	0.00171
804.13163	0.00326
802.20326	0.00308
800.27489	0.00127
798.34651	0.00179
796.41814	0.00116
794.48977	0.00147
792.56139	0.00200
790.63302	0.00164
788.70465	0.00196
786.77627	0.00238
784.84790	0.00301
782.91953	0.00321
780.99115	0.00209
779.06278	0.00176
777.13441	0.00219
775.20603	0.00223
773.27766	0.00216
771.34929	0.00210
769.42092	0.00229
767.49254	0.00262
765.56417	0.00209
763.63580	0.00162
761.70742	0.00119
759.77905	0.00091
757.85068	0.00187
755.92230	0.00196
753.99393	0.00136
752.06556	0.00095
750.13718	0.00114
748.20881	0.00190
746.28044	0.00155
744.35206	0.00080
742.42369	0.00119
740.49532	0.00104
738.56694	0.00142
736.63857	0.00235
734.71020	0.00336
732.78182	0.00330
730.85345	0.00262
728.92508	0.00279
726.99670	0.00324
725.06833	0.00315
723.13996	0.00153
721.21158	0.00101
719.28321	0.00212
717.35484	0.00208
715.42647	0.00126
713.49809	0.00202
711.56972	0.00188
709.64135	0.00120
707.71297	0.00137
705.78460	0.00151
703.85623	0.00216
701.92785	0.00124
699.99948	0.00141
698.07111	0.00251
696.14273	0.00273
694.21436	0.00228
692.28599	0.00225
690.35761	0.00318
688.42924	0.00268
686.50087	0.00145
684.57249	0.00274
682.64412	0.00242
680.71575	0.00269
678.78737	0.00338
676.85900	0.00390
674.93063	0.00425
673.00225	0.00425
671.07388	0.00449
669.14551	0.00601
667.21713	0.00653
665.28876	0.00409
663.36039	0.00246
661.43201	0.00197
659.50364	0.00265
657.57527	0.00295
655.64690	0.00377
653.71852	0.00396
651.79015	0.00503
649.86178	0.00496
647.93340	0.00277
646.00503	0.00341
644.07666	0.00458
642.14828	0.00551
640.21991	0.00551
638.29154	0.00553
636.36316	0.00700
634.43479	0.00683
632.50642	0.00374
630.57804	0.00360
628.64967	0.00417
626.72130	0.00276
624.79292	0.00311
622.86455	0.00385
620.93618	0.00517
619.00780	0.00557
617.07943	0.00698
615.15106	0.00842
613.22268	0.00985
611.29431	0.00875
609.36594	0.00764
607.43756	0.00501
605.50919	0.00301
603.58082	0.00726
601.65244	0.00832
599.72407	0.00807
