3997.51769	0.46284
3995.58931	0.46265
3993.66094	0.46239
3991.73257	0.46233
3989.80419	0.46288
3987.87582	0.46392
3985.94745	0.46463
3984.01907	0.46472
3982.09070	0.46463
3980.16233	0.46473
3978.23396	0.46482
3976.30558	0.46455
3974.37721	0.46426
3972.44884	0.46464
3970.52046	0.46557
3968.59209	0.46679
3966.66372	0.46817
3964.73534	0.46891
3962.80697	0.46863
3960.87860	0.46872
3958.95022	0.46982
3957.02185	0.47089
3955.09348	0.47163
3953.16510	0.47157
3951.23673	0.47006
3949.30836	0.46863
3947.37998	0.46970
3945.45161	0.47127
3943.52324	0.47080
3941.59486	0.47183
3939.66649	0.47589
3937.73812	0.47885
3935.80974	0.47820
3933.88137	0.47435
3931.95300	0.47110
3930.02462	0.47276
3928.09625	0.47632
3926.16788	0.47651
3924.23950	0.47556
3922.31113	0.47705
3920.38276	0.47779
3918.45439	0.47661
3916.52601	0.47835
3914.59764	0.48436
3912.66927	0.48997
3910.74089	0.49235
3908.81252	0.49091
3906.88415	0.48396
3904.95577	0.47307
3903.02740	0.46590
3901.09903	0.46676
3899.17065	0.47413
3897.24228	0.48502
3895.31391	0.49164
3893.38553	0.48947
3891.45716	0.48610
3889.52879	0.48918
3887.60041	0.49040
3885.67204	0.48635
3883.74367	0.48442
3881.81529	0.48399
3879.88692	0.48661
3877.95855	0.49468
3876.03017	0.49672
3874.10180	0.49055
3872.17343	0.48417
3870.24505	0.48119
3868.31668	0.48468
3866.38831	0.48864
3864.45994	0.48776
3862.53156	0.49075
3860.60319	0.49899
3858.67482	0.50193
3856.74644	0.49523
3854.81807	0.48084
3852.88970	0.47232
3850.96132	0.48558
3849.03295	0.50266
3847.10458	0.51050
3845.17620	0.50787
3843.24783	0.49901
3841.31946	0.48914
3839.39108	0.48165
3837.46271	0.48191
3835.53434	0.48975
3833.60596	0.49709
3831.67759	0.50250
3829.74922	0.50681
3827.82084	0.50799
3825.89247	0.50686
3823.96410	0.50234
3822.03572	0.49134
3820.10735	0.48581
3818.17898	0.49169
3816.25060	0.49820
3814.32223	0.50775
3812.39386	0.51825
3810.46548	0.52067
3808.53711	0.51373
3806.60874	0.50561
3804.68037	0.50166
3802.75199	0.49522
3800.82362	0.49165
3798.89525	0.49773
3796.96687	0.50452
3795.03850	0.51229
3793.11013	0.52123
3791.18175	0.52582
3789.25338	0.52567
3787.32501	0.52238
3785.39663	0.51817
3783.46826	0.51664
3781.53989	0.51484
3779.61151	0.51156
3777.68314	0.51408
3775.75477	0.52051
3773.82639	0.52164
3771.89802	0.51502
3769.96965	0.50677
3768.04127	0.50430
3766.11290	0.50585
3764.18453	0.50858
3762.25615	0.50847
3760.32778	0.50169
3758.39941	0.49554
3756.47103	0.49530
3754.54266	0.49180
3752.61429	0.47876
3750.68591	0.46584
3748.75754	0.46718
3746.82917	0.47109
3744.90080	0.47030
3742.97242	0.47519
3741.04405	0.48293
3739.11568	0.48184
3737.18730	0.46970
3735.25893	0.45681
3733.33056	0.45975
3731.40218	0.47484
3729.47381	0.48571
3727.54544	0.48573
3725.61706	0.47999
3723.68869	0.47640
3721.76032	0.47678
3719.83194	0.47975
3717.90357	0.48266
3715.97520	0.48115
3714.04682	0.47133
3712.11845	0.45598
3710.19008	0.45009
3708.26170	0.45842
3706.33333	0.46660
3704.40496	0.46561
3702.47658	0.45794
3700.54821	0.45323
3698.61984	0.45306
3696.69146	0.45023
3694.76309	0.44204
3692.83472	0.42786
3690.90635	0.40864
3688.97797	0.39462
3687.04960	0.39386
3685.12123	0.39574
3683.19285	0.39098
3681.26448	0.37853
3679.33611	0.36089
3677.40773	0.33946
3675.47936	0.31765
3673.55099	0.30642
3671.62261	0.29905
3669.69424	0.28679
3667.76587	0.27833
3665.83749	0.27363
3663.90912	0.26470
3661.98075	0.25163
3660.05237	0.23714
3658.12400	0.22157
3656.19563	0.20521
3654.26725	0.19115
3652.33888	0.17731
3650.41051	0.15908
3648.48213	0.14219
3646.55376	0.13489
3644.62539	0.13129
3642.69701	0.12547
3640.76864	0.11726
3638.84027	0.10868
3636.91189	0.10037
3634.98352	0.09199
3633.05515	0.08383
3631.12678	0.07600
3629.19840	0.06754
3627.27003	0.06092
3625.34166	0.05741
3623.41328	0.05387
3621.48491	0.04933
3619.55654	0.04414
3617.62816	0.03948
3615.69979	0.03594
3613.77142	0.03270
3611.84304	0.02958
3609.91467	0.02673
3607.98630	0.02420
3606.05792	0.02227
3604.12955	0.02062
3602.20118	0.01861
3600.27280	0.01657
3598.34443	0.01500
3596.41606	0.01357
3594.48768	0.01210
3592.55931	0.01095
3590.63094	0.01006
3588.70256	0.00890
3586.77419	0.00758
3584.84582	0.00662
3582.91744	0.00604
3580.98907	0.00549
3579.06070	0.00476
3577.13233	0.00418
3575.20395	0.00380
3573.27558	0.00330
3571.34721	0.00278
3569.41883	0.00247
3567.49046	0.00221
3565.56209	0.00185
3563.63371	0.00164
3561.70534	0.00155
3559.77697	0.00143
3557.84859	0.00115
3555.92022	0.00083
3553.99185	0.00052
3552.06347	0.00039
3550.13510	0.00047
3548.20673	0.00045
3546.27835	0.00036
3544.34998	0.00018
3542.42161	0.00038
3540.49323	0.00070
3538.56486	0.00072
3536.63649	0.00052
3534.70811	0.00036
3532.77974	0.00029
3530.85137	0.00024
3528.92299	0.00052
3526.99462	0.00070
3525.06625	0.00063
3523.13787	0.00060
3521.20950	0.00065
3519.28113	0.00067
3517.35276	0.00058
3515.42438	0.00043
3513.49601	0.00027
3511.56764	0.00032
3509.63926	0.00044
3507.71089	0.00042
3505.78252	0.00045
3503.85414	0.00028
3501.92577	0.00007
3499.99740	0.00029
3498.06902	0.00059
3496.14065	0.00087
3494.21228	0.00073
3492.28390	0.00039
3490.35553	0.00020
3488.42716	0.00033
3486.49878	0.00062
3484.57041	0.00080
3482.64204	0.00068
3480.71366	0.00044
3478.78529	0.00021
3476.85692	0.00027
3474.92854	0.00026
3473.00017	0.00039
3471.07180	0.00055
3469.14342	0.00066
3467.21505	0.00058
3465.28668	0.00029
3463.35831	0.00015
3461.42993	0.00020
3459.50156	0.00031
3457.57319	0.00043
3455.64481	0.00035
3453.71644	0.00027
3451.78807	0.00028
3449.85969	0.00047
3447.93132	0.00052
3446.00295	0.00043
3444.07457	0.00028
3442.14620	0.00010
3440.21783	0.00023
3438.28945	0.00026
3436.36108	0.00048
3434.43271	0.00057
3432.50433	0.00046
3430.57596	0.00045
3428.64759	0.00057
3426.71921	0.00071
3424.79084	0.00078
3422.86247	0.00064
3420.93409	0.00041
3419.00572	0.00035
3417.07735	0.00019
3415.14897	0.00016
3413.22060	0.00035
3411.29223	0.00051
3409.36385	0.00051
3407.43548	0.00053
3405.50711	0.00061
3403.57874	0.00053
3401.65036	0.00036
3399.72199	0.00032
3397.79362	0.00039
3395.86524	0.00037
3393.93687	0.00049
3392.00850	0.00048
3390.08012	0.00044
3388.15175	0.00053
3386.22338	0.00056
3384.29500	0.00037
3382.36663	0.00026
3380.43826	0.00039
3378.50988	0.00043
3376.58151	0.00048
3374.65314	0.00044
3372.72476	0.00044
3370.79639	0.00065
3368.86802	0.00064
3366.93964	0.00038
3365.01127	0.00043
3363.08290	0.00046
3361.15452	0.00038
3359.22615	0.00032
3357.29778	0.00032
3355.36940	0.00039
3353.44103	0.00044
3351.51266	0.00044
3349.58428	0.00038
3347.65591	0.00038
3345.72754	0.00037
3343.79917	0.00035
3341.87079	0.00025
3339.94242	0.00039
3338.01405	0.00058
3336.08567	0.00054
3334.15730	0.00042
3332.22893	0.00042
3330.30055	0.00040
3328.37218	0.00029
3326.44381	0.00024
3324.51543	0.00035
3322.58706	0.00048
3320.65869	0.00043
3318.73031	0.00028
3316.80194	0.00011
3314.87357	0.00010
3312.94519	0.00023
3311.01682	0.00045
3309.08845	0.00049
3307.16007	0.00054
3305.23170	0.00060
3303.30333	0.00050
3301.37495	0.00034
3299.44658	0.00030
3297.51821	0.00034
3295.58983	0.00033
3293.66146	0.00034
3291.73309	0.00035
3289.80472	0.00029
3287.87634	0.00037
3285.94797	0.00057
3284.01960	0.00061
3282.09122	0.00047
3280.16285	0.00047
3278.23448	0.00056
3276.30610	0.00053
3274.37773	0.00041
3272.44936	0.00028
3270.52098	0.00020
3268.59261	0.00012
3266.66424	0.00020
3264.73586	0.00039
3262.80749	0.00051
3260.87912	0.00059
3258.95074	0.00056
3257.02237	0.00068
3255.09400	0.00084
3253.16562	0.00076
3251.23725	0.00064
3249.30888	0.00067
3247.38050	0.00058
3245.45213	0.00045
3243.52376	0.00067
3241.59538	0.00071
3239.66701	0.00066
3237.73864	0.00049
3235.81026	0.00041
3233.88189	0.00059
3231.95352	0.00057
3230.02515	0.00052
3228.09677	0.00060
3226.16840	0.00070
3224.24003	0.00058
3222.31165	0.00038
3220.38328	0.00058
3218.45491	0.00063
3216.52653	0.00049
3214.59816	0.00058
3212.66979	0.00061
3210.74141	0.00036
3208.81304	0.00021
3206.88467	0.00032
3204.95629	0.00028
3203.02792	0.00021
3201.09955	0.00045
3199.17117	0.00051
3197.24280	0.00036
3195.31443	0.00042
3193.38605	0.00033
3191.45768	0.00024
3189.52931	0.00012
3187.60093	0.00025
3185.67256	0.00037
3183.74419	0.00054
3181.81581	0.00055
3179.88744	0.00061
3177.95907	0.00073
3176.03070	0.00081
3174.10232	0.00078
3172.17395	0.00070
3170.24558	0.00062
3168.31720	0.00062
3166.38883	0.00062
3164.46046	0.00040
3162.53208	0.00039
3160.60371	0.00054
3158.67534	0.00059
3156.74696	0.00069
3154.81859	0.00062
3152.89022	0.00037
3150.96184	0.00027
3149.03347	0.00047
3147.10510	0.00048
3145.17672	0.00039
3143.24835	0.00047
3141.31998	0.00034
3139.39160	0.00037
3137.46323	0.00045
3135.53486	0.00039
3133.60648	0.00021
3131.67811	0.00015
3129.74974	0.00013
3127.82136	0.00010
3125.89299	0.00018
3123.96462	0.00043
3122.03624	0.00054
3120.10787	0.00054
3118.17950	0.00051
3116.25113	0.00044
3114.32275	0.00039
3112.39438	0.00037
3110.46601	0.00036
3108.53763	0.00039
3106.60926	0.00049
3104.68089	0.00056
3102.75251	0.00053
3100.82414	0.00059
3098.89577	0.00072
3096.96739	0.00067
3095.03902	0.00047
3093.11065	0.00039
3091.18227	0.00049
3089.25390	0.00044
3087.32553	0.00038
3085.39715	0.00047
3083.46878	0.00045
3081.54041	0.00040
3079.61203	0.00038
3077.68366	0.00021
3075.75529	0.00026
3073.82691	0.00060
3071.89854	0.00058
3069.97017	0.00043
3068.04179	0.00042
3066.11342	0.00046
3064.18505	0.00042
3062.25668	0.00036
3060.32830	0.00028
3058.39993	0.00033
3056.47156	0.00046
3054.54318	0.00031
3052.61481	0.00021
3050.68644	0.00013
3048.75806	0.00038
3046.82969	0.00040
3044.90132	0.00020
3042.97294	0.00028
3041.04457	0.00049
3039.11620	0.00066
3037.18782	0.00064
3035.25945	0.00061
3033.33108	0.00054
3031.40270	0.00037
3029.47433	0.00044
3027.54596	0.00057
3025.61758	0.00061
3023.68921	0.00042
3021.76084	0.00043
3019.83246	0.00044
3017.90409	0.00038
3015.97572	0.00050
3014.04734	0.00059
3012.11897	0.00067
3010.19060	0.00073
3008.26222	0.00064
3006.33385	0.00054
3004.40548	0.00069
3002.47711	0.00080
3000.54873	0.00073
2998.62036	0.00050
2996.69199	0.00028
2994.76361	0.00024
2992.83524	0.00024
2990.90687	0.00024
2988.97849	0.00030
2987.05012	0.00020
2985.12175	0.00031
2983.19337	0.00039
2981.26500	0.00033
2979.33663	0.00032
2977.40825	0.00043
2975.47988	0.00047
2973.55151	0.00041
2971.62313	0.00038
2969.69476	0.00039
2967.76639	0.00022
2965.83801	0.00031
2963.90964	0.00060
2961.98127	0.00054
2960.05289	0.00034
2958.12452	0.00039
2956.19615	0.00062
2954.26777	0.00086
2952.33940	0.00076
2950.41103	0.00056
2948.48266	0.00058
2946.55428	0.00061
2944.62591	0.00052
2942.69754	0.00042
2940.76916	0.00040
2938.84079	0.00043
2936.91242	0.00037
2934.98404	0.00035
2933.05567	0.00051
2931.12730	0.00043
2929.19892	0.00048
2927.27055	0.00031
2925.34218	0.00026
2923.41380	0.00041
2921.48543	0.00047
2919.55706	0.00039
2917.62868	0.00036
2915.70031	0.00045
2913.77194	0.00053
2911.84356	0.00047
2909.91519	0.00042
2907.98682	0.00031
2906.05844	0.00014
2904.13007	0.00034
2902.20170	0.00053
2900.27332	0.00051
2898.34495	0.00034
2896.41658	0.00039
2894.48820	0.00040
2892.55983	0.00043
2890.63146	0.00050
2888.70309	0.00048
2886.77471	0.00040
2884.84634	0.00031
2882.91797	0.00033
2880.98959	0.00024
2879.06122	0.00032
2877.13285	0.00045
2875.20447	0.00056
2873.27610	0.00051
2871.34773	0.00038
2869.41935	0.00018
2867.49098	0.00029
2865.56261	0.00046
2863.63423	0.00049
2861.70586	0.00038
2859.77749	0.00015
2857.84911	0.00027
2855.92074	0.00039
2853.99237	0.00052
2852.06399	0.00056
2850.13562	0.00042
2848.20725	0.00029
2846.27887	0.00024
2844.35050	0.00028
2842.42213	0.00047
2840.49375	0.00066
2838.56538	0.00079
2836.63701	0.00086
2834.70863	0.00088
2832.78026	0.00089
2830.85189	0.00087
2828.92352	0.00078
2826.99514	0.00064
2825.06677	0.00066
2823.13840	0.00087
2821.21002	0.00103
2819.28165	0.00104
2817.35328	0.00106
2815.42490	0.00124
2813.49653	0.00139
2811.56816	0.00138
2809.63978	0.00138
2807.71141	0.00136
2805.78304	0.00124
2803.85466	0.00125
2801.92629	0.00144
2799.99792	0.00152
2798.06954	0.00149
2796.14117	0.00162
2794.21280	0.00184
2792.28442	0.00201
2790.35605	0.00203
2788.42768	0.00191
2786.49930	0.00187
2784.57093	0.00203
2782.64256	0.00214
2780.71418	0.00208
2778.78581	0.00210
2776.85744	0.00232
2774.92907	0.00259
2773.00069	0.00270
2771.07232	0.00270
2769.14395	0.00276
2767.21557	0.00295
2765.28720	0.00314
2763.35883	0.00324
2761.43045	0.00324
2759.50208	0.00324
2757.57371	0.00328
2755.64533	0.00342
2753.71696	0.00364
2751.78859	0.00383
2749.86021	0.00394
2747.93184	0.00396
2746.00347	0.00402
2744.07509	0.00427
2742.14672	0.00456
2740.21835	0.00479
2738.28997	0.00509
2736.36160	0.00543
2734.43323	0.00560
2732.50485	0.00568
2730.57648	0.00594
2728.64811	0.00636
2726.71973	0.00665
2724.79136	0.00671
2722.86299	0.00672
2720.93461	0.00690
2719.00624	0.00718
2717.07787	0.00740
2715.14950	0.00757
2713.22112	0.00778
2711.29275	0.00792
2709.36438	0.00794
2707.43600	0.00800
2705.50763	0.00822
2703.57926	0.00849
2701.65088	0.00865
2699.72251	0.00878
2697.79414	0.00900
2695.86576	0.00921
2693.93739	0.00931
2692.00902	0.00947
2690.08064	0.00978
2688.15227	0.01010
2686.22390	0.01021
2684.29552	0.01019
2682.36715	0.01028
2680.43878	0.01051
2678.51040	0.01088
2676.58203	0.01124
2674.65366	0.01139
2672.72528	0.01152
2670.79691	0.01187
2668.86854	0.01229
2666.94016	0.01259
2665.01179	0.01282
2663.08342	0.01303
2661.15505	0.01327
2659.22667	0.01358
2657.29830	0.01400
2655.36993	0.01446
2653.44155	0.01476
2651.51318	0.01491
2649.58481	0.01508
2647.65643	0.01542
2645.72806	0.01589
2643.79969	0.01635
2641.87131	0.01673
2639.94294	0.01704
2638.01457	0.01733
2636.08619	0.01764
2634.15782	0.01806
2632.22945	0.01857
2630.30107	0.01899
2628.37270	0.01928
2626.44433	0.01966
2624.51595	0.02020
2622.58758	0.02084
2620.65921	0.02140
2618.73083	0.02179
2616.80246	0.02213
2614.87409	0.02256
2612.94571	0.02308
2611.01734	0.02367
2609.08897	0.02432
2607.16059	0.02505
2605.23222	0.02574
2603.30385	0.02631
2601.37548	0.02690
2599.44710	0.02756
2597.51873	0.02818
2595.59036	0.02872
2593.66198	0.02927
2591.73361	0.02988
2589.80524	0.03049
2587.87686	0.03113
2585.94849	0.03180
2584.02012	0.03243
2582.09174	0.03306
2580.16337	0.03382
2578.23500	0.03463
2576.30662	0.03532
2574.37825	0.03594
2572.44988	0.03663
2570.52150	0.03746
2568.59313	0.03834
2566.66476	0.03919
2564.73638	0.04004
2562.80801	0.04091
2560.87964	0.04179
2558.95126	0.04268
2557.02289	0.04355
2555.09452	0.04444
2553.16614	0.04535
2551.23777	0.04618
2549.30940	0.04696
2547.38103	0.04777
2545.45265	0.04855
2543.52428	0.04920
2541.59591	0.04985
2539.66753	0.05061
2537.73916	0.05139
2535.81079	0.05213
2533.88241	0.05284
2531.95404	0.05359
2530.02567	0.05435
2528.09729	0.05503
2526.16892	0.05569
2524.24055	0.05641
2522.31217	0.05727
2520.38380	0.05823
2518.45543	0.05917
2516.52705	0.05996
2514.59868	0.06067
2512.67031	0.06145
2510.74193	0.06225
2508.81356	0.06301
2506.88519	0.06385
2504.95681	0.06475
2503.02844	0.06563
2501.10007	0.06659
2499.17169	0.06768
2497.24332	0.06871
2495.31495	0.06952
2493.38657	0.07029
2491.45820	0.07118
2489.52983	0.07213
2487.60146	0.07310
2485.67308	0.07408
2483.74471	0.07502
2481.81634	0.07593
2479.88796	0.07687
2477.95959	0.07783
2476.03122	0.07882
2474.10284	0.07984
2472.17447	0.08084
2470.24610	0.08191
2468.31772	0.08320
2466.38935	0.08467
2464.46098	0.08602
2462.53260	0.08722
2460.60423	0.08851
2458.67586	0.08992
2456.74748	0.09132
2454.81911	0.09270
2452.89074	0.09412
2450.96236	0.09555
2449.03399	0.09696
2447.10562	0.09836
2445.17724	0.09968
2443.24887	0.10094
2441.32050	0.10222
2439.39212	0.10357
2437.46375	0.10486
2435.53538	0.10613
2433.60700	0.10749
2431.67863	0.10882
2429.75026	0.11004
2427.82189	0.11128
2425.89351	0.11264
2423.96514	0.11404
2422.03677	0.11536
2420.10839	0.11658
2418.18002	0.11780
2416.25165	0.11911
2414.32327	0.12046
2412.39490	0.12179
2410.46653	0.12317
2408.53815	0.12466
2406.60978	0.12629
2404.68141	0.12797
2402.75303	0.12960
2400.82466	0.13122
2398.89629	0.13289
2396.96791	0.13461
2395.03954	0.13635
2393.11117	0.13800
2391.18279	0.13952
2389.25442	0.14103
2387.32605	0.14248
2385.39767	0.14372
2383.46930	0.14478
2381.54093	0.14572
2379.61255	0.14643
2377.68418	0.14689
2375.75581	0.14729
2373.82744	0.14776
2371.89906	0.14830
2369.97069	0.14888
2368.04232	0.14947
2366.11394	0.15024
2364.18557	0.15125
2362.25720	0.15246
2360.32882	0.15395
2358.40045	0.15576
2356.47208	0.15783
2354.54370	0.16007
2352.61533	0.16235
2350.68696	0.16441
2348.75858	0.16586
2346.83021	0.16653
2344.90184	0.16673
2342.97346	0.16719
2341.04509	0.16798
2339.11672	0.16869
2337.18834	0.16953
2335.25997	0.17070
2333.33160	0.17186
2331.40322	0.17286
2329.47485	0.17388
2327.54648	0.17503
2325.61810	0.17629
2323.68973	0.17764
2321.76136	0.17911
2319.83298	0.18075
2317.90461	0.18264
2315.97624	0.18463
2314.04787	0.18655
2312.11949	0.18857
2310.19112	0.19078
2308.26275	0.19306
2306.33437	0.19536
2304.40600	0.19755
2302.47763	0.19948
2300.54925	0.20125
2298.62088	0.20300
2296.69251	0.20474
2294.76413	0.20644
2292.83576	0.20809
2290.90739	0.20973
2288.97901	0.21135
2287.05064	0.21284
2285.12227	0.21413
2283.19389	0.21526
2281.26552	0.21633
2279.33715	0.21734
2277.40877	0.21831
2275.48040	0.21929
2273.55203	0.22026
2271.62365	0.22118
2269.69528	0.22208
2267.76691	0.22295
2265.83853	0.22381
2263.91016	0.22469
2261.98179	0.22557
2260.05342	0.22644
2258.12504	0.22732
2256.19667	0.22829
2254.26830	0.22948
2252.33992	0.23082
2250.41155	0.23205
2248.48318	0.23315
2246.55480	0.23426
2244.62643	0.23543
2242.69806	0.23646
2240.76968	0.23732
2238.84131	0.23818
2236.91294	0.23903
2234.98456	0.23971
2233.05619	0.24024
2231.12782	0.24081
2229.19944	0.24151
2227.27107	0.24219
2225.34270	0.24274
2223.41432	0.24330
2221.48595	0.24388
2219.55758	0.24439
2217.62920	0.24484
2215.70083	0.24537
2213.77246	0.24596
2211.84408	0.24656
2209.91571	0.24712
2207.98734	0.24762
2206.05896	0.24806
2204.13059	0.24853
2202.20222	0.24897
2200.27385	0.24927
2198.34547	0.24953
2196.41710	0.24989
2194.48873	0.25030
2192.56035	0.25062
2190.63198	0.25091
2188.70361	0.25123
2186.77523	0.25153
2184.84686	0.25175
2182.91849	0.25202
2180.99011	0.25239
2179.06174	0.25279
2177.13337	0.25311
2175.20499	0.25331
2173.27662	0.25344
2171.34825	0.25359
2169.41987	0.25375
2167.49150	0.25386
2165.56313	0.25396
2163.63475	0.25406
2161.70638	0.25421
2159.77801	0.25451
2157.84963	0.25488
2155.92126	0.25525
2153.99289	0.25569
2152.06451	0.25616
2150.13614	0.25658
2148.20777	0.25696
2146.27940	0.25737
2144.35102	0.25788
2142.42265	0.25846
2140.49428	0.25901
2138.56590	0.25953
2136.63753	0.26014
2134.70916	0.26085
2132.78078	0.26161
2130.85241	0.26246
2128.92404	0.26335
2126.99566	0.26426
2125.06729	0.26532
2123.13892	0.26648
2121.21054	0.26759
2119.28217	0.26860
2117.35380	0.26962
2115.42542	0.27070
2113.49705	0.27186
2111.56868	0.27295
2109.64030	0.27392
2107.71193	0.27483
2105.78356	0.27567
2103.85518	0.27642
2101.92681	0.27710
2099.99844	0.27777
2098.07006	0.27845
2096.14169	0.27910
2094.21332	0.27967
2092.28494	0.28008
2090.35657	0.28032
2088.42820	0.28060
2086.49983	0.28100
2084.57145	0.28138
2082.64308	0.28167
2080.71471	0.28180
2078.78633	0.28183
2076.85796	0.28185
2074.92959	0.28181
2073.00121	0.28174
2071.07284	0.28178
2069.14447	0.28175
2067.21609	0.28148
2065.28772	0.28131
2063.35935	0.28168
2061.43097	0.28236
2059.50260	0.28296
2057.57423	0.28358
2055.64585	0.28429
2053.71748	0.28511
2051.78911	0.28607
2049.86073	0.28709
2047.93236	0.28802
2046.00399	0.28882
2044.07561	0.28954
2042.14724	0.29034
2040.21887	0.29144
2038.29049	0.29271
2036.36212	0.29383
2034.43375	0.29477
2032.50538	0.29555
2030.57700	0.29617
2028.64863	0.29669
2026.72026	0.29714
2024.79188	0.29749
2022.86351	0.29774
2020.93514	0.29771
2019.00676	0.29729
2017.07839	0.29720
2015.15002	0.29815
2013.22164	0.29937
2011.29327	0.30011
2009.36490	0.30068
2007.43652	0.30132
2005.50815	0.30198
2003.57978	0.30266
2001.65140	0.30333
1999.72303	0.30399
1997.79466	0.30465
1995.86628	0.30481
1993.93791	0.30383
1992.00954	0.30301
1990.08116	0.30384
1988.15279	0.30536
1986.22442	0.30648
1984.29604	0.30726
1982.36767	0.30769
1980.43930	0.30791
1978.51092	0.30818
1976.58255	0.30855
1974.65418	0.30894
1972.72581	0.30926
1970.79743	0.30916
1968.86906	0.30831
1966.94069	0.30796
1965.01231	0.30927
1963.08394	0.31089
1961.15557	0.31170
1959.22719	0.31218
1957.29882	0.31260
1955.37045	0.31300
1953.44207	0.31376
1951.51370	0.31474
1949.58533	0.31536
1947.65695	0.31527
1945.72858	0.31415
1943.80021	0.31243
1941.87183	0.31276
1939.94346	0.31584
1938.01509	0.31848
1936.08671	0.31931
1934.15834	0.31942
1932.22997	0.31960
1930.30159	0.31998
1928.37322	0.32032
1926.44485	0.31976
1924.51647	0.31783
1922.58810	0.31642
1920.65973	0.31628
1918.73135	0.31600
1916.80298	0.31706
1914.87461	0.31976
1912.94624	0.32082
1911.01786	0.31964
1909.08949	0.31868
1907.16112	0.31940
1905.23274	0.32055
1903.30437	0.32093
1901.37600	0.32088
1899.44762	0.32049
1897.51925	0.31920
1895.59088	0.31762
1893.66250	0.31680
1891.73413	0.31535
1889.80576	0.31325
1887.87738	0.31338
1885.94901	0.31486
1884.02064	0.31529
1882.09226	0.31498
1880.16389	0.31440
1878.23552	0.31367
1876.30714	0.31292
1874.37877	0.31189
1872.45040	0.30887
1870.52202	0.30253
1868.59365	0.29715
1866.66528	0.29856
1864.73690	0.30299
1862.80853	0.30484
1860.88016	0.30425
1858.95179	0.30324
1857.02341	0.30252
1855.09504	0.30180
1853.16667	0.30070
1851.23829	0.29893
1849.30992	0.29592
1847.38155	0.29129
1845.45317	0.28584
1843.52480	0.28414
1841.59643	0.28759
1839.66805	0.29012
1837.73968	0.28958
1835.81131	0.28846
1833.88293	0.28661
1831.95456	0.28144
1830.02619	0.27532
1828.09781	0.27337
1826.16944	0.27339
1824.24107	0.27325
1822.31269	0.27402
1820.38432	0.27369
1818.45595	0.27114
1816.52757	0.26787
1814.59920	0.26389
1812.67083	0.25818
1810.74245	0.25227
1808.81408	0.24851
1806.88571	0.24549
1804.95733	0.24056
1803.02896	0.23297
1801.10059	0.22438
1799.17222	0.21760
1797.24384	0.21211
1795.31547	0.20486
1793.38710	0.19495
1791.45872	0.18657
1789.53035	0.18288
1787.60198	0.17920
1785.67360	0.17260
1783.74523	0.16498
1781.81686	0.15785
1779.88848	0.15138
1777.96011	0.14566
1776.03174	0.13925
1774.10336	0.13073
1772.17499	0.12181
1770.24662	0.11616
1768.31824	0.11266
1766.38987	0.10837
1764.46150	0.10237
1762.53312	0.09416
1760.60475	0.08528
1758.67638	0.07718
1756.74800	0.06836
1754.81963	0.05919
1752.89126	0.04984
1750.96288	0.03921
1749.03451	0.02905
1747.10614	0.02140
1745.17777	0.01557
1743.24939	0.01081
1741.32102	0.00700
1739.39265	0.00404
1737.46427	0.00220
1735.53590	0.00113
1733.60753	0.00042
1731.67915	0.00018
1729.75078	0.00032
1727.82241	0.00051
1725.89403	0.00057
1723.96566	0.00049
1722.03729	0.00043
1720.10891	0.00047
1718.18054	0.00067
1716.25217	0.00082
1714.32379	0.00064
1712.39542	0.00045
1710.46705	0.00040
1708.53867	0.00055
1706.61030	0.00058
1704.68193	0.00048
1702.75355	0.00037
1700.82518	0.00029
1698.89681	0.00036
1696.96843	0.00059
1695.04006	0.00074
1693.11169	0.00066
1691.18331	0.00050
1689.25494	0.00046
1687.32657	0.00055
1685.39820	0.00062
1683.46982	0.00058
1681.54145	0.00054
1679.61308	0.00049
1677.68470	0.00049
1675.75633	0.00045
1673.82796	0.00032
1671.89958	0.00033
1669.97121	0.00056
1668.04284	0.00070
1666.11446	0.00064
1664.18609	0.00057
1662.25772	0.00051
1660.32934	0.00048
1658.40097	0.00050
1656.47260	0.00054
1654.54422	0.00066
1652.61585	0.00080
1650.68748	0.00074
1648.75910	0.00072
1646.83073	0.00080
1644.90236	0.00074
1642.97398	0.00060
1641.04561	0.00055
1639.11724	0.00060
1637.18886	0.00079
1635.26049	0.00096
1633.33212	0.00085
1631.40375	0.00064
1629.47537	0.00048
1627.54700	0.00038
1625.61863	0.00039
1623.69025	0.00042
1621.76188	0.00050
1619.83351	0.00051
1617.90513	0.00054
1615.97676	0.00054
1614.04839	0.00049
1612.12001	0.00053
1610.19164	0.00053
1608.26327	0.00044
1606.33489	0.00037
1604.40652	0.00037
1602.47815	0.00036
1600.54977	0.00039
1598.62140	0.00038
1596.69303	0.00033
1594.76465	0.00036
1592.83628	0.00036
1590.90791	0.00036
1588.97953	0.00046
1587.05116	0.00056
1585.12279	0.00058
1583.19441	0.00048
1581.26604	0.00043
1579.33767	0.00050
1577.40929	0.00055
1575.48092	0.00049
1573.55255	0.00032
1571.62418	0.00027
1569.69580	0.00044
1567.76743	0.00055
1565.83906	0.00056
1563.91068	0.00058
1561.98231	0.00066
1560.05394	0.00083
1558.12556	0.00087
1556.19719	0.00073
1554.26882	0.00063
1552.34044	0.00055
1550.41207	0.00046
1548.48370	0.00039
1546.55532	0.00039
1544.62695	0.00049
1542.69858	0.00075
1540.77020	0.00098
1538.84183	0.00079
1536.91346	0.00056
1534.98508	0.00055
1533.05671	0.00054
1531.12834	0.00052
1529.19996	0.00057
1527.27159	0.00060
1525.34322	0.00064
1523.41484	0.00066
1521.48647	0.00062
1519.55810	0.00059
1517.62972	0.00058
1515.70135	0.00054
1513.77298	0.00047
1511.84461	0.00037
1509.91623	0.00032
1507.98786	0.00044
1506.05949	0.00054
1504.13111	0.00045
1502.20274	0.00041
1500.27437	0.00049
1498.34599	0.00053
1496.41762	0.00054
1494.48925	0.00047
1492.56087	0.00035
1490.63250	0.00034
1488.70413	0.00046
1486.77575	0.00052
1484.84738	0.00056
1482.91901	0.00060
1480.99063	0.00056
1479.06226	0.00055
1477.13389	0.00054
1475.20551	0.00052
1473.27714	0.00058
1471.34877	0.00074
1469.42039	0.00079
1467.49202	0.00071
1465.56365	0.00062
1463.63527	0.00057
1461.70690	0.00057
1459.77853	0.00061
1457.85016	0.00071
1455.92178	0.00081
1453.99341	0.00085
1452.06504	0.00088
1450.13666	0.00082
1448.20829	0.00070
1446.27992	0.00066
1444.35154	0.00066
1442.42317	0.00060
1440.49480	0.00051
1438.56642	0.00053
1436.63805	0.00068
1434.70968	0.00080
1432.78130	0.00083
1430.85293	0.00085
1428.92456	0.00080
1426.99618	0.00064
1425.06781	0.00054
1423.13944	0.00060
1421.21106	0.00072
1419.28269	0.00083
1417.35432	0.00078
1415.42594	0.00068
1413.49757	0.00067
1411.56920	0.00072
1409.64082	0.00079
1407.71245	0.00087
1405.78408	0.00090
1403.85570	0.00077
1401.92733	0.00062
1399.99896	0.00060
1398.07059	0.00073
1396.14221	0.00088
1394.21384	0.00080
1392.28547	0.00067
1390.35709	0.00064
1388.42872	0.00067
1386.50035	0.00075
1384.57197	0.00070
1382.64360	0.00054
1380.71523	0.00044
1378.78685	0.00050
1376.85848	0.00069
1374.93011	0.00083
1373.00173	0.00074
1371.07336	0.00059
1369.14499	0.00056
1367.21661	0.00056
1365.28824	0.00055
1363.35987	0.00079
1361.43149	0.00106
1359.50312	0.00113
1357.57475	0.00116
1355.64637	0.00113
1353.71800	0.00102
1351.78963	0.00087
1349.86125	0.00078
1347.93288	0.00075
1346.00451	0.00070
1344.07614	0.00064
1342.14776	0.00064
1340.21939	0.00073
1338.29102	0.00084
1336.36264	0.00085
1334.43427	0.00083
1332.50590	0.00087
1330.57752	0.00091
1328.64915	0.00091
1326.72078	0.00094
1324.79240	0.00097
1322.86403	0.00097
1320.93566	0.00108
1319.00728	0.00116
1317.07891	0.00098
1315.15054	0.00074
1313.22216	0.00070
1311.29379	0.00080
1309.36542	0.00091
1307.43704	0.00099
1305.50867	0.00114
1303.58030	0.00116
1301.65192	0.00097
1299.72355	0.00078
1297.79518	0.00080
1295.86680	0.00088
1293.93843	0.00095
1292.01006	0.00107
1290.08168	0.00120
1288.15331	0.00125
1286.22494	0.00122
1284.29657	0.00118
1282.36819	0.00105
1280.43982	0.00087
1278.51145	0.00065
1276.58307	0.00052
1274.65470	0.00078
1272.72633	0.00108
1270.79795	0.00107
1268.86958	0.00083
1266.94121	0.00065
1265.01283	0.00073
1263.08446	0.00089
1261.15609	0.00096
1259.22771	0.00094
1257.29934	0.00093
1255.37097	0.00099
1253.44259	0.00114
1251.51422	0.00133
1249.58585	0.00140
1247.65747	0.00135
1245.72910	0.00122
1243.80073	0.00116
1241.87235	0.00124
1239.94398	0.00134
1238.01561	0.00133
1236.08723	0.00116
1234.15886	0.00089
1232.23049	0.00082
1230.30212	0.00092
1228.37374	0.00113
1226.44537	0.00147
1224.51700	0.00190
1222.58862	0.00214
1220.66025	0.00204
1218.73188	0.00195
1216.80350	0.00207
1214.87513	0.00223
1212.94676	0.00219
1211.01838	0.00191
1209.09001	0.00162
1207.16164	0.00156
1205.23326	0.00145
1203.30489	0.00124
1201.37652	0.00124
1199.44814	0.00139
1197.51977	0.00158
1195.59140	0.00182
1193.66302	0.00197
1191.73465	0.00184
1189.80628	0.00168
1187.87790	0.00165
1185.94953	0.00159
1184.02116	0.00152
1182.09278	0.00156
1180.16441	0.00164
1178.23604	0.00159
1176.30766	0.00137
1174.37929	0.00122
1172.45092	0.00126
1170.52255	0.00122
1168.59417	0.00120
1166.66580	0.00135
1164.73743	0.00163
1162.80905	0.00175
1160.88068	0.00177
1158.95231	0.00177
1157.02393	0.00170
1155.09556	0.00163
1153.16719	0.00160
1151.23881	0.00165
1149.31044	0.00176
1147.38207	0.00170
1145.45369	0.00150
1143.52532	0.00147
1141.59695	0.00158
1139.66857	0.00166
1137.74020	0.00179
1135.81183	0.00195
1133.88345	0.00208
1131.95508	0.00200
1130.02671	0.00166
1128.09833	0.00137
1126.16996	0.00136
1124.24159	0.00146
1122.31321	0.00176
1120.38484	0.00208
1118.45647	0.00208
1116.52809	0.00175
1114.59972	0.00154
1112.67135	0.00155
1110.74298	0.00158
1108.81460	0.00156
1106.88623	0.00155
1104.95786	0.00166
1103.02948	0.00181
1101.10111	0.00190
1099.17274	0.00207
1097.24436	0.00227
1095.31599	0.00222
1093.38762	0.00191
1091.45924	0.00167
1089.53087	0.00163
1087.60250	0.00174
1085.67412	0.00191
1083.74575	0.00213
1081.81738	0.00221
1079.88900	0.00231
1077.96063	0.00246
1076.03226	0.00232
1074.10388	0.00210
1072.17551	0.00212
1070.24714	0.00210
1068.31876	0.00186
1066.39039	0.00161
1064.46202	0.00156
1062.53364	0.00165
1060.60527	0.00176
1058.67690	0.00190
1056.74853	0.00211
1054.82015	0.00230
1052.89178	0.00248
1050.96341	0.00262
1049.03503	0.00250
1047.10666	0.00220
1045.17829	0.00201
1043.24991	0.00193
1041.32154	0.00190
1039.39317	0.00192
1037.46479	0.00186
1035.53642	0.00175
1033.60805	0.00192
1031.67967	0.00228
1029.75130	0.00250
1027.82293	0.00233
1025.89455	0.00195
1023.96618	0.00179
1022.03781	0.00176
1020.10943	0.00171
1018.18106	0.00175
1016.25269	0.00185
1014.32431	0.00184
1012.39594	0.00169
1010.46757	0.00163
1008.53919	0.00177
1006.61082	0.00179
1004.68245	0.00168
1002.75407	0.00159
1000.82570	0.00150
998.89733	0.00170
996.96896	0.00221
995.04058	0.00281
993.11221	0.00338
991.18384	0.00391
989.25546	0.00447
987.32709	0.00507
985.39872	0.00552
983.47034	0.00561
981.54197	0.00534
979.61360	0.00493
977.68522	0.00459
975.75685	0.00446
973.82848	0.00479
971.90010	0.00592
969.97173	0.00795
968.04336	0.01048
966.11498	0.01281
964.18661	0.01419
962.25824	0.01390
960.32986	0.01161
958.40149	0.00827
956.47312	0.00552
954.54474	0.00429
952.61637	0.00459
950.68800	0.00617
948.75962	0.00874
946.83125	0.01177
944.90288	0.01482
942.97451	0.01762
941.04613	0.01995
939.11776	0.02209
937.18939	0.02427
935.26101	0.02608
933.33264	0.02722
931.40427	0.02784
929.47589	0.02817
927.54752	0.02825
925.61915	0.02796
923.69077	0.02735
921.76240	0.02679
919.83403	0.02667
917.90565	0.02704
915.97728	0.02771
914.04891	0.02829
912.12053	0.02811
910.19216	0.02666
908.26379	0.02431
906.33541	0.02164
904.40704	0.01877
902.47867	0.01603
900.55029	0.01381
898.62192	0.01229
896.69355	0.01157
894.76517	0.01146
892.83680	0.01183
890.90843	0.01254
888.98005	0.01330
887.05168	0.01385
885.12331	0.01414
883.19494	0.01421
881.26656	0.01422
879.33819	0.01425
877.40982	0.01423
875.48144	0.01417
873.55307	0.01412
871.62470	0.01414
869.69632	0.01433
867.76795	0.01466
865.83958	0.01491
863.91120	0.01499
861.98283	0.01498
860.05446	0.01468
858.12608	0.01408
856.19771	0.01355
854.26934	0.01318
852.34096	0.01290
850.41259	0.01269
848.48422	0.01250
846.55584	0.01221
844.62747	0.01175
842.69910	0.01115
840.77072	0.01051
838.84235	0.00978
836.91398	0.00912
834.98560	0.00871
833.05723	0.00842
831.12886	0.00800
829.20049	0.00733
827.27211	0.00679
825.34374	0.00675
823.41537	0.00685
821.48699	0.00655
819.55862	0.00592
817.63025	0.00547
815.70187	0.00529
813.77350	0.00515
811.84513	0.00491
809.91675	0.00463
807.98838	0.00467
806.06001	0.00494
804.13163	0.00485
802.20326	0.00427
800.27489	0.00350
798.34651	0.00299
796.41814	0.00305
794.48977	0.00307
792.56139	0.00266
790.63302	0.00242
788.70465	0.00244
786.77627	0.00234
784.84790	0.00233
782.91953	0.00260
780.99115	0.00302
779.06278	0.00335
777.13441	0.00344
775.20603	0.00317
773.27766	0.00292
771.34929	0.00290
769.42092	0.00292
767.49254	0.00300
765.56417	0.00320
763.63580	0.00336
761.70742	0.00337
759.77905	0.00321
757.85068	0.00312
755.92230	0.00339
753.99393	0.00366
752.06556	0.00349
750.13718	0.00331
748.20881	0.00339
746.28044	0.00353
744.35206	0.00349
742.42369	0.00325
740.49532	0.00305
738.56694	0.00305
736.63857	0.00307
734.71020	0.00294
732.78182	0.00268
730.85345	0.00283
728.92508	0.00355
726.99670	0.00401
725.06833	0.00380
723.13996	0.00331
721.21158	0.00295
719.28321	0.00273
717.35484	0.00281
715.42647	0.00313
713.49809	0.00315
711.56972	0.00282
709.64135	0.00249
707.71297	0.00251
705.78460	0.00290
703.85623	0.00341
701.92785	0.00368
699.99948	0.00364
698.07111	0.00354
696.14273	0.00399
694.21436	0.00472
692.28599	0.00507
690.35761	0.00469
688.42924	0.00417
686.50087	0.00415
684.57249	0.00434
682.64412	0.00467
680.71575	0.00500
678.78737	0.00505
676.85900	0.00513
674.93063	0.00495
673.00225	0.00455
671.07388	0.00547
669.14551	0.00813
667.21713	0.00914
665.28876	0.00829
663.36039	0.00794
661.43201	0.00773
659.50364	0.00708
657.57527	0.00660
655.64690	0.00705
653.71852	0.00763
651.79015	0.00696
649.86178	0.00576
647.93340	0.00516
646.00503	0.00457
644.07666	0.00365
642.14828	0.00379
640.21991	0.00530
638.29154	0.00695
636.36316	0.00771
634.43479	0.00760
632.50642	0.00694
630.57804	0.00628
628.64967	0.00672
626.72130	0.00792
624.79292	0.00861
622.86455	0.00902
620.93618	0.00993
619.00780	0.01102
617.07943	0.01132
615.15106	0.01186
613.22268	0.01363
611.29431	0.01456
609.36594	0.01318
607.43756	0.01182
605.50919	0.01251
603.58082	0.01427
601.65244	0.01508
599.72407	0.01464
