3997.51769	0.63527
3995.58931	0.63479
3993.66094	0.63435
3991.73257	0.63416
3989.80419	0.63459
3987.87582	0.63561
3985.94745	0.63631
3984.01907	0.63627
3982.09070	0.63615
3980.16233	0.63621
3978.23396	0.63595
3976.30558	0.63522
3974.37721	0.63473
3972.44884	0.63507
3970.52046	0.63589
3968.59209	0.63691
3966.66372	0.63803
3964.73534	0.63830
3962.80697	0.63748
3960.87860	0.63718
3958.95022	0.63810
3957.02185	0.63926
3955.09348	0.64016
3953.16510	0.63986
3951.23673	0.63753
3949.30836	0.63525
3947.37998	0.63612
3945.45161	0.63779
3943.52324	0.63707
3941.59486	0.63780
3939.66649	0.64184
3937.73812	0.64489
3935.80974	0.64420
3933.88137	0.63980
3931.95300	0.63544
3930.02462	0.63622
3928.09625	0.63954
3926.16788	0.63958
3924.23950	0.63825
3922.31113	0.63949
3920.38276	0.64006
3918.45439	0.63824
3916.52601	0.63921
3914.59764	0.64531
3912.66927	0.65164
3910.74089	0.65436
3908.81252	0.65258
3906.88415	0.64462
3904.95577	0.63217
3903.02740	0.62375
3901.09903	0.62404
3899.17065	0.63108
3897.24228	0.64218
3895.31391	0.64940
3893.38553	0.64713
3891.45716	0.64283
3889.52879	0.64553
3887.60041	0.64700
3885.67204	0.64250
3883.74367	0.63982
3881.81529	0.63909
3879.88692	0.64146
3877.95855	0.64961
3876.03017	0.65183
3874.10180	0.64516
3872.17343	0.63791
3870.24505	0.63430
3868.31668	0.63775
3866.38831	0.64207
3864.45994	0.64120
3862.53156	0.64403
3860.60319	0.65243
3858.67482	0.65557
3856.74644	0.64886
3854.81807	0.63359
3852.88970	0.62293
3850.96132	0.63564
3849.03295	0.65384
3847.10458	0.66251
3845.17620	0.65991
3843.24783	0.65040
3841.31946	0.63969
3839.39108	0.63158
3837.46271	0.63130
3835.53434	0.63886
3833.60596	0.64647
3831.67759	0.65228
3829.74922	0.65668
3827.82084	0.65738
3825.89247	0.65550
3823.96410	0.65053
3822.03572	0.63889
3820.10735	0.63249
3818.17898	0.63844
3816.25060	0.64529
3814.32223	0.65518
3812.39386	0.66626
3810.46548	0.66899
3808.53711	0.66171
3806.60874	0.65283
3804.68037	0.64850
3802.75199	0.64172
3800.82362	0.63743
3798.89525	0.64357
3796.96687	0.65107
3795.03850	0.65940
3793.11013	0.66856
3791.18175	0.67313
3789.25338	0.67302
3787.32501	0.66986
3785.39663	0.66544
3783.46826	0.66332
3781.53989	0.66091
3779.61151	0.65702
3777.68314	0.65954
3775.75477	0.66666
3773.82639	0.66835
3771.89802	0.66162
3769.96965	0.65253
3768.04127	0.64922
3766.11290	0.65049
3764.18453	0.65348
3762.25615	0.65399
3760.32778	0.64745
3758.39941	0.64087
3756.47103	0.64035
3754.54266	0.63682
3752.61429	0.62330
3750.68591	0.60931
3748.75754	0.61019
3746.82917	0.61457
3744.90080	0.61407
3742.97242	0.61873
3741.04405	0.62660
3739.11568	0.62562
3737.18730	0.61281
3735.25893	0.59897
3733.33056	0.60205
3731.40218	0.61854
3729.47381	0.63096
3727.54544	0.63170
3725.61706	0.62574
3723.68869	0.62186
3721.76032	0.62246
3719.83194	0.62608
3717.90357	0.62994
3715.97520	0.62905
3714.04682	0.61893
3712.11845	0.60255
3710.19008	0.59656
3708.26170	0.60646
3706.33333	0.61645
3704.40496	0.61645
3702.47658	0.60911
3700.54821	0.60516
3698.61984	0.60641
3696.69146	0.60496
3694.76309	0.59780
3692.83472	0.58416
3690.90635	0.56535
3688.97797	0.55318
3687.04960	0.55627
3685.12123	0.56201
3683.19285	0.55998
3681.26448	0.54908
3679.33611	0.53203
3677.40773	0.51046
3675.47936	0.48929
3673.55099	0.48096
3671.62261	0.47613
3669.69424	0.46571
3667.76587	0.46084
3665.83749	0.46000
3663.90912	0.45311
3661.98075	0.44050
3660.05237	0.42556
3658.12400	0.40812
3656.19563	0.38876
3654.26725	0.37209
3652.33888	0.35452
3650.41051	0.32933
3648.48213	0.30641
3646.55376	0.29898
3644.62539	0.29691
3642.69701	0.29024
3640.76864	0.27881
3638.84027	0.26581
3636.91189	0.25245
3634.98352	0.23845
3633.05515	0.22434
3631.12678	0.21001
3629.19840	0.19367
3627.27003	0.18106
3625.34166	0.17518
3623.41328	0.16868
3621.48491	0.15859
3619.55654	0.14625
3617.62816	0.13561
3615.69979	0.12774
3613.77142	0.12003
3611.84304	0.11233
3609.91467	0.10516
3607.98630	0.09831
3606.05792	0.09263
3604.12955	0.08795
3602.20118	0.08266
3600.27280	0.07682
3598.34443	0.07145
3596.41606	0.06655
3594.48768	0.06199
3592.55931	0.05776
3590.63094	0.05362
3588.70256	0.04894
3586.77419	0.04452
3584.84582	0.04167
3582.91744	0.03944
3580.98907	0.03689
3579.06070	0.03410
3577.13233	0.03150
3575.20395	0.02904
3573.27558	0.02672
3571.34721	0.02458
3569.41883	0.02234
3567.49046	0.01999
3565.56209	0.01813
3563.63371	0.01703
3561.70534	0.01600
3559.77697	0.01488
3557.84859	0.01391
3555.92022	0.01299
3553.99185	0.01177
3552.06347	0.01033
3550.13510	0.00921
3548.20673	0.00841
3546.27835	0.00771
3544.34998	0.00691
3542.42161	0.00605
3540.49323	0.00546
3538.56486	0.00502
3536.63649	0.00449
3534.70811	0.00400
3532.77974	0.00378
3530.85137	0.00356
3528.92299	0.00306
3526.99462	0.00241
3525.06625	0.00186
3523.13787	0.00158
3521.20950	0.00139
3519.28113	0.00113
3517.35276	0.00083
3515.42438	0.00063
3513.49601	0.00048
3511.56764	0.00030
3509.63926	0.00022
3507.71089	0.00042
3505.78252	0.00049
3503.85414	0.00051
3501.92577	0.00052
3499.99740	0.00035
3498.06902	0.00038
3496.14065	0.00048
3494.21228	0.00033
3492.28390	0.00029
3490.35553	0.00039
3488.42716	0.00044
3486.49878	0.00049
3484.57041	0.00080
3482.64204	0.00092
3480.71366	0.00090
3478.78529	0.00083
3476.85692	0.00078
3474.92854	0.00082
3473.00017	0.00078
3471.07180	0.00067
3469.14342	0.00074
3467.21505	0.00097
3465.28668	0.00096
3463.35831	0.00073
3461.42993	0.00062
3459.50156	0.00064
3457.57319	0.00063
3455.64481	0.00048
3453.71644	0.00045
3451.78807	0.00080
3449.85969	0.00067
3447.93132	0.00053
3446.00295	0.00066
3444.07457	0.00078
3442.14620	0.00084
3440.21783	0.00088
3438.28945	0.00080
3436.36108	0.00073
3434.43271	0.00062
3432.50433	0.00054
3430.57596	0.00047
3428.64759	0.00051
3426.71921	0.00066
3424.79084	0.00057
3422.86247	0.00042
3420.93409	0.00044
3419.00572	0.00043
3417.07735	0.00029
3415.14897	0.00035
3413.22060	0.00048
3411.29223	0.00049
3409.36385	0.00060
3407.43548	0.00076
3405.50711	0.00067
3403.57874	0.00046
3401.65036	0.00049
3399.72199	0.00073
3397.79362	0.00073
3395.86524	0.00050
3393.93687	0.00038
3392.00850	0.00044
3390.08012	0.00059
3388.15175	0.00059
3386.22338	0.00053
3384.29500	0.00053
3382.36663	0.00057
3380.43826	0.00054
3378.50988	0.00057
3376.58151	0.00074
3374.65314	0.00082
3372.72476	0.00075
3370.79639	0.00072
3368.86802	0.00072
3366.93964	0.00081
3365.01127	0.00081
3363.08290	0.00072
3361.15452	0.00059
3359.22615	0.00041
3357.29778	0.00042
3355.36940	0.00063
3353.44103	0.00074
3351.51266	0.00067
3349.58428	0.00057
3347.65591	0.00056
3345.72754	0.00070
3343.79917	0.00084
3341.87079	0.00076
3339.94242	0.00066
3338.01405	0.00067
3336.08567	0.00067
3334.15730	0.00066
3332.22893	0.00056
3330.30055	0.00060
3328.37218	0.00073
3326.44381	0.00079
3324.51543	0.00082
3322.58706	0.00086
3320.65869	0.00089
3318.73031	0.00076
3316.80194	0.00065
3314.87357	0.00083
3312.94519	0.00104
3311.01682	0.00097
3309.08845	0.00075
3307.16007	0.00058
3305.23170	0.00064
3303.30333	0.00079
3301.37495	0.00071
3299.44658	0.00058
3297.51821	0.00065
3295.58983	0.00074
3293.66146	0.00081
3291.73309	0.00060
3289.80472	0.00046
3287.87634	0.00054
3285.94797	0.00066
3284.01960	0.00070
3282.09122	0.00076
3280.16285	0.00080
3278.23448	0.00060
3276.30610	0.00039
3274.37773	0.00023
3272.44936	0.00042
3270.52098	0.00060
3268.59261	0.00071
3266.66424	0.00081
3264.73586	0.00091
3262.80749	0.00101
3260.87912	0.00092
3258.95074	0.00065
3257.02237	0.00039
3255.09400	0.00036
3253.16562	0.00042
3251.23725	0.00052
3249.30888	0.00063
3247.38050	0.00061
3245.45213	0.00056
3243.52376	0.00059
3241.59538	0.00078
3239.66701	0.00079
3237.73864	0.00068
3235.81026	0.00059
3233.88189	0.00062
3231.95352	0.00077
3230.02515	0.00090
3228.09677	0.00086
3226.16840	0.00072
3224.24003	0.00061
3222.31165	0.00051
3220.38328	0.00048
3218.45491	0.00050
3216.52653	0.00059
3214.59816	0.00059
3212.66979	0.00054
3210.74141	0.00034
3208.81304	0.00036
3206.88467	0.00038
3204.95629	0.00056
3203.02792	0.00059
3201.09955	0.00058
3199.17117	0.00066
3197.24280	0.00063
3195.31443	0.00064
3193.38605	0.00068
3191.45768	0.00060
3189.52931	0.00056
3187.60093	0.00070
3185.67256	0.00078
3183.74419	0.00059
3181.81581	0.00037
3179.88744	0.00031
3177.95907	0.00045
3176.03070	0.00052
3174.10232	0.00041
3172.17395	0.00032
3170.24558	0.00031
3168.31720	0.00032
3166.38883	0.00040
3164.46046	0.00050
3162.53208	0.00048
3160.60371	0.00046
3158.67534	0.00064
3156.74696	0.00079
3154.81859	0.00087
3152.89022	0.00088
3150.96184	0.00092
3149.03347	0.00094
3147.10510	0.00088
3145.17672	0.00071
3143.24835	0.00051
3141.31998	0.00046
3139.39160	0.00050
3137.46323	0.00049
3135.53486	0.00056
3133.60648	0.00074
3131.67811	0.00096
3129.74974	0.00098
3127.82136	0.00073
3125.89299	0.00058
3123.96462	0.00057
3122.03624	0.00051
3120.10787	0.00056
3118.17950	0.00072
3116.25113	0.00089
3114.32275	0.00105
3112.39438	0.00110
3110.46601	0.00095
3108.53763	0.00077
3106.60926	0.00069
3104.68089	0.00062
3102.75251	0.00047
3100.82414	0.00021
3098.89577	0.00030
3096.96739	0.00062
3095.03902	0.00085
3093.11065	0.00085
3091.18227	0.00073
3089.25390	0.00066
3087.32553	0.00072
3085.39715	0.00082
3083.46878	0.00088
3081.54041	0.00082
3079.61203	0.00068
3077.68366	0.00061
3075.75529	0.00063
3073.82691	0.00064
3071.89854	0.00064
3069.97017	0.00068
3068.04179	0.00082
3066.11342	0.00068
3064.18505	0.00054
3062.25668	0.00059
3060.32830	0.00074
3058.39993	0.00069
3056.47156	0.00047
3054.54318	0.00029
3052.61481	0.00026
3050.68644	0.00046
3048.75806	0.00059
3046.82969	0.00054
3044.90132	0.00047
3042.97294	0.00054
3041.04457	0.00069
3039.11620	0.00067
3037.18782	0.00052
3035.25945	0.00057
3033.33108	0.00065
3031.40270	0.00068
3029.47433	0.00068
3027.54596	0.00063
3025.61758	0.00057
3023.68921	0.00059
3021.76084	0.00061
3019.83246	0.00055
3017.90409	0.00055
3015.97572	0.00067
3014.04734	0.00078
3012.11897	0.00075
3010.19060	0.00060
3008.26222	0.00061
3006.33385	0.00055
3004.40548	0.00052
3002.47711	0.00056
3000.54873	0.00071
2998.62036	0.00086
2996.69199	0.00095
2994.76361	0.00096
2992.83524	0.00082
2990.90687	0.00063
2988.97849	0.00061
2987.05012	0.00070
2985.12175	0.00070
2983.19337	0.00066
2981.26500	0.00066
2979.33663	0.00065
2977.40825	0.00072
2975.47988	0.00087
2973.55151	0.00093
2971.62313	0.00112
2969.69476	0.00105
2967.76639	0.00093
2965.83801	0.00089
2963.90964	0.00088
2961.98127	0.00081
2960.05289	0.00088
2958.12452	0.00103
2956.19615	0.00088
2954.26777	0.00070
2952.33940	0.00075
2950.41103	0.00087
2948.48266	0.00098
2946.55428	0.00096
2944.62591	0.00077
2942.69754	0.00078
2940.76916	0.00099
2938.84079	0.00105
2936.91242	0.00094
2934.98404	0.00091
2933.05567	0.00090
2931.12730	0.00071
2929.19892	0.00067
2927.27055	0.00082
2925.34218	0.00085
2923.41380	0.00116
2921.48543	0.00138
2919.55706	0.00122
2917.62868	0.00095
2915.70031	0.00080
2913.77194	0.00074
2911.84356	0.00083
2909.91519	0.00088
2907.98682	0.00071
2906.05844	0.00052
2904.13007	0.00050
2902.20170	0.00070
2900.27332	0.00094
2898.34495	0.00085
2896.41658	0.00051
2894.48820	0.00038
2892.55983	0.00052
2890.63146	0.00058
2888.70309	0.00070
2886.77471	0.00069
2884.84634	0.00065
2882.91797	0.00082
2880.98959	0.00085
2879.06122	0.00073
2877.13285	0.00054
2875.20447	0.00037
2873.27610	0.00033
2871.34773	0.00045
2869.41935	0.00053
2867.49098	0.00057
2865.56261	0.00065
2863.63423	0.00064
2861.70586	0.00055
2859.77749	0.00054
2857.84911	0.00054
2855.92074	0.00041
2853.99237	0.00031
2852.06399	0.00029
2850.13562	0.00025
2848.20725	0.00024
2846.27887	0.00033
2844.35050	0.00038
2842.42213	0.00028
2840.49375	0.00022
2838.56538	0.00021
2836.63701	0.00027
2834.70863	0.00038
2832.78026	0.00043
2830.85189	0.00040
2828.92352	0.00037
2826.99514	0.00027
2825.06677	0.00021
2823.13840	0.00025
2821.21002	0.00038
2819.28165	0.00045
2817.35328	0.00040
2815.42490	0.00027
2813.49653	0.00018
2811.56816	0.00021
2809.63978	0.00015
2807.71141	0.00013
2805.78304	0.00019
2803.85466	0.00030
2801.92629	0.00044
2799.99792	0.00037
2798.06954	0.00027
2796.14117	0.00025
2794.21280	0.00021
2792.28442	0.00021
2790.35605	0.00035
2788.42768	0.00056
2786.49930	0.00060
2784.57093	0.00051
2782.64256	0.00051
2780.71418	0.00059
2778.78581	0.00058
2776.85744	0.00048
2774.92907	0.00050
2773.00069	0.00067
2771.07232	0.00075
2769.14395	0.00065
2767.21557	0.00051
2765.28720	0.00042
2763.35883	0.00045
2761.43045	0.00062
2759.50208	0.00076
2757.57371	0.00077
2755.64533	0.00078
2753.71696	0.00080
2751.78859	0.00086
2749.86021	0.00102
2747.93184	0.00119
2746.00347	0.00125
2744.07509	0.00125
2742.14672	0.00131
2740.21835	0.00146
2738.28997	0.00151
2736.36160	0.00148
2734.43323	0.00153
2732.50485	0.00166
2730.57648	0.00186
2728.64811	0.00203
2726.71973	0.00220
2724.79136	0.00234
2722.86299	0.00246
2720.93461	0.00262
2719.00624	0.00276
2717.07787	0.00273
2715.14950	0.00268
2713.22112	0.00273
2711.29275	0.00280
2709.36438	0.00287
2707.43600	0.00297
2705.50763	0.00303
2703.57926	0.00308
2701.65088	0.00323
2699.72251	0.00333
2697.79414	0.00327
2695.86576	0.00323
2693.93739	0.00330
2692.00902	0.00331
2690.08064	0.00320
2688.15227	0.00325
2686.22390	0.00350
2684.29552	0.00366
2682.36715	0.00366
2680.43878	0.00373
2678.51040	0.00391
2676.58203	0.00405
2674.65366	0.00415
2672.72528	0.00436
2670.79691	0.00458
2668.86854	0.00463
2666.94016	0.00463
2665.01179	0.00473
2663.08342	0.00489
2661.15505	0.00499
2659.22667	0.00507
2657.29830	0.00526
2655.36993	0.00557
2653.44155	0.00586
2651.51318	0.00601
2649.58481	0.00602
2647.65643	0.00607
2645.72806	0.00631
2643.79969	0.00665
2641.87131	0.00691
2639.94294	0.00708
2638.01457	0.00731
2636.08619	0.00757
2634.15782	0.00777
2632.22945	0.00798
2630.30107	0.00819
2628.37270	0.00835
2626.44433	0.00848
2624.51595	0.00863
2622.58758	0.00887
2620.65921	0.00920
2618.73083	0.00957
2616.80246	0.00991
2614.87409	0.01022
2612.94571	0.01050
2611.01734	0.01073
2609.08897	0.01093
2607.16059	0.01119
2605.23222	0.01160
2603.30385	0.01211
2601.37548	0.01259
2599.44710	0.01298
2597.51873	0.01339
2595.59036	0.01381
2593.66198	0.01420
2591.73361	0.01461
2589.80524	0.01500
2587.87686	0.01535
2585.94849	0.01577
2584.02012	0.01624
2582.09174	0.01663
2580.16337	0.01704
2578.23500	0.01755
2576.30662	0.01807
2574.37825	0.01859
2572.44988	0.01913
2570.52150	0.01967
2568.59313	0.02018
2566.66476	0.02070
2564.73638	0.02121
2562.80801	0.02168
2560.87964	0.02216
2558.95126	0.02259
2557.02289	0.02302
2555.09452	0.02358
2553.16614	0.02413
2551.23777	0.02452
2549.30940	0.02491
2547.38103	0.02538
2545.45265	0.02585
2543.52428	0.02633
2541.59591	0.02687
2539.66753	0.02745
2537.73916	0.02791
2535.81079	0.02823
2533.88241	0.02859
2531.95404	0.02911
2530.02567	0.02972
2528.09729	0.03039
2526.16892	0.03104
2524.24055	0.03158
2522.31217	0.03202
2520.38380	0.03247
2518.45543	0.03302
2516.52705	0.03367
2514.59868	0.03434
2512.67031	0.03500
2510.74193	0.03567
2508.81356	0.03631
2506.88519	0.03692
2504.95681	0.03752
2503.02844	0.03804
2501.10007	0.03849
2499.17169	0.03897
2497.24332	0.03957
2495.31495	0.04023
2493.38657	0.04083
2491.45820	0.04142
2489.52983	0.04208
2487.60146	0.04275
2485.67308	0.04338
2483.74471	0.04404
2481.81634	0.04472
2479.88796	0.04546
2477.95959	0.04619
2476.03122	0.04686
2474.10284	0.04749
2472.17447	0.04810
2470.24610	0.04873
2468.31772	0.04957
2466.38935	0.05068
2464.46098	0.05174
2462.53260	0.05263
2460.60423	0.05357
2458.67586	0.05465
2456.74748	0.05564
2454.81911	0.05648
2452.89074	0.05740
2450.96236	0.05847
2449.03399	0.05953
2447.10562	0.06048
2445.17724	0.06138
2443.24887	0.06231
2441.32050	0.06330
2439.39212	0.06433
2437.46375	0.06540
2435.53538	0.06654
2433.60700	0.06766
2431.67863	0.06867
2429.75026	0.06961
2427.82189	0.07059
2425.89351	0.07166
2423.96514	0.07275
2422.03677	0.07377
2420.10839	0.07475
2418.18002	0.07575
2416.25165	0.07685
2414.32327	0.07807
2412.39490	0.07925
2410.46653	0.08035
2408.53815	0.08149
2406.60978	0.08277
2404.68141	0.08410
2402.75303	0.08535
2400.82466	0.08652
2398.89629	0.08770
2396.96791	0.08901
2395.03954	0.09041
2393.11117	0.09182
2391.18279	0.09325
2389.25442	0.09466
2387.32605	0.09599
2385.39767	0.09718
2383.46930	0.09823
2381.54093	0.09910
2379.61255	0.09984
2377.68418	0.10062
2375.75581	0.10146
2373.82744	0.10210
2371.89906	0.10252
2369.97069	0.10302
2368.04232	0.10385
2366.11394	0.10466
2364.18557	0.10515
2362.25720	0.10597
2360.32882	0.10764
2358.40045	0.10964
2356.47208	0.11147
2354.54370	0.11340
2352.61533	0.11556
2350.68696	0.11740
2348.75858	0.11858
2346.83021	0.11928
2344.90184	0.11976
2342.97346	0.12037
2341.04509	0.12134
2339.11672	0.12237
2337.18834	0.12335
2335.25997	0.12450
2333.33160	0.12571
2331.40322	0.12670
2329.47485	0.12759
2327.54648	0.12883
2325.61810	0.13042
2323.68973	0.13200
2321.76136	0.13352
2319.83298	0.13515
2317.90461	0.13696
2315.97624	0.13871
2314.04787	0.14031
2312.11949	0.14201
2310.19112	0.14392
2308.26275	0.14590
2306.33437	0.14773
2304.40600	0.14932
2302.47763	0.15086
2300.54925	0.15255
2298.62088	0.15434
2296.69251	0.15612
2294.76413	0.15783
2292.83576	0.15941
2290.90739	0.16092
2288.97901	0.16252
2287.05064	0.16423
2285.12227	0.16587
2283.19389	0.16734
2281.26552	0.16871
2279.33715	0.17004
2277.40877	0.17126
2275.48040	0.17242
2273.55203	0.17365
2271.62365	0.17499
2269.69528	0.17632
2267.76691	0.17758
2265.83853	0.17876
2263.91016	0.17996
2261.98179	0.18122
2260.05342	0.18248
2258.12504	0.18366
2256.19667	0.18486
2254.26830	0.18621
2252.33992	0.18769
2250.41155	0.18909
2248.48318	0.19033
2246.55480	0.19153
2244.62643	0.19271
2242.69806	0.19377
2240.76968	0.19469
2238.84131	0.19562
2236.91294	0.19667
2234.98456	0.19775
2233.05619	0.19875
2231.12782	0.19962
2229.19944	0.20040
2227.27107	0.20118
2225.34270	0.20203
2223.41432	0.20299
2221.48595	0.20396
2219.55758	0.20481
2217.62920	0.20564
2215.70083	0.20656
2213.77246	0.20751
2211.84408	0.20842
2209.91571	0.20937
2207.98734	0.21036
2206.05896	0.21131
2204.13059	0.21228
2202.20222	0.21334
2200.27385	0.21438
2198.34547	0.21529
2196.41710	0.21613
2194.48873	0.21699
2192.56035	0.21788
2190.63198	0.21869
2188.70361	0.21940
2186.77523	0.22011
2184.84686	0.22082
2182.91849	0.22145
2180.99011	0.22210
2179.06174	0.22281
2177.13337	0.22343
2175.20499	0.22387
2173.27662	0.22426
2171.34825	0.22470
2169.41987	0.22512
2167.49150	0.22539
2165.56313	0.22564
2163.63475	0.22600
2161.70638	0.22636
2159.77801	0.22667
2157.84963	0.22702
2155.92126	0.22741
2153.99289	0.22785
2152.06451	0.22831
2150.13614	0.22874
2148.20777	0.22914
2146.27940	0.22958
2144.35102	0.23009
2142.42265	0.23070
2140.49428	0.23130
2138.56590	0.23181
2136.63753	0.23234
2134.70916	0.23302
2132.78078	0.23383
2130.85241	0.23467
2128.92404	0.23549
2126.99566	0.23632
2125.06729	0.23720
2123.13892	0.23815
2121.21054	0.23918
2119.28217	0.24028
2117.35380	0.24134
2115.42542	0.24233
2113.49705	0.24325
2111.56868	0.24417
2109.64030	0.24519
2107.71193	0.24626
2105.78356	0.24728
2103.85518	0.24827
2101.92681	0.24927
2099.99844	0.25020
2098.07006	0.25108
2096.14169	0.25196
2094.21332	0.25278
2092.28494	0.25343
2090.35657	0.25397
2088.42820	0.25468
2086.49983	0.25556
2084.57145	0.25636
2082.64308	0.25699
2080.71471	0.25754
2078.78633	0.25799
2076.85796	0.25825
2074.92959	0.25840
2073.00121	0.25867
2071.07284	0.25898
2069.14447	0.25910
2067.21609	0.25898
2065.28772	0.25896
2063.35935	0.25939
2061.43097	0.26002
2059.50260	0.26056
2057.57423	0.26111
2055.64585	0.26176
2053.71748	0.26252
2051.78911	0.26334
2049.86073	0.26413
2047.93236	0.26487
2046.00399	0.26554
2044.07561	0.26610
2042.14724	0.26668
2040.21887	0.26754
2038.29049	0.26858
2036.36212	0.26947
2034.43375	0.27018
2032.50538	0.27075
2030.57700	0.27117
2028.64863	0.27148
2026.72026	0.27174
2024.79188	0.27190
2022.86351	0.27194
2020.93514	0.27179
2019.00676	0.27135
2017.07839	0.27114
2015.15002	0.27168
2013.22164	0.27242
2011.29327	0.27275
2009.36490	0.27284
2007.43652	0.27301
2005.50815	0.27334
2003.57978	0.27372
2001.65140	0.27408
1999.72303	0.27444
1997.79466	0.27480
1995.86628	0.27482
1993.93791	0.27410
1992.00954	0.27347
1990.08116	0.27404
1988.15279	0.27524
1986.22442	0.27627
1984.29604	0.27704
1982.36767	0.27753
1980.43930	0.27783
1978.51092	0.27809
1976.58255	0.27840
1974.65418	0.27873
1972.72581	0.27896
1970.79743	0.27881
1968.86906	0.27810
1966.94069	0.27775
1965.01231	0.27860
1963.08394	0.27973
1961.15557	0.28029
1959.22719	0.28057
1957.29882	0.28069
1955.37045	0.28074
1953.44207	0.28102
1951.51370	0.28135
1949.58533	0.28134
1947.65695	0.28083
1945.72858	0.27957
1943.80021	0.27791
1941.87183	0.27773
1939.94346	0.27950
1938.01509	0.28091
1936.08671	0.28102
1934.15834	0.28072
1932.22997	0.28054
1930.30159	0.28048
1928.37322	0.28033
1926.44485	0.27958
1924.51647	0.27793
1922.58810	0.27668
1920.65973	0.27640
1918.73135	0.27612
1916.80298	0.27700
1914.87461	0.27924
1912.94624	0.28029
1911.01786	0.27959
1909.08949	0.27896
1907.16112	0.27950
1905.23274	0.28044
1903.30437	0.28094
1901.37600	0.28108
1899.44762	0.28094
1897.51925	0.28016
1895.59088	0.27905
1893.66250	0.27842
1891.73413	0.27739
1889.80576	0.27589
1887.87738	0.27602
1885.94901	0.27709
1884.02064	0.27727
1882.09226	0.27674
1880.16389	0.27605
1878.23552	0.27535
1876.30714	0.27466
1874.37877	0.27356
1872.45040	0.27085
1870.52202	0.26573
1868.59365	0.26138
1866.66528	0.26203
1864.73690	0.26494
1862.80853	0.26604
1860.88016	0.26533
1858.95179	0.26423
1857.02341	0.26332
1855.09504	0.26245
1853.16667	0.26144
1851.23829	0.26009
1849.30992	0.25792
1847.38155	0.25453
1845.45317	0.25047
1843.52480	0.24923
1841.59643	0.25195
1839.66805	0.25399
1837.73968	0.25365
1835.81131	0.25288
1833.88293	0.25166
1831.95456	0.24791
1830.02619	0.24332
1828.09781	0.24180
1826.16944	0.24174
1824.24107	0.24149
1822.31269	0.24186
1820.38432	0.24131
1818.45595	0.23893
1816.52757	0.23588
1814.59920	0.23228
1812.67083	0.22737
1810.74245	0.22210
1808.81408	0.21817
1806.88571	0.21463
1804.95733	0.20957
1803.02896	0.20246
1801.10059	0.19448
1799.17222	0.18771
1797.24384	0.18188
1795.31547	0.17480
1793.38710	0.16547
1791.45872	0.15680
1789.53035	0.15176
1787.60198	0.14724
1785.67360	0.14073
1783.74523	0.13335
1781.81686	0.12634
1779.88848	0.11996
1777.96011	0.11440
1776.03174	0.10863
1774.10336	0.10150
1772.17499	0.09397
1770.24662	0.08860
1768.31824	0.08476
1766.38987	0.08042
1764.46150	0.07505
1762.53312	0.06798
1760.60475	0.06022
1758.67638	0.05316
1756.74800	0.04571
1754.81963	0.03817
1752.89126	0.03104
1750.96288	0.02354
1749.03451	0.01654
1747.10614	0.01136
1745.17777	0.00752
1743.24939	0.00454
1741.32102	0.00243
1739.39265	0.00105
1737.46427	0.00034
1735.53590	0.00030
1733.60753	0.00054
1731.67915	0.00066
1729.75078	0.00081
1727.82241	0.00080
1725.89403	0.00074
1723.96566	0.00071
1722.03729	0.00066
1720.10891	0.00062
1718.18054	0.00075
1716.25217	0.00083
1714.32379	0.00070
1712.39542	0.00077
1710.46705	0.00094
1708.53867	0.00095
1706.61030	0.00084
1704.68193	0.00084
1702.75355	0.00091
1700.82518	0.00083
1698.89681	0.00068
1696.96843	0.00058
1695.04006	0.00045
1693.11169	0.00034
1691.18331	0.00038
1689.25494	0.00047
1687.32657	0.00049
1685.39820	0.00051
1683.46982	0.00060
1681.54145	0.00071
1679.61308	0.00073
1677.68470	0.00064
1675.75633	0.00063
1673.82796	0.00066
1671.89958	0.00062
1669.97121	0.00058
1668.04284	0.00055
1666.11446	0.00050
1664.18609	0.00048
1662.25772	0.00063
1660.32934	0.00077
1658.40097	0.00069
1656.47260	0.00056
1654.54422	0.00064
1652.61585	0.00082
1650.68748	0.00079
1648.75910	0.00074
1646.83073	0.00071
1644.90236	0.00066
1642.97398	0.00069
1641.04561	0.00067
1639.11724	0.00066
1637.18886	0.00071
1635.26049	0.00075
1633.33212	0.00067
1631.40375	0.00054
1629.47537	0.00044
1627.54700	0.00040
1625.61863	0.00043
1623.69025	0.00046
1621.76188	0.00050
1619.83351	0.00054
1617.90513	0.00057
1615.97676	0.00058
1614.04839	0.00053
1612.12001	0.00046
1610.19164	0.00043
1608.26327	0.00035
1606.33489	0.00027
1604.40652	0.00025
1602.47815	0.00032
1600.54977	0.00036
1598.62140	0.00036
1596.69303	0.00046
1594.76465	0.00047
1592.83628	0.00036
1590.90791	0.00038
1588.97953	0.00033
1587.05116	0.00029
1585.12279	0.00039
1583.19441	0.00057
1581.26604	0.00064
1579.33767	0.00067
1577.40929	0.00073
1575.48092	0.00068
1573.55255	0.00057
1571.62418	0.00058
1569.69580	0.00068
1567.76743	0.00065
1565.83906	0.00049
1563.91068	0.00044
1561.98231	0.00046
1560.05394	0.00069
1558.12556	0.00088
1556.19719	0.00070
1554.26882	0.00041
1552.34044	0.00028
1550.41207	0.00039
1548.48370	0.00052
1546.55532	0.00064
1544.62695	0.00077
1542.69858	0.00090
1540.77020	0.00086
1538.84183	0.00061
1536.91346	0.00051
1534.98508	0.00057
1533.05671	0.00059
1531.12834	0.00060
1529.19996	0.00060
1527.27159	0.00058
1525.34322	0.00055
1523.41484	0.00061
1521.48647	0.00064
1519.55810	0.00055
1517.62972	0.00044
1515.70135	0.00033
1513.77298	0.00031
1511.84461	0.00037
1509.91623	0.00059
1507.98786	0.00088
1506.05949	0.00090
1504.13111	0.00062
1502.20274	0.00044
1500.27437	0.00042
1498.34599	0.00047
1496.41762	0.00051
1494.48925	0.00043
1492.56087	0.00035
1490.63250	0.00051
1488.70413	0.00069
1486.77575	0.00076
1484.84738	0.00076
1482.91901	0.00072
1480.99063	0.00072
1479.06226	0.00084
1477.13389	0.00092
1475.20551	0.00083
1473.27714	0.00075
1471.34877	0.00074
1469.42039	0.00070
1467.49202	0.00066
1465.56365	0.00058
1463.63527	0.00048
1461.70690	0.00048
1459.77853	0.00048
1457.85016	0.00051
1455.92178	0.00054
1453.99341	0.00058
1452.06504	0.00056
1450.13666	0.00051
1448.20829	0.00044
1446.27992	0.00052
1444.35154	0.00055
1442.42317	0.00052
1440.49480	0.00063
1438.56642	0.00080
1436.63805	0.00080
1434.70968	0.00069
1432.78130	0.00064
1430.85293	0.00060
1428.92456	0.00056
1426.99618	0.00051
1425.06781	0.00042
1423.13944	0.00036
1421.21106	0.00043
1419.28269	0.00062
1417.35432	0.00081
1415.42594	0.00076
1413.49757	0.00061
1411.56920	0.00055
1409.64082	0.00063
1407.71245	0.00068
1405.78408	0.00062
1403.85570	0.00049
1401.92733	0.00041
1399.99896	0.00045
1398.07059	0.00050
1396.14221	0.00054
1394.21384	0.00056
1392.28547	0.00055
1390.35709	0.00061
1388.42872	0.00059
1386.50035	0.00051
1384.57197	0.00061
1382.64360	0.00071
1380.71523	0.00074
1378.78685	0.00073
1376.85848	0.00071
1374.93011	0.00071
1373.00173	0.00074
1371.07336	0.00074
1369.14499	0.00072
1367.21661	0.00078
1365.28824	0.00084
1363.35987	0.00073
1361.43149	0.00049
1359.50312	0.00032
1357.57475	0.00042
1355.64637	0.00047
1353.71800	0.00042
1351.78963	0.00034
1349.86125	0.00033
1347.93288	0.00049
1346.00451	0.00043
1344.07614	0.00026
1342.14776	0.00048
1340.21939	0.00062
1338.29102	0.00061
1336.36264	0.00055
1334.43427	0.00051
1332.50590	0.00049
1330.57752	0.00048
1328.64915	0.00052
1326.72078	0.00057
1324.79240	0.00051
1322.86403	0.00038
1320.93566	0.00034
1319.00728	0.00046
1317.07891	0.00062
1315.15054	0.00064
1313.22216	0.00059
1311.29379	0.00055
1309.36542	0.00045
1307.43704	0.00045
1305.50867	0.00053
1303.58030	0.00060
1301.65192	0.00062
1299.72355	0.00073
1297.79518	0.00092
1295.86680	0.00102
1293.93843	0.00101
1292.01006	0.00094
1290.08168	0.00096
1288.15331	0.00113
1286.22494	0.00125
1284.29657	0.00120
1282.36819	0.00112
1280.43982	0.00109
1278.51145	0.00096
1276.58307	0.00071
1274.65470	0.00059
1272.72633	0.00075
1270.79795	0.00105
1268.86958	0.00118
1266.94121	0.00117
1265.01283	0.00122
1263.08446	0.00130
1261.15609	0.00129
1259.22771	0.00113
1257.29934	0.00100
1255.37097	0.00097
1253.44259	0.00098
1251.51422	0.00109
1249.58585	0.00130
1247.65747	0.00148
1245.72910	0.00157
1243.80073	0.00167
1241.87235	0.00185
1239.94398	0.00189
1238.01561	0.00175
1236.08723	0.00161
1234.15886	0.00157
1232.23049	0.00165
1230.30212	0.00186
1228.37374	0.00211
1226.44537	0.00236
1224.51700	0.00254
1222.58862	0.00267
1220.66025	0.00286
1218.73188	0.00297
1216.80350	0.00290
1214.87513	0.00278
1212.94676	0.00267
1211.01838	0.00250
1209.09001	0.00222
1207.16164	0.00190
1205.23326	0.00195
1203.30489	0.00268
1201.37652	0.00384
1199.44814	0.00467
1197.51977	0.00503
1195.59140	0.00532
1193.66302	0.00587
1191.73465	0.00670
1189.80628	0.00738
1187.87790	0.00752
1185.94953	0.00725
1184.02116	0.00687
1182.09278	0.00651
1180.16441	0.00611
1178.23604	0.00553
1176.30766	0.00488
1174.37929	0.00426
1172.45092	0.00354
1170.52255	0.00260
1168.59417	0.00179
1166.66580	0.00149
1164.73743	0.00153
1162.80905	0.00165
1160.88068	0.00146
1158.95231	0.00110
1157.02393	0.00102
1155.09556	0.00093
1153.16719	0.00099
1151.23881	0.00167
1149.31044	0.00236
1147.38207	0.00279
1145.45369	0.00325
1143.52532	0.00358
1141.59695	0.00365
1139.66857	0.00354
1137.74020	0.00314
1135.81183	0.00245
1133.88345	0.00179
1131.95508	0.00141
1130.02671	0.00127
1128.09833	0.00126
1126.16996	0.00132
1124.24159	0.00127
1122.31321	0.00110
1120.38484	0.00095
1118.45647	0.00081
1116.52809	0.00080
1114.59972	0.00085
1112.67135	0.00085
1110.74298	0.00093
1108.81460	0.00119
1106.88623	0.00143
1104.95786	0.00155
1103.02948	0.00164
1101.10111	0.00177
1099.17274	0.00193
1097.24436	0.00186
1095.31599	0.00174
1093.38762	0.00179
1091.45924	0.00189
1089.53087	0.00200
1087.60250	0.00208
1085.67412	0.00193
1083.74575	0.00165
1081.81738	0.00153
1079.88900	0.00154
1077.96063	0.00154
1076.03226	0.00147
1074.10388	0.00130
1072.17551	0.00126
1070.24714	0.00157
1068.31876	0.00180
1066.39039	0.00168
1064.46202	0.00157
1062.53364	0.00131
1060.60527	0.00104
1058.67690	0.00108
1056.74853	0.00122
1054.82015	0.00137
1052.89178	0.00152
1050.96341	0.00154
1049.03503	0.00169
1047.10666	0.00183
1045.17829	0.00158
1043.24991	0.00109
1041.32154	0.00099
1039.39317	0.00131
1037.46479	0.00157
1035.53642	0.00169
1033.60805	0.00177
1031.67967	0.00184
1029.75130	0.00167
1027.82293	0.00134
1025.89455	0.00125
1023.96618	0.00139
1022.03781	0.00147
1020.10943	0.00143
1018.18106	0.00138
1016.25269	0.00133
1014.32431	0.00139
1012.39594	0.00163
1010.46757	0.00194
1008.53919	0.00223
1006.61082	0.00261
1004.68245	0.00318
1002.75407	0.00382
1000.82570	0.00445
998.89733	0.00524
996.96896	0.00618
995.04058	0.00708
993.11221	0.00790
991.18384	0.00873
989.25546	0.00970
987.32709	0.01079
985.39872	0.01169
983.47034	0.01208
981.54197	0.01206
979.61360	0.01185
977.68522	0.01159
975.75685	0.01167
973.82848	0.01269
971.90010	0.01473
969.97173	0.01727
968.04336	0.01983
966.11498	0.02208
964.18661	0.02342
962.25824	0.02307
960.32986	0.02071
958.40149	0.01703
956.47312	0.01371
954.54474	0.01224
952.61637	0.01291
950.68800	0.01515
948.75962	0.01813
946.83125	0.02107
944.90288	0.02362
942.97451	0.02582
941.04613	0.02772
939.11776	0.02941
937.18939	0.03085
935.26101	0.03183
933.33264	0.03233
931.40427	0.03256
929.47589	0.03246
927.54752	0.03191
925.61915	0.03100
923.69077	0.02995
921.76240	0.02907
919.83403	0.02854
917.90565	0.02837
915.97728	0.02850
914.04891	0.02861
912.12053	0.02825
910.19216	0.02725
908.26379	0.02584
906.33541	0.02407
904.40704	0.02179
902.47867	0.01920
900.55029	0.01693
898.62192	0.01548
896.69355	0.01479
894.76517	0.01430
892.83680	0.01371
890.90843	0.01304
888.98005	0.01236
887.05168	0.01167
885.12331	0.01109
883.19494	0.01066
881.26656	0.01040
879.33819	0.01046
877.40982	0.01065
875.48144	0.01060
873.55307	0.01048
871.62470	0.01067
869.69632	0.01110
867.76795	0.01144
865.83958	0.01152
863.91120	0.01155
861.98283	0.01136
860.05446	0.01079
858.12608	0.01028
856.19771	0.00991
854.26934	0.00928
852.34096	0.00849
850.41259	0.00800
848.48422	0.00801
846.55584	0.00812
844.62747	0.00789
842.69910	0.00760
840.77072	0.00763
838.84235	0.00760
836.91398	0.00707
834.98560	0.00649
833.05723	0.00637
831.12886	0.00659
829.20049	0.00685
827.27211	0.00674
825.34374	0.00611
823.41537	0.00559
821.48699	0.00569
819.55862	0.00596
817.63025	0.00588
815.70187	0.00546
813.77350	0.00500
811.84513	0.00502
809.91675	0.00546
807.98838	0.00524
806.06001	0.00396
804.13163	0.00269
802.20326	0.00229
800.27489	0.00218
798.34651	0.00204
796.41814	0.00194
794.48977	0.00186
792.56139	0.00204
790.63302	0.00240
788.70465	0.00243
786.77627	0.00236
784.84790	0.00255
782.91953	0.00280
780.99115	0.00303
779.06278	0.00313
777.13441	0.00286
775.20603	0.00249
773.27766	0.00218
771.34929	0.00186
769.42092	0.00175
767.49254	0.00198
765.56417	0.00230
763.63580	0.00254
761.70742	0.00257
759.77905	0.00246
757.85068	0.00230
755.92230	0.00231
753.99393	0.00234
752.06556	0.00229
750.13718	0.00237
748.20881	0.00250
746.28044	0.00258
744.35206	0.00248
742.42369	0.00230
740.49532	0.00228
738.56694	0.00234
736.63857	0.00221
734.71020	0.00182
732.78182	0.00148
730.85345	0.00147
728.92508	0.00182
726.99670	0.00226
725.06833	0.00253
723.13996	0.00260
721.21158	0.00255
719.28321	0.00243
717.35484	0.00237
715.42647	0.00226
713.49809	0.00200
711.56972	0.00233
709.64135	0.00308
707.71297	0.00347
705.78460	0.00334
703.85623	0.00317
701.92785	0.00351
699.99948	0.00396
698.07111	0.00381
696.14273	0.00328
694.21436	0.00282
692.28599	0.00272
690.35761	0.00310
688.42924	0.00353
686.50087	0.00392
684.57249	0.00427
682.64412	0.00445
680.71575	0.00452
678.78737	0.00454
676.85900	0.00461
674.93063	0.00462
673.00225	0.00484
671.07388	0.00520
669.14551	0.00590
667.21713	0.00587
665.28876	0.00516
663.36039	0.00471
661.43201	0.00466
659.50364	0.00500
657.57527	0.00529
655.64690	0.00545
653.71852	0.00588
651.79015	0.00612
649.86178	0.00616
647.93340	0.00627
646.00503	0.00676
644.07666	0.00723
642.14828	0.00710
640.21991	0.00642
638.29154	0.00611
636.36316	0.00652
634.43479	0.00689
632.50642	0.00746
630.57804	0.00834
628.64967	0.00826
626.72130	0.00770
624.79292	0.00757
622.86455	0.00682
620.93618	0.00598
619.00780	0.00603
617.07943	0.00721
615.15106	0.00877
613.22268	0.00956
611.29431	0.01078
609.36594	0.01256
607.43756	0.01276
605.50919	0.01182
603.58082	0.01267
601.65244	0.01419
599.72407	0.01374
