3997.51769	0.35310
3995.58931	0.35324
3993.66094	0.35338
3991.73257	0.35347
3989.80419	0.35337
3987.87582	0.35318
3985.94745	0.35318
3984.01907	0.35311
3982.09070	0.35298
3980.16233	0.35294
3978.23396	0.35289
3976.30558	0.35315
3974.37721	0.35360
3972.44884	0.35350
3970.52046	0.35314
3968.59209	0.35339
3966.66372	0.35429
3964.73534	0.35520
3962.80697	0.35566
3960.87860	0.35589
3958.95022	0.35644
3957.02185	0.35736
3955.09348	0.35842
3953.16510	0.35915
3951.23673	0.35911
3949.30836	0.35860
3947.37998	0.35813
3945.45161	0.35809
3943.52324	0.35879
3941.59486	0.35977
3939.66649	0.36035
3937.73812	0.36049
3935.80974	0.36079
3933.88137	0.36186
3931.95300	0.36298
3930.02462	0.36304
3928.09625	0.36251
3926.16788	0.36239
3924.23950	0.36262
3922.31113	0.36288
3920.38276	0.36353
3918.45439	0.36421
3916.52601	0.36390
3914.59764	0.36300
3912.66927	0.36277
3910.74089	0.36328
3908.81252	0.36411
3906.88415	0.36580
3904.95577	0.36848
3903.02740	0.37067
3901.09903	0.37134
3899.17065	0.37047
3897.24228	0.36895
3895.31391	0.36863
3893.38553	0.36989
3891.45716	0.37084
3889.52879	0.37042
3887.60041	0.37079
3885.67204	0.37226
3883.74367	0.37341
3881.81529	0.37463
3879.88692	0.37514
3877.95855	0.37433
3876.03017	0.37427
3874.10180	0.37530
3872.17343	0.37660
3870.24505	0.37790
3868.31668	0.37845
3866.38831	0.37900
3864.45994	0.38016
3862.53156	0.38019
3860.60319	0.37916
3858.67482	0.37887
3856.74644	0.38010
3854.81807	0.38354
3852.88970	0.38632
3850.96132	0.38341
3849.03295	0.37968
3847.10458	0.37799
3845.17620	0.37820
3843.24783	0.37940
3841.31946	0.38100
3839.39108	0.38266
3837.46271	0.38315
3835.53434	0.38235
3833.60596	0.38158
3831.67759	0.38096
3829.74922	0.38046
3827.82084	0.38052
3825.89247	0.38096
3823.96410	0.38219
3822.03572	0.38473
3820.10735	0.38585
3818.17898	0.38464
3816.25060	0.38334
3814.32223	0.38180
3812.39386	0.38058
3810.46548	0.38039
3808.53711	0.38140
3806.60874	0.38311
3804.68037	0.38467
3802.75199	0.38643
3800.82362	0.38662
3798.89525	0.38430
3796.96687	0.38247
3795.03850	0.38156
3793.11013	0.38067
3791.18175	0.37989
3789.25338	0.37970
3787.32501	0.38009
3785.39663	0.38018
3783.46826	0.37964
3781.53989	0.37945
3779.61151	0.37992
3777.68314	0.37993
3775.75477	0.37930
3773.82639	0.37906
3771.89802	0.37989
3769.96965	0.38093
3768.04127	0.38053
3766.11290	0.37931
3764.18453	0.37856
3762.25615	0.37883
3760.32778	0.37972
3758.39941	0.37986
3756.47103	0.37943
3754.54266	0.37992
3752.61429	0.38209
3750.68591	0.38393
3748.75754	0.38285
3746.82917	0.38216
3744.90080	0.38199
3742.97242	0.37965
3741.04405	0.37773
3739.11568	0.37824
3737.18730	0.38079
3735.25893	0.38320
3733.33056	0.38151
3731.40218	0.37690
3729.47381	0.37375
3727.54544	0.37320
3725.61706	0.37374
3723.68869	0.37319
3721.76032	0.37149
3719.83194	0.36965
3717.90357	0.36783
3715.97520	0.36673
3714.04682	0.36712
3712.11845	0.36818
3710.19008	0.36704
3708.26170	0.36358
3706.33333	0.36044
3704.40496	0.35878
3702.47658	0.35800
3700.54821	0.35614
3698.61984	0.35336
3696.69146	0.35088
3694.76309	0.34880
3692.83472	0.34727
3690.90635	0.34581
3688.97797	0.34208
3687.04960	0.33594
3685.12123	0.33049
3683.19285	0.32615
3681.26448	0.32222
3679.33611	0.31883
3677.40773	0.31618
3675.47936	0.31142
3673.55099	0.30369
3671.62261	0.29726
3669.69424	0.29007
3667.76587	0.28116
3665.83749	0.27318
3663.90912	0.26555
3661.98075	0.25791
3660.05237	0.25090
3658.12400	0.24420
3656.19563	0.23614
3654.26725	0.22801
3652.33888	0.22177
3650.41051	0.21533
3648.48213	0.20591
3646.55376	0.19497
3644.62539	0.18526
3642.69701	0.17686
3640.76864	0.16930
3638.84027	0.16214
3636.91189	0.15494
3634.98352	0.14760
3633.05515	0.14073
3631.12678	0.13514
3629.19840	0.12900
3627.27003	0.12084
3625.34166	0.11354
3623.41328	0.10734
3621.48491	0.10166
3619.55654	0.09598
3617.62816	0.09012
3615.69979	0.08495
3613.77142	0.08036
3611.84304	0.07593
3609.91467	0.07148
3607.98630	0.06661
3606.05792	0.06175
3604.12955	0.05792
3602.20118	0.05474
3600.27280	0.05150
3598.34443	0.04810
3596.41606	0.04467
3594.48768	0.04117
3592.55931	0.03807
3590.63094	0.03587
3588.70256	0.03387
3586.77419	0.03147
3584.84582	0.02933
3582.91744	0.02776
3580.98907	0.02622
3579.06070	0.02417
3577.13233	0.02200
3575.20395	0.02013
3573.27558	0.01850
3571.34721	0.01725
3569.41883	0.01663
3567.49046	0.01576
3565.56209	0.01373
3563.63371	0.01180
3561.70534	0.01070
3559.77697	0.01003
3557.84859	0.00959
3555.92022	0.00940
3553.99185	0.00912
3552.06347	0.00814
3550.13510	0.00685
3548.20673	0.00602
3546.27835	0.00565
3544.34998	0.00492
3542.42161	0.00368
3540.49323	0.00272
3538.56486	0.00238
3536.63649	0.00243
3534.70811	0.00234
3532.77974	0.00246
3530.85137	0.00285
3528.92299	0.00299
3526.99462	0.00291
3525.06625	0.00253
3523.13787	0.00192
3521.20950	0.00141
3519.28113	0.00136
3517.35276	0.00187
3515.42438	0.00236
3513.49601	0.00196
3511.56764	0.00073
3509.63926	0.00062
3507.71089	0.00076
3505.78252	0.00070
3503.85414	0.00099
3501.92577	0.00102
3499.99740	0.00101
3498.06902	0.00140
3496.14065	0.00146
3494.21228	0.00110
3492.28390	0.00058
3490.35553	0.00084
3488.42716	0.00127
3486.49878	0.00135
3484.57041	0.00128
3482.64204	0.00109
3480.71366	0.00105
3478.78529	0.00089
3476.85692	0.00074
3474.92854	0.00049
3473.00017	0.00053
3471.07180	0.00035
3469.14342	0.00033
3467.21505	0.00062
3465.28668	0.00059
3463.35831	0.00100
3461.42993	0.00120
3459.50156	0.00096
3457.57319	0.00054
3455.64481	0.00041
3453.71644	0.00080
3451.78807	0.00090
3449.85969	0.00074
3447.93132	0.00098
3446.00295	0.00093
3444.07457	0.00098
3442.14620	0.00128
3440.21783	0.00134
3438.28945	0.00093
3436.36108	0.00060
3434.43271	0.00047
3432.50433	0.00080
3430.57596	0.00084
3428.64759	0.00085
3426.71921	0.00109
3424.79084	0.00103
3422.86247	0.00093
3420.93409	0.00071
3419.00572	0.00076
3417.07735	0.00095
3415.14897	0.00069
3413.22060	0.00058
3411.29223	0.00078
3409.36385	0.00071
3407.43548	0.00129
3405.50711	0.00176
3403.57874	0.00148
3401.65036	0.00101
3399.72199	0.00080
3397.79362	0.00084
3395.86524	0.00076
3393.93687	0.00046
3392.00850	0.00061
3390.08012	0.00070
3388.15175	0.00095
3386.22338	0.00103
3384.29500	0.00078
3382.36663	0.00045
3380.43826	0.00102
3378.50988	0.00119
3376.58151	0.00073
3374.65314	0.00038
3372.72476	0.00053
3370.79639	0.00037
3368.86802	0.00080
3366.93964	0.00117
3365.01127	0.00111
3363.08290	0.00071
3361.15452	0.00012
3359.22615	0.00080
3357.29778	0.00093
3355.36940	0.00046
3353.44103	0.00055
3351.51266	0.00080
3349.58428	0.00089
3347.65591	0.00128
3345.72754	0.00119
3343.79917	0.00083
3341.87079	0.00059
3339.94242	0.00107
3338.01405	0.00111
3336.08567	0.00082
3334.15730	0.00110
3332.22893	0.00121
3330.30055	0.00135
3328.37218	0.00112
3326.44381	0.00089
3324.51543	0.00076
3322.58706	0.00109
3320.65869	0.00102
3318.73031	0.00052
3316.80194	0.00060
3314.87357	0.00055
3312.94519	0.00035
3311.01682	0.00061
3309.08845	0.00059
3307.16007	0.00076
3305.23170	0.00105
3303.30333	0.00103
3301.37495	0.00078
3299.44658	0.00070
3297.51821	0.00107
3295.58983	0.00142
3293.66146	0.00143
3291.73309	0.00121
3289.80472	0.00098
3287.87634	0.00059
3285.94797	0.00048
3284.01960	0.00078
3282.09122	0.00117
3280.16285	0.00089
3278.23448	0.00068
3276.30610	0.00073
3274.37773	0.00050
3272.44936	0.00063
3270.52098	0.00070
3268.59261	0.00074
3266.66424	0.00036
3264.73586	0.00042
3262.80749	0.00064
3260.87912	0.00066
3258.95074	0.00052
3257.02237	0.00053
3255.09400	0.00073
3253.16562	0.00088
3251.23725	0.00111
3249.30888	0.00138
3247.38050	0.00129
3245.45213	0.00090
3243.52376	0.00095
3241.59538	0.00091
3239.66701	0.00055
3237.73864	0.00032
3235.81026	0.00033
3233.88189	0.00058
3231.95352	0.00056
3230.02515	0.00058
3228.09677	0.00065
3226.16840	0.00083
3224.24003	0.00095
3222.31165	0.00092
3220.38328	0.00097
3218.45491	0.00125
3216.52653	0.00107
3214.59816	0.00065
3212.66979	0.00051
3210.74141	0.00050
3208.81304	0.00046
3206.88467	0.00070
3204.95629	0.00055
3203.02792	0.00030
3201.09955	0.00037
3199.17117	0.00056
3197.24280	0.00093
3195.31443	0.00089
3193.38605	0.00060
3191.45768	0.00044
3189.52931	0.00048
3187.60093	0.00012
3185.67256	0.00061
3183.74419	0.00062
3181.81581	0.00084
3179.88744	0.00111
3177.95907	0.00081
3176.03070	0.00043
3174.10232	0.00028
3172.17395	0.00047
3170.24558	0.00046
3168.31720	0.00061
3166.38883	0.00065
3164.46046	0.00043
3162.53208	0.00033
3160.60371	0.00078
3158.67534	0.00099
3156.74696	0.00090
3154.81859	0.00072
3152.89022	0.00038
3150.96184	0.00018
3149.03347	0.00055
3147.10510	0.00084
3145.17672	0.00081
3143.24835	0.00069
3141.31998	0.00049
3139.39160	0.00039
3137.46323	0.00059
3135.53486	0.00088
3133.60648	0.00100
3131.67811	0.00086
3129.74974	0.00093
3127.82136	0.00086
3125.89299	0.00062
3123.96462	0.00052
3122.03624	0.00109
3120.10787	0.00115
3118.17950	0.00071
3116.25113	0.00031
3114.32275	0.00043
3112.39438	0.00032
3110.46601	0.00048
3108.53763	0.00059
3106.60926	0.00070
3104.68089	0.00068
3102.75251	0.00070
3100.82414	0.00071
3098.89577	0.00067
3096.96739	0.00083
3095.03902	0.00095
3093.11065	0.00111
3091.18227	0.00108
3089.25390	0.00090
3087.32553	0.00091
3085.39715	0.00098
3083.46878	0.00097
3081.54041	0.00087
3079.61203	0.00071
3077.68366	0.00052
3075.75529	0.00043
3073.82691	0.00064
3071.89854	0.00067
3069.97017	0.00053
3068.04179	0.00064
3066.11342	0.00094
3064.18505	0.00073
3062.25668	0.00063
3060.32830	0.00101
3058.39993	0.00127
3056.47156	0.00113
3054.54318	0.00063
3052.61481	0.00015
3050.68644	0.00027
3048.75806	0.00048
3046.82969	0.00059
3044.90132	0.00089
3042.97294	0.00134
3041.04457	0.00110
3039.11620	0.00077
3037.18782	0.00072
3035.25945	0.00086
3033.33108	0.00093
3031.40270	0.00094
3029.47433	0.00079
3027.54596	0.00066
3025.61758	0.00061
3023.68921	0.00032
3021.76084	0.00033
3019.83246	0.00079
3017.90409	0.00071
3015.97572	0.00093
3014.04734	0.00123
3012.11897	0.00177
3010.19060	0.00192
3008.26222	0.00137
3006.33385	0.00091
3004.40548	0.00080
3002.47711	0.00110
3000.54873	0.00107
2998.62036	0.00106
2996.69199	0.00133
2994.76361	0.00131
2992.83524	0.00070
2990.90687	0.00085
2988.97849	0.00054
2987.05012	0.00097
2985.12175	0.00155
2983.19337	0.00147
2981.26500	0.00092
2979.33663	0.00101
2977.40825	0.00160
2975.47988	0.00153
2973.55151	0.00103
2971.62313	0.00117
2969.69476	0.00100
2967.76639	0.00100
2965.83801	0.00070
2963.90964	0.00052
2961.98127	0.00073
2960.05289	0.00079
2958.12452	0.00099
2956.19615	0.00068
2954.26777	0.00072
2952.33940	0.00140
2950.41103	0.00182
2948.48266	0.00169
2946.55428	0.00104
2944.62591	0.00082
2942.69754	0.00109
2940.76916	0.00143
2938.84079	0.00139
2936.91242	0.00125
2934.98404	0.00074
2933.05567	0.00055
2931.12730	0.00122
2929.19892	0.00129
2927.27055	0.00067
2925.34218	0.00074
2923.41380	0.00120
2921.48543	0.00094
2919.55706	0.00111
2917.62868	0.00098
2915.70031	0.00086
2913.77194	0.00086
2911.84356	0.00054
2909.91519	0.00042
2907.98682	0.00074
2906.05844	0.00103
2904.13007	0.00067
2902.20170	0.00053
2900.27332	0.00045
2898.34495	0.00043
2896.41658	0.00049
2894.48820	0.00106
2892.55983	0.00138
2890.63146	0.00109
2888.70309	0.00077
2886.77471	0.00080
2884.84634	0.00076
2882.91797	0.00063
2880.98959	0.00066
2879.06122	0.00071
2877.13285	0.00060
2875.20447	0.00066
2873.27610	0.00097
2871.34773	0.00091
2869.41935	0.00066
2867.49098	0.00037
2865.56261	0.00037
2863.63423	0.00050
2861.70586	0.00105
2859.77749	0.00112
2857.84911	0.00092
2855.92074	0.00105
2853.99237	0.00070
2852.06399	0.00065
2850.13562	0.00084
2848.20725	0.00078
2846.27887	0.00084
2844.35050	0.00092
2842.42213	0.00111
2840.49375	0.00158
2838.56538	0.00159
2836.63701	0.00104
2834.70863	0.00083
2832.78026	0.00055
2830.85189	0.00045
2828.92352	0.00043
2826.99514	0.00058
2825.06677	0.00098
2823.13840	0.00063
2821.21002	0.00020
2819.28165	0.00042
2817.35328	0.00043
2815.42490	0.00043
2813.49653	0.00037
2811.56816	0.00054
2809.63978	0.00077
2807.71141	0.00063
2805.78304	0.00054
2803.85466	0.00079
2801.92629	0.00097
2799.99792	0.00090
2798.06954	0.00072
2796.14117	0.00081
2794.21280	0.00083
2792.28442	0.00058
2790.35605	0.00058
2788.42768	0.00073
2786.49930	0.00079
2784.57093	0.00116
2782.64256	0.00143
2780.71418	0.00126
2778.78581	0.00092
2776.85744	0.00076
2774.92907	0.00101
2773.00069	0.00120
2771.07232	0.00096
2769.14395	0.00064
2767.21557	0.00076
2765.28720	0.00116
2763.35883	0.00168
2761.43045	0.00193
2759.50208	0.00184
2757.57371	0.00192
2755.64533	0.00223
2753.71696	0.00224
2751.78859	0.00179
2749.86021	0.00139
2747.93184	0.00142
2746.00347	0.00163
2744.07509	0.00171
2742.14672	0.00142
2740.21835	0.00125
2738.28997	0.00157
2736.36160	0.00219
2734.43323	0.00245
2732.50485	0.00216
2730.57648	0.00195
2728.64811	0.00222
2726.71973	0.00260
2724.79136	0.00265
2722.86299	0.00251
2720.93461	0.00248
2719.00624	0.00254
2717.07787	0.00257
2715.14950	0.00287
2713.22112	0.00336
2711.29275	0.00360
2709.36438	0.00332
2707.43600	0.00301
2705.50763	0.00319
2703.57926	0.00349
2701.65088	0.00349
2699.72251	0.00336
2697.79414	0.00333
2695.86576	0.00350
2693.93739	0.00373
2692.00902	0.00390
2690.08064	0.00405
2688.15227	0.00404
2686.22390	0.00381
2684.29552	0.00363
2682.36715	0.00369
2680.43878	0.00373
2678.51040	0.00352
2676.58203	0.00333
2674.65366	0.00349
2672.72528	0.00404
2670.79691	0.00462
2668.86854	0.00485
2666.94016	0.00474
2665.01179	0.00463
2663.08342	0.00473
2661.15505	0.00493
2659.22667	0.00524
2657.29830	0.00569
2655.36993	0.00601
2653.44155	0.00596
2651.51318	0.00591
2649.58481	0.00619
2647.65643	0.00641
2645.72806	0.00640
2643.79969	0.00652
2641.87131	0.00681
2639.94294	0.00702
2638.01457	0.00714
2636.08619	0.00732
2634.15782	0.00757
2632.22945	0.00773
2630.30107	0.00785
2628.37270	0.00808
2626.44433	0.00843
2624.51595	0.00884
2622.58758	0.00910
2620.65921	0.00908
2618.73083	0.00910
2616.80246	0.00943
2614.87409	0.00988
2612.94571	0.01026
2611.01734	0.01066
2609.08897	0.01096
2607.16059	0.01114
2605.23222	0.01155
2603.30385	0.01228
2601.37548	0.01294
2599.44710	0.01301
2597.51873	0.01280
2595.59036	0.01303
2593.66198	0.01365
2591.73361	0.01414
2589.80524	0.01458
2587.87686	0.01514
2585.94849	0.01557
2584.02012	0.01580
2582.09174	0.01610
2580.16337	0.01656
2578.23500	0.01685
2576.30662	0.01694
2574.37825	0.01714
2572.44988	0.01760
2570.52150	0.01824
2568.59313	0.01876
2566.66476	0.01900
2564.73638	0.01921
2562.80801	0.01977
2560.87964	0.02063
2558.95126	0.02146
2557.02289	0.02208
2555.09452	0.02251
2553.16614	0.02276
2551.23777	0.02292
2549.30940	0.02311
2547.38103	0.02328
2545.45265	0.02350
2543.52428	0.02390
2541.59591	0.02452
2539.66753	0.02519
2537.73916	0.02556
2535.81079	0.02567
2533.88241	0.02596
2531.95404	0.02654
2530.02567	0.02711
2528.09729	0.02748
2526.16892	0.02775
2524.24055	0.02809
2522.31217	0.02858
2520.38380	0.02913
2518.45543	0.02963
2516.52705	0.03012
2514.59868	0.03073
2512.67031	0.03136
2510.74193	0.03187
2508.81356	0.03241
2506.88519	0.03292
2504.95681	0.03310
2503.02844	0.03330
2501.10007	0.03389
2499.17169	0.03467
2497.24332	0.03530
2495.31495	0.03565
2493.38657	0.03597
2491.45820	0.03652
2489.52983	0.03711
2487.60146	0.03756
2485.67308	0.03793
2483.74471	0.03825
2481.81634	0.03857
2479.88796	0.03899
2477.95959	0.03959
2476.03122	0.04036
2474.10284	0.04102
2472.17447	0.04143
2470.24610	0.04193
2468.31772	0.04275
2466.38935	0.04367
2464.46098	0.04439
2462.53260	0.04503
2460.60423	0.04575
2458.67586	0.04661
2456.74748	0.04747
2454.81911	0.04821
2452.89074	0.04895
2450.96236	0.04992
2449.03399	0.05100
2447.10562	0.05186
2445.17724	0.05246
2443.24887	0.05305
2441.32050	0.05382
2439.39212	0.05471
2437.46375	0.05552
2435.53538	0.05627
2433.60700	0.05701
2431.67863	0.05779
2429.75026	0.05859
2427.82189	0.05935
2425.89351	0.06036
2423.96514	0.06158
2422.03677	0.06260
2420.10839	0.06342
2418.18002	0.06427
2416.25165	0.06507
2414.32327	0.06573
2412.39490	0.06646
2410.46653	0.06750
2408.53815	0.06873
2406.60978	0.06982
2404.68141	0.07075
2402.75303	0.07175
2400.82466	0.07289
2398.89629	0.07385
2396.96791	0.07439
2395.03954	0.07489
2393.11117	0.07567
2391.18279	0.07662
2389.25442	0.07767
2387.32605	0.07881
2385.39767	0.08010
2383.46930	0.08162
2381.54093	0.08315
2379.61255	0.08452
2377.68418	0.08599
2375.75581	0.08775
2373.82744	0.08951
2371.89906	0.09092
2369.97069	0.09212
2368.04232	0.09355
2366.11394	0.09537
2364.18557	0.09702
2362.25720	0.09844
2360.32882	0.10021
2358.40045	0.10182
2356.47208	0.10301
2354.54370	0.10343
2352.61533	0.10265
2350.68696	0.10184
2348.75858	0.10194
2346.83021	0.10304
2344.90184	0.10487
2342.97346	0.10627
2341.04509	0.10651
2339.11672	0.10648
2337.18834	0.10704
2335.25997	0.10803
2333.33160	0.10937
2331.40322	0.11086
2329.47485	0.11162
2327.54648	0.11181
2325.61810	0.11182
2323.68973	0.11148
2321.76136	0.11165
2319.83298	0.11269
2317.90461	0.11339
2315.97624	0.11346
2314.04787	0.11391
2312.11949	0.11510
2310.19112	0.11625
2308.26275	0.11699
2306.33437	0.11783
2304.40600	0.11890
2302.47763	0.11975
2300.54925	0.12043
2298.62088	0.12127
2296.69251	0.12225
2294.76413	0.12332
2292.83576	0.12450
2290.90739	0.12565
2288.97901	0.12660
2287.05064	0.12734
2285.12227	0.12801
2283.19389	0.12877
2281.26552	0.12969
2279.33715	0.13073
2277.40877	0.13149
2275.48040	0.13196
2273.55203	0.13272
2271.62365	0.13388
2269.69528	0.13499
2267.76691	0.13590
2265.83853	0.13667
2263.91016	0.13743
2261.98179	0.13826
2260.05342	0.13916
2258.12504	0.14017
2256.19667	0.14132
2254.26830	0.14234
2252.33992	0.14326
2250.41155	0.14418
2248.48318	0.14496
2246.55480	0.14565
2244.62643	0.14636
2242.69806	0.14699
2240.76968	0.14756
2238.84131	0.14807
2236.91294	0.14864
2234.98456	0.14949
2233.05619	0.15037
2231.12782	0.15094
2229.19944	0.15138
2227.27107	0.15187
2225.34270	0.15237
2223.41432	0.15300
2221.48595	0.15370
2219.55758	0.15429
2217.62920	0.15489
2215.70083	0.15554
2213.77246	0.15616
2211.84408	0.15683
2209.91571	0.15758
2207.98734	0.15833
2206.05896	0.15920
2204.13059	0.16011
2202.20222	0.16081
2200.27385	0.16134
2198.34547	0.16198
2196.41710	0.16287
2194.48873	0.16386
2192.56035	0.16465
2190.63198	0.16521
2188.70361	0.16563
2186.77523	0.16609
2184.84686	0.16676
2182.91849	0.16742
2180.99011	0.16795
2179.06174	0.16850
2177.13337	0.16902
2175.20499	0.16939
2173.27662	0.16967
2171.34825	0.16985
2169.41987	0.16996
2167.49150	0.17021
2165.56313	0.17072
2163.63475	0.17126
2161.70638	0.17155
2159.77801	0.17166
2157.84963	0.17174
2155.92126	0.17184
2153.99289	0.17212
2152.06451	0.17257
2150.13614	0.17298
2148.20777	0.17334
2146.27940	0.17374
2144.35102	0.17421
2142.42265	0.17477
2140.49428	0.17536
2138.56590	0.17585
2136.63753	0.17626
2134.70916	0.17665
2132.78078	0.17711
2130.85241	0.17765
2128.92404	0.17826
2126.99566	0.17889
2125.06729	0.17951
2123.13892	0.18024
2121.21054	0.18113
2119.28217	0.18194
2117.35380	0.18252
2115.42542	0.18315
2113.49705	0.18403
2111.56868	0.18495
2109.64030	0.18584
2107.71193	0.18680
2105.78356	0.18767
2103.85518	0.18833
2101.92681	0.18895
2099.99844	0.18959
2098.07006	0.19008
2096.14169	0.19044
2094.21332	0.19073
2092.28494	0.19102
2090.35657	0.19142
2088.42820	0.19194
2086.49983	0.19243
2084.57145	0.19273
2082.64308	0.19294
2080.71471	0.19315
2078.78633	0.19321
2076.85796	0.19322
2074.92959	0.19335
2073.00121	0.19338
2071.07284	0.19323
2069.14447	0.19314
2067.21609	0.19312
2065.28772	0.19307
2063.35935	0.19292
2061.43097	0.19289
2059.50260	0.19329
2057.57423	0.19373
2055.64585	0.19370
2053.71748	0.19360
2051.78911	0.19388
2049.86073	0.19436
2047.93236	0.19470
2046.00399	0.19494
2044.07561	0.19535
2042.14724	0.19600
2040.21887	0.19653
2038.29049	0.19690
2036.36212	0.19735
2034.43375	0.19785
2032.50538	0.19820
2030.57700	0.19832
2028.64863	0.19836
2026.72026	0.19854
2024.79188	0.19876
2022.86351	0.19883
2020.93514	0.19892
2019.00676	0.19909
2017.07839	0.19910
2015.15002	0.19891
2013.22164	0.19881
2011.29327	0.19881
2009.36490	0.19885
2007.43652	0.19888
2005.50815	0.19883
2003.57978	0.19876
2001.65140	0.19894
1999.72303	0.19938
1997.79466	0.19961
1995.86628	0.19956
1993.93791	0.19975
1992.00954	0.20018
1990.08116	0.20043
1988.15279	0.20058
1986.22442	0.20071
1984.29604	0.20065
1982.36767	0.20072
1980.43930	0.20117
1978.51092	0.20171
1976.58255	0.20198
1974.65418	0.20210
1972.72581	0.20229
1970.79743	0.20263
1968.86906	0.20307
1966.94069	0.20342
1965.01231	0.20358
1963.08394	0.20365
1961.15557	0.20370
1959.22719	0.20373
1957.29882	0.20390
1955.37045	0.20428
1953.44207	0.20465
1951.51370	0.20504
1949.58533	0.20544
1947.65695	0.20575
1945.72858	0.20611
1943.80021	0.20661
1941.87183	0.20677
1939.94346	0.20631
1938.01509	0.20567
1936.08671	0.20528
1934.15834	0.20509
1932.22997	0.20486
1930.30159	0.20463
1928.37322	0.20464
1926.44485	0.20491
1924.51647	0.20525
1922.58810	0.20531
1920.65973	0.20522
1918.73135	0.20540
1916.80298	0.20570
1914.87461	0.20577
1912.94624	0.20590
1911.01786	0.20621
1909.08949	0.20624
1907.16112	0.20593
1905.23274	0.20576
1903.30437	0.20586
1901.37600	0.20596
1899.44762	0.20599
1897.51925	0.20610
1895.59088	0.20619
1893.66250	0.20603
1891.73413	0.20572
1889.80576	0.20542
1887.87738	0.20499
1885.94901	0.20432
1884.02064	0.20336
1882.09226	0.20240
1880.16389	0.20176
1878.23552	0.20127
1876.30714	0.20079
1874.37877	0.20028
1872.45040	0.19981
1870.52202	0.19938
1868.59365	0.19851
1866.66528	0.19700
1864.73690	0.19552
1862.80853	0.19448
1860.88016	0.19367
1858.95179	0.19279
1857.02341	0.19193
1855.09504	0.19123
1853.16667	0.19049
1851.23829	0.18981
1849.30992	0.18949
1847.38155	0.18950
1845.45317	0.18946
1843.52480	0.18867
1841.59643	0.18732
1839.66805	0.18633
1837.73968	0.18568
1835.81131	0.18506
1833.88293	0.18460
1831.95456	0.18456
1830.02619	0.18443
1828.09781	0.18348
1826.16944	0.18202
1824.24107	0.18045
1822.31269	0.17890
1820.38432	0.17743
1818.45595	0.17577
1816.52757	0.17360
1814.59920	0.17111
1812.67083	0.16866
1810.74245	0.16574
1808.81408	0.16207
1806.88571	0.15830
1804.95733	0.15486
1803.02896	0.15152
1801.10059	0.14762
1799.17222	0.14315
1797.24384	0.13877
1795.31547	0.13475
1793.38710	0.13029
1791.45872	0.12439
1789.53035	0.11857
1787.60198	0.11394
1785.67360	0.10951
1783.74523	0.10479
1781.81686	0.10015
1779.88848	0.09564
1777.96011	0.09140
1776.03174	0.08773
1774.10336	0.08427
1772.17499	0.08002
1770.24662	0.07505
1768.31824	0.07038
1766.38987	0.06597
1764.46150	0.06165
1762.53312	0.05653
1760.60475	0.05051
1758.67638	0.04476
1756.74800	0.03877
1754.81963	0.03262
1752.89126	0.02674
1750.96288	0.02060
1749.03451	0.01480
1747.10614	0.01025
1745.17777	0.00684
1743.24939	0.00444
1741.32102	0.00265
1739.39265	0.00158
1737.46427	0.00149
1735.53590	0.00155
1733.60753	0.00118
1731.67915	0.00063
1729.75078	0.00029
1727.82241	0.00015
1725.89403	0.00039
1723.96566	0.00037
1722.03729	0.00032
1720.10891	0.00079
1718.18054	0.00141
1716.25217	0.00114
1714.32379	0.00079
1712.39542	0.00119
1710.46705	0.00104
1708.53867	0.00059
1706.61030	0.00079
1704.68193	0.00106
1702.75355	0.00060
1700.82518	0.00066
1698.89681	0.00119
1696.96843	0.00097
1695.04006	0.00049
1693.11169	0.00029
1691.18331	0.00024
1689.25494	0.00040
1687.32657	0.00055
1685.39820	0.00060
1683.46982	0.00084
1681.54145	0.00093
1679.61308	0.00086
1677.68470	0.00056
1675.75633	0.00036
1673.82796	0.00046
1671.89958	0.00044
1669.97121	0.00109
1668.04284	0.00133
1666.11446	0.00115
1664.18609	0.00086
1662.25772	0.00074
1660.32934	0.00089
1658.40097	0.00108
1656.47260	0.00111
1654.54422	0.00048
1652.61585	0.00085
1650.68748	0.00093
1648.75910	0.00076
1646.83073	0.00088
1644.90236	0.00096
1642.97398	0.00063
1641.04561	0.00046
1639.11724	0.00073
1637.18886	0.00088
1635.26049	0.00072
1633.33212	0.00092
1631.40375	0.00054
1629.47537	0.00043
1627.54700	0.00070
1625.61863	0.00052
1623.69025	0.00043
1621.76188	0.00050
1619.83351	0.00033
1617.90513	0.00045
1615.97676	0.00041
1614.04839	0.00029
1612.12001	0.00056
1610.19164	0.00070
1608.26327	0.00047
1606.33489	0.00064
1604.40652	0.00075
1602.47815	0.00058
1600.54977	0.00014
1598.62140	0.00051
1596.69303	0.00115
1594.76465	0.00114
1592.83628	0.00071
1590.90791	0.00087
1588.97953	0.00077
1587.05116	0.00061
1585.12279	0.00058
1583.19441	0.00030
1581.26604	0.00030
1579.33767	0.00050
1577.40929	0.00072
1575.48092	0.00080
1573.55255	0.00049
1571.62418	0.00040
1569.69580	0.00079
1567.76743	0.00078
1565.83906	0.00062
1563.91068	0.00068
1561.98231	0.00066
1560.05394	0.00105
1558.12556	0.00107
1556.19719	0.00051
1554.26882	0.00077
1552.34044	0.00083
1550.41207	0.00061
1548.48370	0.00051
1546.55532	0.00067
1544.62695	0.00102
1542.69858	0.00096
1540.77020	0.00092
1538.84183	0.00056
1536.91346	0.00048
1534.98508	0.00057
1533.05671	0.00051
1531.12834	0.00030
1529.19996	0.00036
1527.27159	0.00062
1525.34322	0.00061
1523.41484	0.00034
1521.48647	0.00064
1519.55810	0.00080
1517.62972	0.00080
1515.70135	0.00071
1513.77298	0.00059
1511.84461	0.00062
1509.91623	0.00079
1507.98786	0.00107
1506.05949	0.00106
1504.13111	0.00062
1502.20274	0.00023
1500.27437	0.00045
1498.34599	0.00084
1496.41762	0.00076
1494.48925	0.00047
1492.56087	0.00066
1490.63250	0.00066
1488.70413	0.00074
1486.77575	0.00090
1484.84738	0.00083
1482.91901	0.00093
1480.99063	0.00114
1479.06226	0.00115
1477.13389	0.00117
1475.20551	0.00133
1473.27714	0.00150
1471.34877	0.00151
1469.42039	0.00146
1467.49202	0.00112
1465.56365	0.00089
1463.63527	0.00129
1461.70690	0.00123
1459.77853	0.00097
1457.85016	0.00140
1455.92178	0.00137
1453.99341	0.00090
1452.06504	0.00042
1450.13666	0.00068
1448.20829	0.00082
1446.27992	0.00057
1444.35154	0.00028
1442.42317	0.00038
1440.49480	0.00064
1438.56642	0.00078
1436.63805	0.00055
1434.70968	0.00027
1432.78130	0.00037
1430.85293	0.00044
1428.92456	0.00057
1426.99618	0.00047
1425.06781	0.00059
1423.13944	0.00061
1421.21106	0.00038
1419.28269	0.00067
1417.35432	0.00082
1415.42594	0.00058
1413.49757	0.00022
1411.56920	0.00054
1409.64082	0.00137
1407.71245	0.00178
1405.78408	0.00153
1403.85570	0.00115
1401.92733	0.00145
1399.99896	0.00152
1398.07059	0.00109
1396.14221	0.00076
1394.21384	0.00063
1392.28547	0.00025
1390.35709	0.00053
1388.42872	0.00071
1386.50035	0.00049
1384.57197	0.00018
1382.64360	0.00023
1380.71523	0.00026
1378.78685	0.00059
1376.85848	0.00070
1374.93011	0.00068
1373.00173	0.00080
1371.07336	0.00066
1369.14499	0.00075
1367.21661	0.00076
1365.28824	0.00062
1363.35987	0.00054
1361.43149	0.00059
1359.50312	0.00075
1357.57475	0.00085
1355.64637	0.00063
1353.71800	0.00053
1351.78963	0.00104
1349.86125	0.00118
1347.93288	0.00104
1346.00451	0.00098
1344.07614	0.00099
1342.14776	0.00100
1340.21939	0.00110
1338.29102	0.00104
1336.36264	0.00087
1334.43427	0.00075
1332.50590	0.00077
1330.57752	0.00079
1328.64915	0.00090
1326.72078	0.00101
1324.79240	0.00102
1322.86403	0.00097
1320.93566	0.00087
1319.00728	0.00095
1317.07891	0.00073
1315.15054	0.00068
1313.22216	0.00096
1311.29379	0.00081
1309.36542	0.00086
1307.43704	0.00081
1305.50867	0.00056
1303.58030	0.00048
1301.65192	0.00062
1299.72355	0.00063
1297.79518	0.00049
1295.86680	0.00079
1293.93843	0.00084
1292.01006	0.00041
1290.08168	0.00057
1288.15331	0.00118
1286.22494	0.00097
1284.29657	0.00098
1282.36819	0.00134
1280.43982	0.00129
1278.51145	0.00123
1276.58307	0.00122
1274.65470	0.00120
1272.72633	0.00110
1270.79795	0.00120
1268.86958	0.00129
1266.94121	0.00136
1265.01283	0.00162
1263.08446	0.00152
1261.15609	0.00078
1259.22771	0.00116
1257.29934	0.00116
1255.37097	0.00201
1253.44259	0.00224
1251.51422	0.00161
1249.58585	0.00121
1247.65747	0.00147
1245.72910	0.00175
1243.80073	0.00166
1241.87235	0.00167
1239.94398	0.00148
1238.01561	0.00145
1236.08723	0.00192
1234.15886	0.00229
1232.23049	0.00227
1230.30212	0.00249
1228.37374	0.00265
1226.44537	0.00216
1224.51700	0.00169
1222.58862	0.00242
1220.66025	0.00370
1218.73188	0.00409
1216.80350	0.00463
1214.87513	0.00530
1212.94676	0.00528
1211.01838	0.00465
1209.09001	0.00398
1207.16164	0.00352
1205.23326	0.00316
1203.30489	0.00296
1201.37652	0.00303
1199.44814	0.00373
1197.51977	0.00462
1195.59140	0.00548
1193.66302	0.00684
1191.73465	0.00789
1189.80628	0.00786
1187.87790	0.00776
1185.94953	0.00824
1184.02116	0.00836
1182.09278	0.00799
1180.16441	0.00785
1178.23604	0.00776
1176.30766	0.00729
1174.37929	0.00634
1172.45092	0.00515
1170.52255	0.00429
1168.59417	0.00363
1166.66580	0.00285
1164.73743	0.00209
1162.80905	0.00176
1160.88068	0.00155
1158.95231	0.00127
1157.02393	0.00113
1155.09556	0.00163
1153.16719	0.00214
1151.23881	0.00264
1149.31044	0.00359
1147.38207	0.00458
1145.45369	0.00515
1143.52532	0.00553
1141.59695	0.00516
1139.66857	0.00372
1137.74020	0.00221
1135.81183	0.00190
1133.88345	0.00264
1131.95508	0.00321
1130.02671	0.00294
1128.09833	0.00174
1126.16996	0.00079
1124.24159	0.00129
1122.31321	0.00196
1120.38484	0.00164
1118.45647	0.00104
1116.52809	0.00107
1114.59972	0.00109
1112.67135	0.00185
1110.74298	0.00243
1108.81460	0.00240
1106.88623	0.00216
1104.95786	0.00237
1103.02948	0.00234
1101.10111	0.00202
1099.17274	0.00233
1097.24436	0.00231
1095.31599	0.00149
1093.38762	0.00084
1091.45924	0.00112
1089.53087	0.00129
1087.60250	0.00137
1085.67412	0.00188
1083.74575	0.00292
1081.81738	0.00240
1079.88900	0.00129
1077.96063	0.00075
1076.03226	0.00112
1074.10388	0.00086
1072.17551	0.00112
1070.24714	0.00147
1068.31876	0.00118
1066.39039	0.00083
1064.46202	0.00045
1062.53364	0.00118
1060.60527	0.00166
1058.67690	0.00084
1056.74853	0.00103
1054.82015	0.00196
1052.89178	0.00212
1050.96341	0.00153
1049.03503	0.00138
1047.10666	0.00131
1045.17829	0.00112
1043.24991	0.00094
1041.32154	0.00109
1039.39317	0.00113
1037.46479	0.00067
1035.53642	0.00130
1033.60805	0.00202
1031.67967	0.00183
1029.75130	0.00152
1027.82293	0.00204
1025.89455	0.00168
1023.96618	0.00079
1022.03781	0.00074
1020.10943	0.00059
1018.18106	0.00100
1016.25269	0.00132
1014.32431	0.00111
1012.39594	0.00125
1010.46757	0.00179
1008.53919	0.00224
1006.61082	0.00298
1004.68245	0.00388
1002.75407	0.00450
1000.82570	0.00484
998.89733	0.00555
996.96896	0.00678
995.04058	0.00770
993.11221	0.00799
991.18384	0.00817
989.25546	0.00845
987.32709	0.00913
985.39872	0.01037
983.47034	0.01151
981.54197	0.01182
979.61360	0.01125
977.68522	0.01050
975.75685	0.01047
973.82848	0.01135
971.90010	0.01314
969.97173	0.01590
968.04336	0.01909
966.11498	0.02167
964.18661	0.02293
962.25824	0.02238
960.32986	0.01970
958.40149	0.01604
956.47312	0.01313
954.54474	0.01170
952.61637	0.01213
950.68800	0.01439
948.75962	0.01781
946.83125	0.02130
944.90288	0.02378
942.97451	0.02528
941.04613	0.02672
939.11776	0.02817
937.18939	0.02954
935.26101	0.03100
933.33264	0.03171
931.40427	0.03127
929.47589	0.03052
927.54752	0.02968
925.61915	0.02882
923.69077	0.02828
921.76240	0.02761
919.83403	0.02680
917.90565	0.02690
915.97728	0.02776
914.04891	0.02803
912.12053	0.02715
910.19216	0.02558
908.26379	0.02402
906.33541	0.02250
904.40704	0.02058
902.47867	0.01817
900.55029	0.01574
898.62192	0.01435
896.69355	0.01406
894.76517	0.01386
892.83680	0.01349
890.90843	0.01312
888.98005	0.01273
887.05168	0.01229
885.12331	0.01176
883.19494	0.01091
881.26656	0.00997
879.33819	0.00987
877.40982	0.01038
875.48144	0.01040
873.55307	0.01011
871.62470	0.01047
869.69632	0.01149
867.76795	0.01239
865.83958	0.01240
863.91120	0.01215
861.98283	0.01251
860.05446	0.01241
858.12608	0.01087
856.19771	0.00883
854.26934	0.00825
852.34096	0.00937
850.41259	0.01012
848.48422	0.00913
846.55584	0.00771
844.62747	0.00722
842.69910	0.00735
840.77072	0.00798
838.84235	0.00879
836.91398	0.00920
834.98560	0.00883
833.05723	0.00785
831.12886	0.00618
829.20049	0.00439
827.27211	0.00382
825.34374	0.00410
823.41537	0.00438
821.48699	0.00526
819.55862	0.00672
817.63025	0.00744
815.70187	0.00687
813.77350	0.00616
811.84513	0.00589
809.91675	0.00590
807.98838	0.00622
806.06001	0.00625
804.13163	0.00544
802.20326	0.00394
800.27489	0.00242
798.34651	0.00194
796.41814	0.00217
794.48977	0.00231
792.56139	0.00173
790.63302	0.00211
788.70465	0.00281
786.77627	0.00341
784.84790	0.00298
782.91953	0.00240
780.99115	0.00173
779.06278	0.00315
777.13441	0.00515
775.20603	0.00545
773.27766	0.00417
771.34929	0.00301
769.42092	0.00222
767.49254	0.00236
765.56417	0.00326
763.63580	0.00405
761.70742	0.00425
759.77905	0.00312
757.85068	0.00214
755.92230	0.00189
753.99393	0.00250
752.06556	0.00359
750.13718	0.00405
748.20881	0.00375
746.28044	0.00335
744.35206	0.00252
742.42369	0.00167
740.49532	0.00222
738.56694	0.00247
736.63857	0.00205
734.71020	0.00275
732.78182	0.00249
730.85345	0.00171
728.92508	0.00207
726.99670	0.00221
725.06833	0.00165
723.13996	0.00132
721.21158	0.00187
719.28321	0.00346
717.35484	0.00476
715.42647	0.00384
713.49809	0.00211
711.56972	0.00096
709.64135	0.00109
707.71297	0.00165
705.78460	0.00148
703.85623	0.00183
701.92785	0.00305
699.99948	0.00326
698.07111	0.00274
696.14273	0.00256
694.21436	0.00174
692.28599	0.00325
690.35761	0.00303
688.42924	0.00307
686.50087	0.00496
684.57249	0.00567
682.64412	0.00443
680.71575	0.00308
678.78737	0.00385
676.85900	0.00590
674.93063	0.00538
673.00225	0.00381
671.07388	0.00451
669.14551	0.00577
667.21713	0.00389
665.28876	0.00445
663.36039	0.00527
661.43201	0.00643
659.50364	0.00639
657.57527	0.00440
655.64690	0.00346
653.71852	0.00326
651.79015	0.00425
649.86178	0.00572
647.93340	0.00577
646.00503	0.00529
644.07666	0.00466
642.14828	0.00485
640.21991	0.00535
638.29154	0.00496
636.36316	0.00632
634.43479	0.00410
632.50642	0.00288
630.57804	0.00592
628.64967	0.00827
626.72130	0.00754
624.79292	0.00642
622.86455	0.00799
620.93618	0.00874
619.00780	0.00603
617.07943	0.00306
615.15106	0.00284
613.22268	0.00204
611.29431	0.00502
609.36594	0.00845
607.43756	0.01039
605.50919	0.00971
603.58082	0.00985
601.65244	0.01183
599.72407	0.01339
