3997.51769	0.54031
3995.58931	0.54089
3993.66094	0.54130
3991.73257	0.54136
3989.80419	0.54122
3987.87582	0.54128
3985.94745	0.54169
3984.01907	0.54197
3982.09070	0.54224
3980.16233	0.54264
3978.23396	0.54284
3976.30558	0.54300
3974.37721	0.54321
3972.44884	0.54309
3970.52046	0.54270
3968.59209	0.54236
3966.66372	0.54242
3964.73534	0.54310
3962.80697	0.54404
3960.87860	0.54478
3958.95022	0.54561
3957.02185	0.54694
3955.09348	0.54824
3953.16510	0.54899
3951.23673	0.54954
3949.30836	0.54999
3947.37998	0.54998
3945.45161	0.55022
3943.52324	0.55133
3941.59486	0.55224
3939.66649	0.55236
3937.73812	0.55266
3935.80974	0.55337
3933.88137	0.55445
3931.95300	0.55601
3930.02462	0.55713
3928.09625	0.55737
3926.16788	0.55772
3924.23950	0.55846
3922.31113	0.55903
3920.38276	0.55973
3918.45439	0.56085
3916.52601	0.56134
3914.59764	0.56066
3912.66927	0.56019
3910.74089	0.56097
3908.81252	0.56268
3906.88415	0.56569
3904.95577	0.57011
3903.02740	0.57303
3901.09903	0.57306
3899.17065	0.57194
3897.24228	0.57046
3895.31391	0.57011
3893.38553	0.57191
3891.45716	0.57357
3889.52879	0.57305
3887.60041	0.57338
3885.67204	0.57560
3883.74367	0.57761
3881.81529	0.57921
3879.88692	0.57896
3877.95855	0.57661
3876.03017	0.57614
3874.10180	0.57835
3872.17343	0.58179
3870.24505	0.58477
3868.31668	0.58470
3866.38831	0.58400
3864.45994	0.58501
3862.53156	0.58456
3860.60319	0.58258
3858.67482	0.58230
3856.74644	0.58440
3854.81807	0.58888
3852.88970	0.59213
3850.96132	0.58873
3849.03295	0.58450
3847.10458	0.58289
3845.17620	0.58382
3843.24783	0.58607
3841.31946	0.58886
3839.39108	0.59190
3837.46271	0.59295
3835.53434	0.59097
3833.60596	0.58837
3831.67759	0.58631
3829.74922	0.58525
3827.82084	0.58592
3825.89247	0.58763
3823.96410	0.59012
3822.03572	0.59380
3820.10735	0.59459
3818.17898	0.59191
3816.25060	0.58978
3814.32223	0.58713
3812.39386	0.58479
3810.46548	0.58519
3808.53711	0.58811
3806.60874	0.59073
3804.68037	0.59172
3802.75199	0.59305
3800.82362	0.59270
3798.89525	0.58962
3796.96687	0.58715
3795.03850	0.58512
3793.11013	0.58345
3791.18175	0.58267
3789.25338	0.58245
3787.32501	0.58295
3785.39663	0.58362
3783.46826	0.58333
3781.53989	0.58323
3779.61151	0.58371
3777.68314	0.58239
3775.75477	0.58017
3773.82639	0.57974
3771.89802	0.58130
3769.96965	0.58347
3768.04127	0.58419
3766.11290	0.58319
3764.18453	0.58167
3762.25615	0.58148
3760.32778	0.58274
3758.39941	0.58264
3756.47103	0.58137
3754.54266	0.58228
3752.61429	0.58620
3750.68591	0.58891
3748.75754	0.58638
3746.82917	0.58452
3744.90080	0.58434
3742.97242	0.58095
3741.04405	0.57712
3739.11568	0.57701
3737.18730	0.58045
3735.25893	0.58373
3733.33056	0.58086
3731.40218	0.57379
3729.47381	0.56890
3727.54544	0.56714
3725.61706	0.56628
3723.68869	0.56456
3721.76032	0.56177
3719.83194	0.55818
3717.90357	0.55465
3715.97520	0.55270
3714.04682	0.55289
3712.11845	0.55408
3710.19008	0.55181
3708.26170	0.54544
3706.33333	0.53954
3704.40496	0.53609
3702.47658	0.53384
3700.54821	0.52973
3698.61984	0.52401
3696.69146	0.51857
3694.76309	0.51412
3692.83472	0.51122
3690.90635	0.50874
3688.97797	0.50236
3687.04960	0.49074
3685.12123	0.47916
3683.19285	0.46963
3681.26448	0.46175
3679.33611	0.45520
3677.40773	0.44895
3675.47936	0.43860
3673.55099	0.42492
3671.62261	0.41376
3669.69424	0.40033
3667.76587	0.38392
3665.83749	0.36955
3663.90912	0.35621
3661.98075	0.34304
3660.05237	0.33070
3658.12400	0.31896
3656.19563	0.30569
3654.26725	0.29271
3652.33888	0.28240
3650.41051	0.27082
3648.48213	0.25405
3646.55376	0.23664
3644.62539	0.22280
3642.69701	0.21110
3640.76864	0.19986
3638.84027	0.18845
3636.91189	0.17728
3634.98352	0.16685
3633.05515	0.15724
3631.12678	0.14857
3629.19840	0.13828
3627.27003	0.12662
3625.34166	0.11817
3623.41328	0.11168
3621.48491	0.10543
3619.55654	0.09823
3617.62816	0.09042
3615.69979	0.08374
3613.77142	0.07787
3611.84304	0.07251
3609.91467	0.06780
3607.98630	0.06289
3606.05792	0.05781
3604.12955	0.05364
3602.20118	0.04989
3600.27280	0.04609
3598.34443	0.04260
3596.41606	0.03935
3594.48768	0.03597
3592.55931	0.03267
3590.63094	0.02963
3588.70256	0.02644
3586.77419	0.02373
3584.84582	0.02208
3582.91744	0.02045
3580.98907	0.01860
3579.06070	0.01715
3577.13233	0.01614
3575.20395	0.01487
3573.27558	0.01336
3571.34721	0.01208
3569.41883	0.01112
3567.49046	0.01019
3565.56209	0.00935
3563.63371	0.00902
3561.70534	0.00848
3559.77697	0.00717
3557.84859	0.00595
3555.92022	0.00565
3553.99185	0.00555
3552.06347	0.00465
3550.13510	0.00352
3548.20673	0.00312
3546.27835	0.00317
3544.34998	0.00294
3542.42161	0.00235
3540.49323	0.00184
3538.56486	0.00172
3536.63649	0.00195
3534.70811	0.00226
3532.77974	0.00205
3530.85137	0.00157
3528.92299	0.00121
3526.99462	0.00099
3525.06625	0.00087
3523.13787	0.00069
3521.20950	0.00071
3519.28113	0.00069
3517.35276	0.00065
3515.42438	0.00088
3513.49601	0.00120
3511.56764	0.00070
3509.63926	0.00045
3507.71089	0.00089
3505.78252	0.00132
3503.85414	0.00152
3501.92577	0.00116
3499.99740	0.00074
3498.06902	0.00103
3496.14065	0.00139
3494.21228	0.00126
3492.28390	0.00064
3490.35553	0.00058
3488.42716	0.00112
3486.49878	0.00085
3484.57041	0.00109
3482.64204	0.00102
3480.71366	0.00087
3478.78529	0.00084
3476.85692	0.00105
3474.92854	0.00124
3473.00017	0.00102
3471.07180	0.00055
3469.14342	0.00055
3467.21505	0.00095
3465.28668	0.00130
3463.35831	0.00110
3461.42993	0.00046
3459.50156	0.00075
3457.57319	0.00107
3455.64481	0.00131
3453.71644	0.00171
3451.78807	0.00165
3449.85969	0.00127
3447.93132	0.00106
3446.00295	0.00095
3444.07457	0.00099
3442.14620	0.00105
3440.21783	0.00103
3438.28945	0.00077
3436.36108	0.00037
3434.43271	0.00059
3432.50433	0.00086
3430.57596	0.00099
3428.64759	0.00109
3426.71921	0.00052
3424.79084	0.00062
3422.86247	0.00071
3420.93409	0.00087
3419.00572	0.00122
3417.07735	0.00083
3415.14897	0.00025
3413.22060	0.00067
3411.29223	0.00055
3409.36385	0.00045
3407.43548	0.00058
3405.50711	0.00089
3403.57874	0.00101
3401.65036	0.00085
3399.72199	0.00063
3397.79362	0.00065
3395.86524	0.00091
3393.93687	0.00092
3392.00850	0.00053
3390.08012	0.00038
3388.15175	0.00103
3386.22338	0.00086
3384.29500	0.00065
3382.36663	0.00074
3380.43826	0.00069
3378.50988	0.00065
3376.58151	0.00103
3374.65314	0.00095
3372.72476	0.00056
3370.79639	0.00040
3368.86802	0.00079
3366.93964	0.00108
3365.01127	0.00135
3363.08290	0.00106
3361.15452	0.00047
3359.22615	0.00099
3357.29778	0.00124
3355.36940	0.00131
3353.44103	0.00121
3351.51266	0.00072
3349.58428	0.00046
3347.65591	0.00077
3345.72754	0.00111
3343.79917	0.00134
3341.87079	0.00108
3339.94242	0.00057
3338.01405	0.00041
3336.08567	0.00070
3334.15730	0.00139
3332.22893	0.00098
3330.30055	0.00080
3328.37218	0.00102
3326.44381	0.00103
3324.51543	0.00081
3322.58706	0.00085
3320.65869	0.00084
3318.73031	0.00059
3316.80194	0.00058
3314.87357	0.00059
3312.94519	0.00100
3311.01682	0.00120
3309.08845	0.00115
3307.16007	0.00100
3305.23170	0.00105
3303.30333	0.00106
3301.37495	0.00073
3299.44658	0.00058
3297.51821	0.00061
3295.58983	0.00017
3293.66146	0.00040
3291.73309	0.00043
3289.80472	0.00056
3287.87634	0.00089
3285.94797	0.00084
3284.01960	0.00067
3282.09122	0.00089
3280.16285	0.00091
3278.23448	0.00094
3276.30610	0.00150
3274.37773	0.00156
3272.44936	0.00097
3270.52098	0.00066
3268.59261	0.00079
3266.66424	0.00058
3264.73586	0.00060
3262.80749	0.00059
3260.87912	0.00068
3258.95074	0.00053
3257.02237	0.00058
3255.09400	0.00065
3253.16562	0.00079
3251.23725	0.00057
3249.30888	0.00095
3247.38050	0.00129
3245.45213	0.00135
3243.52376	0.00124
3241.59538	0.00125
3239.66701	0.00122
3237.73864	0.00135
3235.81026	0.00121
3233.88189	0.00081
3231.95352	0.00087
3230.02515	0.00093
3228.09677	0.00106
3226.16840	0.00096
3224.24003	0.00085
3222.31165	0.00072
3220.38328	0.00072
3218.45491	0.00110
3216.52653	0.00107
3214.59816	0.00093
3212.66979	0.00093
3210.74141	0.00110
3208.81304	0.00105
3206.88467	0.00092
3204.95629	0.00102
3203.02792	0.00122
3201.09955	0.00091
3199.17117	0.00070
3197.24280	0.00093
3195.31443	0.00063
3193.38605	0.00071
3191.45768	0.00090
3189.52931	0.00054
3187.60093	0.00076
3185.67256	0.00079
3183.74419	0.00093
3181.81581	0.00115
3179.88744	0.00095
3177.95907	0.00061
3176.03070	0.00038
3174.10232	0.00047
3172.17395	0.00061
3170.24558	0.00090
3168.31720	0.00100
3166.38883	0.00110
3164.46046	0.00088
3162.53208	0.00040
3160.60371	0.00050
3158.67534	0.00079
3156.74696	0.00062
3154.81859	0.00091
3152.89022	0.00099
3150.96184	0.00080
3149.03347	0.00061
3147.10510	0.00053
3145.17672	0.00089
3143.24835	0.00118
3141.31998	0.00136
3139.39160	0.00108
3137.46323	0.00054
3135.53486	0.00057
3133.60648	0.00059
3131.67811	0.00046
3129.74974	0.00040
3127.82136	0.00033
3125.89299	0.00084
3123.96462	0.00133
3122.03624	0.00133
3120.10787	0.00092
3118.17950	0.00045
3116.25113	0.00068
3114.32275	0.00091
3112.39438	0.00069
3110.46601	0.00102
3108.53763	0.00145
3106.60926	0.00119
3104.68089	0.00075
3102.75251	0.00097
3100.82414	0.00147
3098.89577	0.00153
3096.96739	0.00127
3095.03902	0.00111
3093.11065	0.00107
3091.18227	0.00114
3089.25390	0.00106
3087.32553	0.00079
3085.39715	0.00077
3083.46878	0.00073
3081.54041	0.00040
3079.61203	0.00077
3077.68366	0.00085
3075.75529	0.00081
3073.82691	0.00073
3071.89854	0.00064
3069.97017	0.00066
3068.04179	0.00054
3066.11342	0.00070
3064.18505	0.00079
3062.25668	0.00094
3060.32830	0.00068
3058.39993	0.00029
3056.47156	0.00025
3054.54318	0.00070
3052.61481	0.00105
3050.68644	0.00125
3048.75806	0.00120
3046.82969	0.00112
3044.90132	0.00081
3042.97294	0.00072
3041.04457	0.00091
3039.11620	0.00075
3037.18782	0.00073
3035.25945	0.00101
3033.33108	0.00093
3031.40270	0.00071
3029.47433	0.00106
3027.54596	0.00124
3025.61758	0.00117
3023.68921	0.00088
3021.76084	0.00050
3019.83246	0.00102
3017.90409	0.00142
3015.97572	0.00122
3014.04734	0.00054
3012.11897	0.00070
3010.19060	0.00094
3008.26222	0.00077
3006.33385	0.00087
3004.40548	0.00088
3002.47711	0.00068
3000.54873	0.00069
2998.62036	0.00086
2996.69199	0.00126
2994.76361	0.00146
2992.83524	0.00099
2990.90687	0.00047
2988.97849	0.00106
2987.05012	0.00131
2985.12175	0.00129
2983.19337	0.00144
2981.26500	0.00183
2979.33663	0.00184
2977.40825	0.00139
2975.47988	0.00124
2973.55151	0.00157
2971.62313	0.00212
2969.69476	0.00207
2967.76639	0.00167
2965.83801	0.00176
2963.90964	0.00198
2961.98127	0.00153
2960.05289	0.00075
2958.12452	0.00072
2956.19615	0.00112
2954.26777	0.00042
2952.33940	0.00110
2950.41103	0.00175
2948.48266	0.00125
2946.55428	0.00079
2944.62591	0.00071
2942.69754	0.00108
2940.76916	0.00166
2938.84079	0.00136
2936.91242	0.00044
2934.98404	0.00124
2933.05567	0.00162
2931.12730	0.00085
2929.19892	0.00098
2927.27055	0.00152
2925.34218	0.00138
2923.41380	0.00106
2921.48543	0.00111
2919.55706	0.00131
2917.62868	0.00091
2915.70031	0.00083
2913.77194	0.00072
2911.84356	0.00065
2909.91519	0.00080
2907.98682	0.00075
2906.05844	0.00092
2904.13007	0.00141
2902.20170	0.00151
2900.27332	0.00121
2898.34495	0.00081
2896.41658	0.00074
2894.48820	0.00103
2892.55983	0.00133
2890.63146	0.00124
2888.70309	0.00084
2886.77471	0.00110
2884.84634	0.00150
2882.91797	0.00137
2880.98959	0.00114
2879.06122	0.00070
2877.13285	0.00069
2875.20447	0.00088
2873.27610	0.00111
2871.34773	0.00125
2869.41935	0.00111
2867.49098	0.00097
2865.56261	0.00106
2863.63423	0.00111
2861.70586	0.00141
2859.77749	0.00146
2857.84911	0.00129
2855.92074	0.00133
2853.99237	0.00118
2852.06399	0.00086
2850.13562	0.00091
2848.20725	0.00113
2846.27887	0.00133
2844.35050	0.00142
2842.42213	0.00143
2840.49375	0.00127
2838.56538	0.00106
2836.63701	0.00119
2834.70863	0.00161
2832.78026	0.00172
2830.85189	0.00157
2828.92352	0.00138
2826.99514	0.00135
2825.06677	0.00147
2823.13840	0.00154
2821.21002	0.00148
2819.28165	0.00133
2817.35328	0.00129
2815.42490	0.00127
2813.49653	0.00112
2811.56816	0.00106
2809.63978	0.00127
2807.71141	0.00149
2805.78304	0.00146
2803.85466	0.00147
2801.92629	0.00162
2799.99792	0.00169
2798.06954	0.00181
2796.14117	0.00202
2794.21280	0.00223
2792.28442	0.00231
2790.35605	0.00212
2788.42768	0.00198
2786.49930	0.00221
2784.57093	0.00250
2782.64256	0.00262
2780.71418	0.00270
2778.78581	0.00285
2776.85744	0.00295
2774.92907	0.00309
2773.00069	0.00342
2771.07232	0.00359
2769.14395	0.00342
2767.21557	0.00311
2765.28720	0.00296
2763.35883	0.00308
2761.43045	0.00329
2759.50208	0.00344
2757.57371	0.00346
2755.64533	0.00336
2753.71696	0.00342
2751.78859	0.00369
2749.86021	0.00400
2747.93184	0.00438
2746.00347	0.00471
2744.07509	0.00470
2742.14672	0.00454
2740.21835	0.00465
2738.28997	0.00525
2736.36160	0.00628
2734.43323	0.00689
2732.50485	0.00657
2730.57648	0.00611
2728.64811	0.00618
2726.71973	0.00658
2724.79136	0.00707
2722.86299	0.00752
2720.93461	0.00772
2719.00624	0.00769
2717.07787	0.00763
2715.14950	0.00765
2713.22112	0.00777
2711.29275	0.00815
2709.36438	0.00875
2707.43600	0.00908
2705.50763	0.00905
2703.57926	0.00906
2701.65088	0.00918
2699.72251	0.00914
2697.79414	0.00896
2695.86576	0.00900
2693.93739	0.00922
2692.00902	0.00945
2690.08064	0.00970
2688.15227	0.00989
2686.22390	0.00990
2684.29552	0.00977
2682.36715	0.00973
2680.43878	0.00994
2678.51040	0.01019
2676.58203	0.01040
2674.65366	0.01070
2672.72528	0.01119
2670.79691	0.01180
2668.86854	0.01238
2666.94016	0.01284
2665.01179	0.01321
2663.08342	0.01364
2661.15505	0.01407
2659.22667	0.01436
2657.29830	0.01464
2655.36993	0.01488
2653.44155	0.01498
2651.51318	0.01511
2649.58481	0.01558
2647.65643	0.01641
2645.72806	0.01712
2643.79969	0.01748
2641.87131	0.01778
2639.94294	0.01820
2638.01457	0.01854
2636.08619	0.01887
2634.15782	0.01949
2632.22945	0.02024
2630.30107	0.02085
2628.37270	0.02143
2626.44433	0.02207
2624.51595	0.02287
2622.58758	0.02362
2620.65921	0.02415
2618.73083	0.02479
2616.80246	0.02572
2614.87409	0.02667
2612.94571	0.02749
2611.01734	0.02808
2609.08897	0.02860
2607.16059	0.02933
2605.23222	0.03020
2603.30385	0.03101
2601.37548	0.03172
2599.44710	0.03249
2597.51873	0.03348
2595.59036	0.03444
2593.66198	0.03522
2591.73361	0.03592
2589.80524	0.03668
2587.87686	0.03745
2585.94849	0.03826
2584.02012	0.03926
2582.09174	0.04035
2580.16337	0.04119
2578.23500	0.04185
2576.30662	0.04262
2574.37825	0.04349
2572.44988	0.04449
2570.52150	0.04557
2568.59313	0.04638
2566.66476	0.04694
2564.73638	0.04755
2562.80801	0.04839
2560.87964	0.04940
2558.95126	0.05048
2557.02289	0.05150
2555.09452	0.05227
2553.16614	0.05290
2551.23777	0.05365
2549.30940	0.05450
2547.38103	0.05529
2545.45265	0.05616
2543.52428	0.05711
2541.59591	0.05787
2539.66753	0.05856
2537.73916	0.05948
2535.81079	0.06046
2533.88241	0.06129
2531.95404	0.06205
2530.02567	0.06298
2528.09729	0.06409
2526.16892	0.06504
2524.24055	0.06578
2522.31217	0.06666
2520.38380	0.06772
2518.45543	0.06873
2516.52705	0.06968
2514.59868	0.07053
2512.67031	0.07134
2510.74193	0.07232
2508.81356	0.07340
2506.88519	0.07421
2504.95681	0.07480
2503.02844	0.07546
2501.10007	0.07617
2499.17169	0.07695
2497.24332	0.07774
2495.31495	0.07852
2493.38657	0.07938
2491.45820	0.08022
2489.52983	0.08091
2487.60146	0.08155
2485.67308	0.08234
2483.74471	0.08350
2481.81634	0.08479
2479.88796	0.08566
2477.95959	0.08615
2476.03122	0.08682
2474.10284	0.08791
2472.17447	0.08915
2470.24610	0.09038
2468.31772	0.09168
2466.38935	0.09299
2464.46098	0.09436
2462.53260	0.09577
2460.60423	0.09692
2458.67586	0.09799
2456.74748	0.09934
2454.81911	0.10088
2452.89074	0.10243
2450.96236	0.10389
2449.03399	0.10519
2447.10562	0.10639
2445.17724	0.10754
2443.24887	0.10882
2441.32050	0.11020
2439.39212	0.11156
2437.46375	0.11290
2435.53538	0.11417
2433.60700	0.11537
2431.67863	0.11670
2429.75026	0.11813
2427.82189	0.11945
2425.89351	0.12071
2423.96514	0.12211
2422.03677	0.12348
2420.10839	0.12449
2418.18002	0.12533
2416.25165	0.12626
2414.32327	0.12731
2412.39490	0.12865
2410.46653	0.13031
2408.53815	0.13194
2406.60978	0.13332
2404.68141	0.13445
2402.75303	0.13557
2400.82466	0.13698
2398.89629	0.13863
2396.96791	0.14034
2395.03954	0.14204
2393.11117	0.14365
2391.18279	0.14507
2389.25442	0.14634
2387.32605	0.14779
2385.39767	0.14957
2383.46930	0.15150
2381.54093	0.15358
2379.61255	0.15577
2377.68418	0.15797
2375.75581	0.16037
2373.82744	0.16306
2371.89906	0.16567
2369.97069	0.16785
2368.04232	0.16957
2366.11394	0.17220
2364.18557	0.17670
2362.25720	0.18041
2360.32882	0.18135
2358.40045	0.18089
2356.47208	0.18062
2354.54370	0.18106
2352.61533	0.18155
2350.68696	0.18149
2348.75858	0.18148
2346.83021	0.18257
2344.90184	0.18528
2342.97346	0.18815
2341.04509	0.18931
2339.11672	0.18969
2337.18834	0.19055
2335.25997	0.19147
2333.33160	0.19204
2331.40322	0.19266
2329.47485	0.19349
2327.54648	0.19427
2325.61810	0.19498
2323.68973	0.19597
2321.76136	0.19695
2319.83298	0.19744
2317.90461	0.19801
2315.97624	0.19925
2314.04787	0.20067
2312.11949	0.20172
2310.19112	0.20271
2308.26275	0.20395
2306.33437	0.20538
2304.40600	0.20698
2302.47763	0.20854
2300.54925	0.20993
2298.62088	0.21135
2296.69251	0.21296
2294.76413	0.21465
2292.83576	0.21626
2290.90739	0.21771
2288.97901	0.21912
2287.05064	0.22045
2285.12227	0.22163
2283.19389	0.22283
2281.26552	0.22417
2279.33715	0.22554
2277.40877	0.22682
2275.48040	0.22811
2273.55203	0.22950
2271.62365	0.23094
2269.69528	0.23236
2267.76691	0.23369
2265.83853	0.23480
2263.91016	0.23579
2261.98179	0.23689
2260.05342	0.23797
2258.12504	0.23879
2256.19667	0.23957
2254.26830	0.24076
2252.33992	0.24222
2250.41155	0.24336
2248.48318	0.24424
2246.55480	0.24537
2244.62643	0.24655
2242.69806	0.24736
2240.76968	0.24804
2238.84131	0.24901
2236.91294	0.25008
2234.98456	0.25101
2233.05619	0.25180
2231.12782	0.25246
2229.19944	0.25306
2227.27107	0.25385
2225.34270	0.25485
2223.41432	0.25587
2221.48595	0.25677
2219.55758	0.25753
2217.62920	0.25838
2215.70083	0.25945
2213.77246	0.26047
2211.84408	0.26144
2209.91571	0.26265
2207.98734	0.26383
2206.05896	0.26475
2204.13059	0.26566
2202.20222	0.26666
2200.27385	0.26772
2198.34547	0.26885
2196.41710	0.26982
2194.48873	0.27055
2192.56035	0.27121
2190.63198	0.27206
2188.70361	0.27321
2186.77523	0.27451
2184.84686	0.27559
2182.91849	0.27625
2180.99011	0.27671
2179.06174	0.27737
2177.13337	0.27824
2175.20499	0.27905
2173.27662	0.27958
2171.34825	0.27987
2169.41987	0.28017
2167.49150	0.28070
2165.56313	0.28137
2163.63475	0.28212
2161.70638	0.28285
2159.77801	0.28353
2157.84963	0.28409
2155.92126	0.28446
2153.99289	0.28500
2152.06451	0.28604
2150.13614	0.28708
2148.20777	0.28762
2146.27940	0.28802
2144.35102	0.28867
2142.42265	0.28943
2140.49428	0.29026
2138.56590	0.29128
2136.63753	0.29238
2134.70916	0.29334
2132.78078	0.29413
2130.85241	0.29518
2128.92404	0.29660
2126.99566	0.29795
2125.06729	0.29909
2123.13892	0.30026
2121.21054	0.30154
2119.28217	0.30279
2117.35380	0.30391
2115.42542	0.30508
2113.49705	0.30634
2111.56868	0.30751
2109.64030	0.30855
2107.71193	0.30959
2105.78356	0.31063
2103.85518	0.31170
2101.92681	0.31285
2099.99844	0.31387
2098.07006	0.31456
2096.14169	0.31516
2094.21332	0.31605
2092.28494	0.31709
2090.35657	0.31784
2088.42820	0.31820
2086.49983	0.31848
2084.57145	0.31868
2082.64308	0.31873
2080.71471	0.31884
2078.78633	0.31905
2076.85796	0.31930
2074.92959	0.31956
2073.00121	0.31969
2071.07284	0.31965
2069.14447	0.31959
2067.21609	0.31973
2065.28772	0.32001
2063.35935	0.32028
2061.43097	0.32064
2059.50260	0.32108
2057.57423	0.32146
2055.64585	0.32213
2053.71748	0.32316
2051.78911	0.32415
2049.86073	0.32506
2047.93236	0.32593
2046.00399	0.32684
2044.07561	0.32809
2042.14724	0.32934
2040.21887	0.33018
2038.29049	0.33106
2036.36212	0.33207
2034.43375	0.33275
2032.50538	0.33320
2030.57700	0.33371
2028.64863	0.33423
2026.72026	0.33464
2024.79188	0.33498
2022.86351	0.33539
2020.93514	0.33584
2019.00676	0.33622
2017.07839	0.33649
2015.15002	0.33657
2013.22164	0.33655
2011.29327	0.33669
2009.36490	0.33719
2007.43652	0.33781
2005.50815	0.33820
2003.57978	0.33831
2001.65140	0.33843
1999.72303	0.33869
1997.79466	0.33897
1995.86628	0.33936
1993.93791	0.34005
1992.00954	0.34066
1990.08116	0.34080
1988.15279	0.34074
1986.22442	0.34073
1984.29604	0.34081
1982.36767	0.34103
1980.43930	0.34136
1978.51092	0.34163
1976.58255	0.34183
1974.65418	0.34202
1972.72581	0.34217
1970.79743	0.34231
1968.86906	0.34256
1966.94069	0.34278
1965.01231	0.34273
1963.08394	0.34264
1961.15557	0.34280
1959.22719	0.34302
1957.29882	0.34318
1955.37045	0.34323
1953.44207	0.34311
1951.51370	0.34309
1949.58533	0.34339
1947.65695	0.34365
1945.72858	0.34385
1943.80021	0.34436
1941.87183	0.34449
1939.94346	0.34361
1938.01509	0.34274
1936.08671	0.34246
1934.15834	0.34237
1932.22997	0.34209
1930.30159	0.34173
1928.37322	0.34162
1926.44485	0.34190
1924.51647	0.34242
1922.58810	0.34254
1920.65973	0.34213
1918.73135	0.34184
1916.80298	0.34153
1914.87461	0.34088
1912.94624	0.34041
1911.01786	0.34053
1909.08949	0.34066
1907.16112	0.34022
1905.23274	0.33952
1903.30437	0.33914
1901.37600	0.33899
1899.44762	0.33870
1897.51925	0.33822
1895.59088	0.33755
1893.66250	0.33683
1891.73413	0.33641
1889.80576	0.33598
1887.87738	0.33493
1885.94901	0.33362
1884.02064	0.33230
1882.09226	0.33085
1880.16389	0.32945
1878.23552	0.32813
1876.30714	0.32676
1874.37877	0.32532
1872.45040	0.32424
1870.52202	0.32375
1868.59365	0.32280
1866.66528	0.32034
1864.73690	0.31734
1862.80853	0.31476
1860.88016	0.31247
1858.95179	0.31023
1857.02341	0.30809
1855.09504	0.30615
1853.16667	0.30449
1851.23829	0.30314
1849.30992	0.30203
1847.38155	0.30114
1845.45317	0.30024
1843.52480	0.29837
1841.59643	0.29574
1839.66805	0.29376
1837.73968	0.29233
1835.81131	0.29080
1833.88293	0.28936
1831.95456	0.28846
1830.02619	0.28741
1828.09781	0.28545
1826.16944	0.28315
1824.24107	0.28033
1822.31269	0.27706
1820.38432	0.27402
1818.45595	0.27088
1816.52757	0.26720
1814.59920	0.26336
1812.67083	0.25974
1810.74245	0.25567
1808.81408	0.25066
1806.88571	0.24514
1804.95733	0.23969
1803.02896	0.23442
1801.10059	0.22851
1799.17222	0.22170
1797.24384	0.21510
1795.31547	0.20914
1793.38710	0.20233
1791.45872	0.19349
1789.53035	0.18504
1787.60198	0.17825
1785.67360	0.17165
1783.74523	0.16478
1781.81686	0.15815
1779.88848	0.15148
1777.96011	0.14509
1776.03174	0.13951
1774.10336	0.13394
1772.17499	0.12676
1770.24662	0.11867
1768.31824	0.11127
1766.38987	0.10410
1764.46150	0.09714
1762.53312	0.08945
1760.60475	0.08062
1758.67638	0.07172
1756.74800	0.06199
1754.81963	0.05230
1752.89126	0.04357
1750.96288	0.03434
1749.03451	0.02509
1747.10614	0.01789
1745.17777	0.01240
1743.24939	0.00789
1741.32102	0.00439
1739.39265	0.00202
1737.46427	0.00082
1735.53590	0.00042
1733.60753	0.00034
1731.67915	0.00063
1729.75078	0.00069
1727.82241	0.00075
1725.89403	0.00059
1723.96566	0.00033
1722.03729	0.00036
1720.10891	0.00065
1718.18054	0.00127
1716.25217	0.00162
1714.32379	0.00146
1712.39542	0.00138
1710.46705	0.00160
1708.53867	0.00172
1706.61030	0.00139
1704.68193	0.00085
1702.75355	0.00090
1700.82518	0.00128
1698.89681	0.00169
1696.96843	0.00100
1695.04006	0.00038
1693.11169	0.00013
1691.18331	0.00044
1689.25494	0.00089
1687.32657	0.00143
1685.39820	0.00193
1683.46982	0.00172
1681.54145	0.00091
1679.61308	0.00052
1677.68470	0.00069
1675.75633	0.00091
1673.82796	0.00076
1671.89958	0.00079
1669.97121	0.00114
1668.04284	0.00129
1666.11446	0.00088
1664.18609	0.00070
1662.25772	0.00073
1660.32934	0.00064
1658.40097	0.00054
1656.47260	0.00082
1654.54422	0.00122
1652.61585	0.00091
1650.68748	0.00076
1648.75910	0.00068
1646.83073	0.00081
1644.90236	0.00086
1642.97398	0.00075
1641.04561	0.00052
1639.11724	0.00015
1637.18886	0.00057
1635.26049	0.00088
1633.33212	0.00067
1631.40375	0.00054
1629.47537	0.00052
1627.54700	0.00036
1625.61863	0.00046
1623.69025	0.00063
1621.76188	0.00076
1619.83351	0.00084
1617.90513	0.00064
1615.97676	0.00075
1614.04839	0.00059
1612.12001	0.00054
1610.19164	0.00058
1608.26327	0.00060
1606.33489	0.00060
1604.40652	0.00052
1602.47815	0.00054
1600.54977	0.00041
1598.62140	0.00041
1596.69303	0.00050
1594.76465	0.00069
1592.83628	0.00063
1590.90791	0.00052
1588.97953	0.00041
1587.05116	0.00058
1585.12279	0.00056
1583.19441	0.00038
1581.26604	0.00044
1579.33767	0.00054
1577.40929	0.00054
1575.48092	0.00049
1573.55255	0.00023
1571.62418	0.00052
1569.69580	0.00080
1567.76743	0.00065
1565.83906	0.00031
1563.91068	0.00047
1561.98231	0.00105
1560.05394	0.00177
1558.12556	0.00192
1556.19719	0.00112
1554.26882	0.00084
1552.34044	0.00092
1550.41207	0.00074
1548.48370	0.00051
1546.55532	0.00065
1544.62695	0.00100
1542.69858	0.00105
1540.77020	0.00058
1538.84183	0.00046
1536.91346	0.00076
1534.98508	0.00125
1533.05671	0.00109
1531.12834	0.00081
1529.19996	0.00096
1527.27159	0.00087
1525.34322	0.00071
1523.41484	0.00062
1521.48647	0.00052
1519.55810	0.00083
1517.62972	0.00079
1515.70135	0.00077
1513.77298	0.00070
1511.84461	0.00065
1509.91623	0.00032
1507.98786	0.00042
1506.05949	0.00044
1504.13111	0.00106
1502.20274	0.00097
1500.27437	0.00051
1498.34599	0.00039
1496.41762	0.00073
1494.48925	0.00068
1492.56087	0.00088
1490.63250	0.00113
1488.70413	0.00130
1486.77575	0.00161
1484.84738	0.00178
1482.91901	0.00173
1480.99063	0.00183
1479.06226	0.00197
1477.13389	0.00184
1475.20551	0.00188
1473.27714	0.00227
1471.34877	0.00238
1469.42039	0.00230
1467.49202	0.00197
1465.56365	0.00154
1463.63527	0.00128
1461.70690	0.00116
1459.77853	0.00115
1457.85016	0.00091
1455.92178	0.00062
1453.99341	0.00076
1452.06504	0.00083
1450.13666	0.00094
1448.20829	0.00083
1446.27992	0.00048
1444.35154	0.00061
1442.42317	0.00065
1440.49480	0.00053
1438.56642	0.00052
1436.63805	0.00027
1434.70968	0.00018
1432.78130	0.00034
1430.85293	0.00058
1428.92456	0.00084
1426.99618	0.00063
1425.06781	0.00033
1423.13944	0.00035
1421.21106	0.00073
1419.28269	0.00130
1417.35432	0.00157
1415.42594	0.00136
1413.49757	0.00102
1411.56920	0.00096
1409.64082	0.00092
1407.71245	0.00075
1405.78408	0.00046
1403.85570	0.00062
1401.92733	0.00066
1399.99896	0.00086
1398.07059	0.00109
1396.14221	0.00086
1394.21384	0.00081
1392.28547	0.00055
1390.35709	0.00070
1388.42872	0.00078
1386.50035	0.00085
1384.57197	0.00082
1382.64360	0.00071
1380.71523	0.00063
1378.78685	0.00076
1376.85848	0.00099
1374.93011	0.00113
1373.00173	0.00111
1371.07336	0.00093
1369.14499	0.00095
1367.21661	0.00110
1365.28824	0.00098
1363.35987	0.00099
1361.43149	0.00108
1359.50312	0.00118
1357.57475	0.00110
1355.64637	0.00103
1353.71800	0.00081
1351.78963	0.00029
1349.86125	0.00052
1347.93288	0.00073
1346.00451	0.00064
1344.07614	0.00063
1342.14776	0.00049
1340.21939	0.00061
1338.29102	0.00075
1336.36264	0.00090
1334.43427	0.00115
1332.50590	0.00103
1330.57752	0.00108
1328.64915	0.00107
1326.72078	0.00071
1324.79240	0.00045
1322.86403	0.00048
1320.93566	0.00066
1319.00728	0.00073
1317.07891	0.00062
1315.15054	0.00059
1313.22216	0.00069
1311.29379	0.00095
1309.36542	0.00171
1307.43704	0.00207
1305.50867	0.00177
1303.58030	0.00147
1301.65192	0.00145
1299.72355	0.00177
1297.79518	0.00222
1295.86680	0.00252
1293.93843	0.00247
1292.01006	0.00228
1290.08168	0.00223
1288.15331	0.00199
1286.22494	0.00135
1284.29657	0.00078
1282.36819	0.00077
1280.43982	0.00135
1278.51145	0.00173
1276.58307	0.00142
1274.65470	0.00110
1272.72633	0.00127
1270.79795	0.00151
1268.86958	0.00103
1266.94121	0.00078
1265.01283	0.00080
1263.08446	0.00096
1261.15609	0.00142
1259.22771	0.00179
1257.29934	0.00191
1255.37097	0.00181
1253.44259	0.00171
1251.51422	0.00190
1249.58585	0.00209
1247.65747	0.00238
1245.72910	0.00249
1243.80073	0.00227
1241.87235	0.00191
1239.94398	0.00148
1238.01561	0.00176
1236.08723	0.00237
1234.15886	0.00301
1232.23049	0.00301
1230.30212	0.00297
1228.37374	0.00378
1226.44537	0.00402
1224.51700	0.00311
1222.58862	0.00226
1220.66025	0.00250
1218.73188	0.00348
1216.80350	0.00407
1214.87513	0.00410
1212.94676	0.00385
1211.01838	0.00356
1209.09001	0.00368
1207.16164	0.00416
1205.23326	0.00409
1203.30489	0.00402
1201.37652	0.00475
1199.44814	0.00550
1197.51977	0.00603
1195.59140	0.00727
1193.66302	0.00879
1191.73465	0.00949
1189.80628	0.00961
1187.87790	0.00975
1185.94953	0.00977
1184.02116	0.00944
1182.09278	0.00868
1180.16441	0.00761
1178.23604	0.00681
1176.30766	0.00608
1174.37929	0.00483
1172.45092	0.00364
1170.52255	0.00288
1168.59417	0.00175
1166.66580	0.00103
1164.73743	0.00171
1162.80905	0.00191
1160.88068	0.00110
1158.95231	0.00133
1157.02393	0.00126
1155.09556	0.00169
1153.16719	0.00278
1151.23881	0.00298
1149.31044	0.00261
1147.38207	0.00306
1145.45369	0.00402
1143.52532	0.00404
1141.59695	0.00350
1139.66857	0.00315
1137.74020	0.00283
1135.81183	0.00265
1133.88345	0.00246
1131.95508	0.00174
1130.02671	0.00119
1128.09833	0.00104
1126.16996	0.00207
1124.24159	0.00242
1122.31321	0.00176
1120.38484	0.00138
1118.45647	0.00123
1116.52809	0.00102
1114.59972	0.00149
1112.67135	0.00236
1110.74298	0.00217
1108.81460	0.00118
1106.88623	0.00103
1104.95786	0.00189
1103.02948	0.00239
1101.10111	0.00208
1099.17274	0.00214
1097.24436	0.00216
1095.31599	0.00167
1093.38762	0.00094
1091.45924	0.00121
1089.53087	0.00160
1087.60250	0.00190
1085.67412	0.00204
1083.74575	0.00241
1081.81738	0.00219
1079.88900	0.00123
1077.96063	0.00140
1076.03226	0.00172
1074.10388	0.00234
1072.17551	0.00254
1070.24714	0.00272
1068.31876	0.00237
1066.39039	0.00130
1064.46202	0.00152
1062.53364	0.00043
1060.60527	0.00130
1058.67690	0.00161
1056.74853	0.00130
1054.82015	0.00133
1052.89178	0.00112
1050.96341	0.00124
1049.03503	0.00223
1047.10666	0.00281
1045.17829	0.00218
1043.24991	0.00236
1041.32154	0.00249
1039.39317	0.00209
1037.46479	0.00179
1035.53642	0.00143
1033.60805	0.00133
1031.67967	0.00133
1029.75130	0.00135
1027.82293	0.00166
1025.89455	0.00210
1023.96618	0.00164
1022.03781	0.00048
1020.10943	0.00070
1018.18106	0.00062
1016.25269	0.00069
1014.32431	0.00116
1012.39594	0.00153
1010.46757	0.00201
1008.53919	0.00243
1006.61082	0.00261
1004.68245	0.00302
1002.75407	0.00389
1000.82570	0.00489
998.89733	0.00614
996.96896	0.00742
995.04058	0.00819
993.11221	0.00894
991.18384	0.01010
989.25546	0.01114
987.32709	0.01182
985.39872	0.01226
983.47034	0.01256
981.54197	0.01304
979.61360	0.01401
977.68522	0.01487
975.75685	0.01531
973.82848	0.01656
971.90010	0.01964
969.97173	0.02351
968.04336	0.02690
966.11498	0.02963
964.18661	0.03132
962.25824	0.03093
960.32986	0.02816
958.40149	0.02385
956.47312	0.01984
954.54474	0.01808
952.61637	0.01886
950.68800	0.02165
948.75962	0.02593
946.83125	0.03046
944.90288	0.03389
942.97451	0.03654
941.04613	0.03895
939.11776	0.04047
937.18939	0.04124
935.26101	0.04228
933.33264	0.04311
931.40427	0.04275
929.47589	0.04157
927.54752	0.04015
925.61915	0.03853
923.69077	0.03698
921.76240	0.03602
919.83403	0.03592
917.90565	0.03613
915.97728	0.03575
914.04891	0.03507
912.12053	0.03460
910.19216	0.03337
908.26379	0.03104
906.33541	0.02850
904.40704	0.02594
902.47867	0.02349
900.55029	0.02148
898.62192	0.01975
896.69355	0.01764
894.76517	0.01510
892.83680	0.01387
890.90843	0.01479
888.98005	0.01554
887.05168	0.01458
885.12331	0.01388
883.19494	0.01455
881.26656	0.01502
879.33819	0.01465
877.40982	0.01429
875.48144	0.01459
873.55307	0.01557
871.62470	0.01655
869.69632	0.01696
867.76795	0.01643
865.83958	0.01532
863.91120	0.01449
861.98283	0.01459
860.05446	0.01518
858.12608	0.01507
856.19771	0.01460
854.26934	0.01449
852.34096	0.01409
850.41259	0.01330
848.48422	0.01253
846.55584	0.01179
844.62747	0.01108
842.69910	0.01072
840.77072	0.01064
838.84235	0.01065
836.91398	0.01053
834.98560	0.01018
833.05723	0.00959
831.12886	0.00834
829.20049	0.00746
827.27211	0.00846
825.34374	0.00982
823.41537	0.00974
821.48699	0.00887
819.55862	0.00805
817.63025	0.00719
815.70187	0.00652
813.77350	0.00636
811.84513	0.00594
809.91675	0.00510
807.98838	0.00498
806.06001	0.00538
804.13163	0.00510
802.20326	0.00401
800.27489	0.00363
798.34651	0.00441
796.41814	0.00444
794.48977	0.00335
792.56139	0.00253
790.63302	0.00232
788.70465	0.00230
786.77627	0.00295
784.84790	0.00287
782.91953	0.00235
780.99115	0.00263
779.06278	0.00271
777.13441	0.00237
775.20603	0.00215
773.27766	0.00162
771.34929	0.00157
769.42092	0.00188
767.49254	0.00184
765.56417	0.00178
763.63580	0.00139
761.70742	0.00080
759.77905	0.00081
757.85068	0.00175
755.92230	0.00213
753.99393	0.00188
752.06556	0.00252
750.13718	0.00290
748.20881	0.00295
746.28044	0.00311
744.35206	0.00246
742.42369	0.00097
740.49532	0.00243
738.56694	0.00304
736.63857	0.00238
734.71020	0.00171
732.78182	0.00142
730.85345	0.00196
728.92508	0.00298
726.99670	0.00279
725.06833	0.00212
723.13996	0.00131
721.21158	0.00228
719.28321	0.00402
717.35484	0.00437
715.42647	0.00354
713.49809	0.00249
711.56972	0.00168
709.64135	0.00147
707.71297	0.00219
705.78460	0.00310
703.85623	0.00376
701.92785	0.00369
699.99948	0.00280
698.07111	0.00280
696.14273	0.00378
694.21436	0.00312
692.28599	0.00265
690.35761	0.00164
688.42924	0.00269
686.50087	0.00395
684.57249	0.00451
682.64412	0.00577
680.71575	0.00774
678.78737	0.00837
676.85900	0.00695
674.93063	0.00670
673.00225	0.00570
671.07388	0.00466
669.14551	0.00597
667.21713	0.00881
665.28876	0.00785
663.36039	0.00656
661.43201	0.00633
659.50364	0.00702
657.57527	0.00779
655.64690	0.00870
653.71852	0.00869
651.79015	0.00752
649.86178	0.00717
647.93340	0.00751
646.00503	0.00724
644.07666	0.00595
642.14828	0.00521
640.21991	0.00540
638.29154	0.00584
636.36316	0.00667
634.43479	0.00786
632.50642	0.00873
630.57804	0.00850
628.64967	0.00694
626.72130	0.00737
624.79292	0.00718
622.86455	0.00678
620.93618	0.00836
619.00780	0.00999
617.07943	0.01213
615.15106	0.01612
613.22268	0.01608
611.29431	0.01422
609.36594	0.01208
607.43756	0.00900
605.50919	0.00688
603.58082	0.00728
601.65244	0.00534
599.72407	0.00720
