3997.51769	0.76471
3995.58931	0.76410
3993.66094	0.76415
3991.73257	0.76455
3989.80419	0.76492
3987.87582	0.76532
3985.94745	0.76558
3984.01907	0.76567
3982.09070	0.76587
3980.16233	0.76613
3978.23396	0.76606
3976.30558	0.76539
3974.37721	0.76470
3972.44884	0.76483
3970.52046	0.76588
3968.59209	0.76765
3966.66372	0.76938
3964.73534	0.76970
3962.80697	0.76854
3960.87860	0.76795
3958.95022	0.76904
3957.02185	0.77083
3955.09348	0.77226
3953.16510	0.77201
3951.23673	0.76940
3949.30836	0.76678
3947.37998	0.76750
3945.45161	0.76902
3943.52324	0.76806
3941.59486	0.76932
3939.66649	0.77457
3937.73812	0.77831
3935.80974	0.77746
3933.88137	0.77227
3931.95300	0.76741
3930.02462	0.76874
3928.09625	0.77250
3926.16788	0.77193
3924.23950	0.76993
3922.31113	0.77127
3920.38276	0.77191
3918.45439	0.76991
3916.52601	0.77150
3914.59764	0.77904
3912.66927	0.78629
3910.74089	0.78913
3908.81252	0.78681
3906.88415	0.77720
3904.95577	0.76230
3903.02740	0.75220
3901.09903	0.75261
3899.17065	0.76175
3897.24228	0.77581
3895.31391	0.78429
3893.38553	0.78114
3891.45716	0.77630
3889.52879	0.77995
3887.60041	0.78152
3885.67204	0.77639
3883.74367	0.77372
3881.81529	0.77265
3879.88692	0.77529
3877.95855	0.78501
3876.03017	0.78730
3874.10180	0.77911
3872.17343	0.77050
3870.24505	0.76650
3868.31668	0.77088
3866.38831	0.77555
3864.45994	0.77413
3862.53156	0.77798
3860.60319	0.78862
3858.67482	0.79249
3856.74644	0.78396
3854.81807	0.76516
3852.88970	0.75331
3850.96132	0.76962
3849.03295	0.79129
3847.10458	0.80122
3845.17620	0.79764
3843.24783	0.78581
3841.31946	0.77276
3839.39108	0.76324
3837.46271	0.76362
3835.53434	0.77320
3833.60596	0.78215
3831.67759	0.78883
3829.74922	0.79406
3827.82084	0.79500
3825.89247	0.79285
3823.96410	0.78662
3822.03572	0.77254
3820.10735	0.76570
3818.17898	0.77338
3816.25060	0.78183
3814.32223	0.79407
3812.39386	0.80712
3810.46548	0.80972
3808.53711	0.80045
3806.60874	0.78974
3804.68037	0.78457
3802.75199	0.77633
3800.82362	0.77170
3798.89525	0.77954
3796.96687	0.78847
3795.03850	0.79860
3793.11013	0.80981
3791.18175	0.81521
3789.25338	0.81476
3787.32501	0.81049
3785.39663	0.80496
3783.46826	0.80266
3781.53989	0.80001
3779.61151	0.79550
3777.68314	0.79857
3775.75477	0.80685
3773.82639	0.80844
3771.89802	0.80004
3769.96965	0.78918
3768.04127	0.78543
3766.11290	0.78702
3764.18453	0.79052
3762.25615	0.79070
3760.32778	0.78227
3758.39941	0.77429
3756.47103	0.77381
3754.54266	0.76943
3752.61429	0.75314
3750.68591	0.73727
3748.75754	0.73950
3746.82917	0.74476
3744.90080	0.74392
3742.97242	0.74969
3741.04405	0.75865
3739.11568	0.75657
3737.18730	0.74077
3735.25893	0.72450
3733.33056	0.72886
3731.40218	0.74890
3729.47381	0.76336
3727.54544	0.76359
3725.61706	0.75620
3723.68869	0.75166
3721.76032	0.75270
3719.83194	0.75734
3717.90357	0.76182
3715.97520	0.76041
3714.04682	0.74814
3712.11845	0.72862
3710.19008	0.72159
3708.26170	0.73339
3706.33333	0.74515
3704.40496	0.74483
3702.47658	0.73583
3700.54821	0.73114
3698.61984	0.73268
3696.69146	0.73077
3694.76309	0.72178
3692.83472	0.70486
3690.90635	0.68186
3688.97797	0.66716
3687.04960	0.67049
3685.12123	0.67652
3683.19285	0.67344
3681.26448	0.66011
3679.33611	0.63934
3677.40773	0.61300
3675.47936	0.58728
3673.55099	0.57684
3671.62261	0.57022
3669.69424	0.55703
3667.76587	0.55067
3665.83749	0.54903
3663.90912	0.54020
3661.98075	0.52442
3660.05237	0.50554
3658.12400	0.48394
3656.19563	0.46061
3654.26725	0.44034
3652.33888	0.41875
3650.41051	0.38858
3648.48213	0.36140
3646.55376	0.35190
3644.62539	0.34854
3642.69701	0.33999
3640.76864	0.32579
3638.84027	0.30958
3636.91189	0.29305
3634.98352	0.27607
3633.05515	0.25927
3631.12678	0.24239
3629.19840	0.22331
3627.27003	0.20860
3625.34166	0.20141
3623.41328	0.19320
3621.48491	0.18096
3619.55654	0.16641
3617.62816	0.15397
3615.69979	0.14487
3613.77142	0.13616
3611.84304	0.12763
3609.91467	0.11960
3607.98630	0.11145
3606.05792	0.10443
3604.12955	0.09874
3602.20118	0.09253
3600.27280	0.08578
3598.34443	0.07946
3596.41606	0.07341
3594.48768	0.06772
3592.55931	0.06298
3590.63094	0.05881
3588.70256	0.05383
3586.77419	0.04871
3584.84582	0.04524
3582.91744	0.04260
3580.98907	0.03970
3579.06070	0.03661
3577.13233	0.03376
3575.20395	0.03104
3573.27558	0.02849
3571.34721	0.02611
3569.41883	0.02352
3567.49046	0.02073
3565.56209	0.01849
3563.63371	0.01721
3561.70534	0.01611
3559.77697	0.01490
3557.84859	0.01368
3555.92022	0.01247
3553.99185	0.01133
3552.06347	0.01036
3550.13510	0.00962
3548.20673	0.00881
3546.27835	0.00793
3544.34998	0.00711
3542.42161	0.00632
3540.49323	0.00557
3538.56486	0.00479
3536.63649	0.00404
3534.70811	0.00344
3532.77974	0.00305
3530.85137	0.00261
3528.92299	0.00192
3526.99462	0.00137
3525.06625	0.00126
3523.13787	0.00125
3521.20950	0.00108
3519.28113	0.00096
3517.35276	0.00091
3515.42438	0.00070
3513.49601	0.00060
3511.56764	0.00064
3509.63926	0.00052
3507.71089	0.00061
3505.78252	0.00076
3503.85414	0.00076
3501.92577	0.00084
3499.99740	0.00074
3498.06902	0.00094
3496.14065	0.00119
3494.21228	0.00124
3492.28390	0.00113
3490.35553	0.00105
3488.42716	0.00094
3486.49878	0.00084
3484.57041	0.00084
3482.64204	0.00080
3480.71366	0.00074
3478.78529	0.00085
3476.85692	0.00112
3474.92854	0.00122
3473.00017	0.00116
3471.07180	0.00102
3469.14342	0.00084
3467.21505	0.00100
3465.28668	0.00129
3463.35831	0.00143
3461.42993	0.00121
3459.50156	0.00088
3457.57319	0.00074
3455.64481	0.00076
3453.71644	0.00084
3451.78807	0.00092
3449.85969	0.00095
3447.93132	0.00100
3446.00295	0.00108
3444.07457	0.00111
3442.14620	0.00097
3440.21783	0.00089
3438.28945	0.00094
3436.36108	0.00101
3434.43271	0.00105
3432.50433	0.00090
3430.57596	0.00084
3428.64759	0.00085
3426.71921	0.00070
3424.79084	0.00078
3422.86247	0.00082
3420.93409	0.00086
3419.00572	0.00102
3417.07735	0.00104
3415.14897	0.00093
3413.22060	0.00079
3411.29223	0.00059
3409.36385	0.00056
3407.43548	0.00071
3405.50711	0.00080
3403.57874	0.00084
3401.65036	0.00101
3399.72199	0.00126
3397.79362	0.00136
3395.86524	0.00122
3393.93687	0.00113
3392.00850	0.00121
3390.08012	0.00126
3388.15175	0.00104
3386.22338	0.00069
3384.29500	0.00048
3382.36663	0.00051
3380.43826	0.00051
3378.50988	0.00062
3376.58151	0.00073
3374.65314	0.00090
3372.72476	0.00122
3370.79639	0.00133
3368.86802	0.00116
3366.93964	0.00111
3365.01127	0.00106
3363.08290	0.00095
3361.15452	0.00096
3359.22615	0.00104
3357.29778	0.00099
3355.36940	0.00091
3353.44103	0.00099
3351.51266	0.00122
3349.58428	0.00123
3347.65591	0.00107
3345.72754	0.00107
3343.79917	0.00109
3341.87079	0.00100
3339.94242	0.00083
3338.01405	0.00071
3336.08567	0.00059
3334.15730	0.00066
3332.22893	0.00068
3330.30055	0.00060
3328.37218	0.00062
3326.44381	0.00091
3324.51543	0.00119
3322.58706	0.00108
3320.65869	0.00078
3318.73031	0.00086
3316.80194	0.00112
3314.87357	0.00127
3312.94519	0.00111
3311.01682	0.00100
3309.08845	0.00109
3307.16007	0.00119
3305.23170	0.00119
3303.30333	0.00096
3301.37495	0.00061
3299.44658	0.00054
3297.51821	0.00064
3295.58983	0.00093
3293.66146	0.00100
3291.73309	0.00098
3289.80472	0.00113
3287.87634	0.00126
3285.94797	0.00127
3284.01960	0.00118
3282.09122	0.00106
3280.16285	0.00105
3278.23448	0.00098
3276.30610	0.00087
3274.37773	0.00087
3272.44936	0.00089
3270.52098	0.00090
3268.59261	0.00096
3266.66424	0.00096
3264.73586	0.00088
3262.80749	0.00094
3260.87912	0.00117
3258.95074	0.00131
3257.02237	0.00115
3255.09400	0.00082
3253.16562	0.00053
3251.23725	0.00058
3249.30888	0.00072
3247.38050	0.00077
3245.45213	0.00078
3243.52376	0.00089
3241.59538	0.00094
3239.66701	0.00087
3237.73864	0.00100
3235.81026	0.00123
3233.88189	0.00122
3231.95352	0.00105
3230.02515	0.00094
3228.09677	0.00100
3226.16840	0.00119
3224.24003	0.00127
3222.31165	0.00118
3220.38328	0.00110
3218.45491	0.00102
3216.52653	0.00095
3214.59816	0.00090
3212.66979	0.00091
3210.74141	0.00096
3208.81304	0.00101
3206.88467	0.00100
3204.95629	0.00088
3203.02792	0.00090
3201.09955	0.00103
3199.17117	0.00125
3197.24280	0.00122
3195.31443	0.00094
3193.38605	0.00093
3191.45768	0.00116
3189.52931	0.00126
3187.60093	0.00122
3185.67256	0.00114
3183.74419	0.00116
3181.81581	0.00117
3179.88744	0.00097
3177.95907	0.00068
3176.03070	0.00056
3174.10232	0.00060
3172.17395	0.00070
3170.24558	0.00079
3168.31720	0.00086
3166.38883	0.00093
3164.46046	0.00105
3162.53208	0.00111
3160.60371	0.00101
3158.67534	0.00084
3156.74696	0.00074
3154.81859	0.00077
3152.89022	0.00078
3150.96184	0.00084
3149.03347	0.00106
3147.10510	0.00135
3145.17672	0.00155
3143.24835	0.00154
3141.31998	0.00131
3139.39160	0.00100
3137.46323	0.00077
3135.53486	0.00068
3133.60648	0.00069
3131.67811	0.00071
3129.74974	0.00071
3127.82136	0.00077
3125.89299	0.00097
3123.96462	0.00120
3122.03624	0.00127
3120.10787	0.00107
3118.17950	0.00082
3116.25113	0.00073
3114.32275	0.00086
3112.39438	0.00102
3110.46601	0.00100
3108.53763	0.00097
3106.60926	0.00104
3104.68089	0.00098
3102.75251	0.00088
3100.82414	0.00088
3098.89577	0.00079
3096.96739	0.00067
3095.03902	0.00078
3093.11065	0.00093
3091.18227	0.00080
3089.25390	0.00057
3087.32553	0.00051
3085.39715	0.00069
3083.46878	0.00095
3081.54041	0.00109
3079.61203	0.00104
3077.68366	0.00094
3075.75529	0.00096
3073.82691	0.00099
3071.89854	0.00108
3069.97017	0.00119
3068.04179	0.00109
3066.11342	0.00092
3064.18505	0.00087
3062.25668	0.00092
3060.32830	0.00101
3058.39993	0.00111
3056.47156	0.00116
3054.54318	0.00110
3052.61481	0.00094
3050.68644	0.00096
3048.75806	0.00095
3046.82969	0.00083
3044.90132	0.00084
3042.97294	0.00081
3041.04457	0.00069
3039.11620	0.00088
3037.18782	0.00115
3035.25945	0.00119
3033.33108	0.00101
3031.40270	0.00078
3029.47433	0.00071
3027.54596	0.00075
3025.61758	0.00081
3023.68921	0.00089
3021.76084	0.00098
3019.83246	0.00113
3017.90409	0.00134
3015.97572	0.00136
3014.04734	0.00110
3012.11897	0.00081
3010.19060	0.00074
3008.26222	0.00083
3006.33385	0.00087
3004.40548	0.00078
3002.47711	0.00082
3000.54873	0.00110
2998.62036	0.00130
2996.69199	0.00118
2994.76361	0.00107
2992.83524	0.00119
2990.90687	0.00128
2988.97849	0.00116
2987.05012	0.00101
2985.12175	0.00101
2983.19337	0.00101
2981.26500	0.00093
2979.33663	0.00093
2977.40825	0.00091
2975.47988	0.00081
2973.55151	0.00090
2971.62313	0.00110
2969.69476	0.00137
2967.76639	0.00141
2965.83801	0.00137
2963.90964	0.00126
2961.98127	0.00114
2960.05289	0.00128
2958.12452	0.00156
2956.19615	0.00171
2954.26777	0.00166
2952.33940	0.00154
2950.41103	0.00136
2948.48266	0.00106
2946.55428	0.00073
2944.62591	0.00057
2942.69754	0.00075
2940.76916	0.00098
2938.84079	0.00117
2936.91242	0.00156
2934.98404	0.00185
2933.05567	0.00153
2931.12730	0.00114
2929.19892	0.00117
2927.27055	0.00133
2925.34218	0.00140
2923.41380	0.00137
2921.48543	0.00142
2919.55706	0.00136
2917.62868	0.00129
2915.70031	0.00126
2913.77194	0.00111
2911.84356	0.00089
2909.91519	0.00076
2907.98682	0.00075
2906.05844	0.00068
2904.13007	0.00061
2902.20170	0.00077
2900.27332	0.00095
2898.34495	0.00101
2896.41658	0.00095
2894.48820	0.00092
2892.55983	0.00087
2890.63146	0.00076
2888.70309	0.00077
2886.77471	0.00090
2884.84634	0.00103
2882.91797	0.00102
2880.98959	0.00088
2879.06122	0.00083
2877.13285	0.00088
2875.20447	0.00101
2873.27610	0.00116
2871.34773	0.00119
2869.41935	0.00112
2867.49098	0.00109
2865.56261	0.00103
2863.63423	0.00081
2861.70586	0.00062
2859.77749	0.00068
2857.84911	0.00087
2855.92074	0.00082
2853.99237	0.00063
2852.06399	0.00044
2850.13562	0.00035
2848.20725	0.00053
2846.27887	0.00049
2844.35050	0.00038
2842.42213	0.00022
2840.49375	0.00028
2838.56538	0.00044
2836.63701	0.00048
2834.70863	0.00037
2832.78026	0.00032
2830.85189	0.00043
2828.92352	0.00049
2826.99514	0.00049
2825.06677	0.00038
2823.13840	0.00023
2821.21002	0.00019
2819.28165	0.00029
2817.35328	0.00038
2815.42490	0.00053
2813.49653	0.00073
2811.56816	0.00065
2809.63978	0.00042
2807.71141	0.00023
2805.78304	0.00024
2803.85466	0.00039
2801.92629	0.00049
2799.99792	0.00048
2798.06954	0.00036
2796.14117	0.00028
2794.21280	0.00037
2792.28442	0.00025
2790.35605	0.00027
2788.42768	0.00022
2786.49930	0.00023
2784.57093	0.00026
2782.64256	0.00021
2780.71418	0.00024
2778.78581	0.00037
2776.85744	0.00037
2774.92907	0.00035
2773.00069	0.00043
2771.07232	0.00050
2769.14395	0.00053
2767.21557	0.00060
2765.28720	0.00067
2763.35883	0.00069
2761.43045	0.00072
2759.50208	0.00078
2757.57371	0.00083
2755.64533	0.00087
2753.71696	0.00083
2751.78859	0.00075
2749.86021	0.00081
2747.93184	0.00095
2746.00347	0.00103
2744.07509	0.00108
2742.14672	0.00120
2740.21835	0.00140
2738.28997	0.00162
2736.36160	0.00184
2734.43323	0.00202
2732.50485	0.00214
2730.57648	0.00218
2728.64811	0.00223
2726.71973	0.00232
2724.79136	0.00235
2722.86299	0.00240
2720.93461	0.00251
2719.00624	0.00255
2717.07787	0.00251
2715.14950	0.00245
2713.22112	0.00244
2711.29275	0.00254
2709.36438	0.00267
2707.43600	0.00277
2705.50763	0.00289
2703.57926	0.00307
2701.65088	0.00328
2699.72251	0.00344
2697.79414	0.00348
2695.86576	0.00343
2693.93739	0.00340
2692.00902	0.00344
2690.08064	0.00351
2688.15227	0.00362
2686.22390	0.00371
2684.29552	0.00370
2682.36715	0.00370
2680.43878	0.00384
2678.51040	0.00407
2676.58203	0.00426
2674.65366	0.00445
2672.72528	0.00463
2670.79691	0.00473
2668.86854	0.00481
2666.94016	0.00496
2665.01179	0.00524
2663.08342	0.00562
2661.15505	0.00592
2659.22667	0.00607
2657.29830	0.00619
2655.36993	0.00640
2653.44155	0.00666
2651.51318	0.00683
2649.58481	0.00692
2647.65643	0.00708
2645.72806	0.00738
2643.79969	0.00768
2641.87131	0.00790
2639.94294	0.00806
2638.01457	0.00824
2636.08619	0.00851
2634.15782	0.00879
2632.22945	0.00902
2630.30107	0.00931
2628.37270	0.00967
2626.44433	0.00997
2624.51595	0.01025
2622.58758	0.01055
2620.65921	0.01086
2618.73083	0.01116
2616.80246	0.01149
2614.87409	0.01188
2612.94571	0.01222
2611.01734	0.01253
2609.08897	0.01291
2607.16059	0.01338
2605.23222	0.01388
2603.30385	0.01438
2601.37548	0.01487
2599.44710	0.01536
2597.51873	0.01587
2595.59036	0.01634
2593.66198	0.01677
2591.73361	0.01725
2589.80524	0.01779
2587.87686	0.01834
2585.94849	0.01895
2584.02012	0.01961
2582.09174	0.02023
2580.16337	0.02076
2578.23500	0.02123
2576.30662	0.02172
2574.37825	0.02230
2572.44988	0.02291
2570.52150	0.02347
2568.59313	0.02400
2566.66476	0.02460
2564.73638	0.02526
2562.80801	0.02589
2560.87964	0.02653
2558.95126	0.02717
2557.02289	0.02782
2555.09452	0.02843
2553.16614	0.02897
2551.23777	0.02956
2549.30940	0.03030
2547.38103	0.03098
2545.45265	0.03146
2543.52428	0.03194
2541.59591	0.03254
2539.66753	0.03316
2537.73916	0.03376
2535.81079	0.03432
2533.88241	0.03483
2531.95404	0.03537
2530.02567	0.03600
2528.09729	0.03664
2526.16892	0.03729
2524.24055	0.03809
2522.31217	0.03898
2520.38380	0.03975
2518.45543	0.04038
2516.52705	0.04110
2514.59868	0.04198
2512.67031	0.04285
2510.74193	0.04356
2508.81356	0.04421
2506.88519	0.04495
2504.95681	0.04574
2503.02844	0.04651
2501.10007	0.04725
2499.17169	0.04797
2497.24332	0.04869
2495.31495	0.04942
2493.38657	0.05018
2491.45820	0.05092
2489.52983	0.05162
2487.60146	0.05234
2485.67308	0.05314
2483.74471	0.05399
2481.81634	0.05485
2479.88796	0.05573
2477.95959	0.05663
2476.03122	0.05760
2474.10284	0.05862
2472.17447	0.05957
2470.24610	0.06049
2468.31772	0.06150
2466.38935	0.06266
2464.46098	0.06382
2462.53260	0.06495
2460.60423	0.06621
2458.67586	0.06756
2456.74748	0.06882
2454.81911	0.07000
2452.89074	0.07122
2450.96236	0.07251
2449.03399	0.07381
2447.10562	0.07515
2445.17724	0.07657
2443.24887	0.07794
2441.32050	0.07916
2439.39212	0.08040
2437.46375	0.08181
2435.53538	0.08320
2433.60700	0.08441
2431.67863	0.08556
2429.75026	0.08683
2427.82189	0.08828
2425.89351	0.08977
2423.96514	0.09112
2422.03677	0.09237
2420.10839	0.09363
2418.18002	0.09497
2416.25165	0.09640
2414.32327	0.09790
2412.39490	0.09936
2410.46653	0.10074
2408.53815	0.10221
2406.60978	0.10384
2404.68141	0.10552
2402.75303	0.10718
2400.82466	0.10881
2398.89629	0.11047
2396.96791	0.11220
2395.03954	0.11400
2393.11117	0.11579
2391.18279	0.11752
2389.25442	0.11924
2387.32605	0.12087
2385.39767	0.12225
2383.46930	0.12345
2381.54093	0.12466
2379.61255	0.12579
2377.68418	0.12677
2375.75581	0.12765
2373.82744	0.12850
2371.89906	0.12935
2369.97069	0.13011
2368.04232	0.13054
2366.11394	0.13067
2364.18557	0.13124
2362.25720	0.13271
2360.32882	0.13463
2358.40045	0.13659
2356.47208	0.13886
2354.54370	0.14162
2352.61533	0.14451
2350.68696	0.14705
2348.75858	0.14875
2346.83021	0.14955
2344.90184	0.15001
2342.97346	0.15094
2341.04509	0.15226
2339.11672	0.15358
2337.18834	0.15503
2335.25997	0.15652
2333.33160	0.15790
2331.40322	0.15923
2329.47485	0.16060
2327.54648	0.16209
2325.61810	0.16378
2323.68973	0.16567
2321.76136	0.16776
2319.83298	0.16996
2317.90461	0.17217
2315.97624	0.17444
2314.04787	0.17671
2312.11949	0.17888
2310.19112	0.18099
2308.26275	0.18318
2306.33437	0.18550
2304.40600	0.18797
2302.47763	0.19044
2300.54925	0.19273
2298.62088	0.19490
2296.69251	0.19713
2294.76413	0.19934
2292.83576	0.20144
2290.90739	0.20351
2288.97901	0.20555
2287.05064	0.20752
2285.12227	0.20936
2283.19389	0.21112
2281.26552	0.21289
2279.33715	0.21463
2277.40877	0.21622
2275.48040	0.21770
2273.55203	0.21923
2271.62365	0.22080
2269.69528	0.22231
2267.76691	0.22384
2265.83853	0.22547
2263.91016	0.22709
2261.98179	0.22863
2260.05342	0.23018
2258.12504	0.23184
2256.19667	0.23357
2254.26830	0.23526
2252.33992	0.23687
2250.41155	0.23848
2248.48318	0.24010
2246.55480	0.24171
2244.62643	0.24329
2242.69806	0.24474
2240.76968	0.24601
2238.84131	0.24721
2236.91294	0.24842
2234.98456	0.24960
2233.05619	0.25076
2231.12782	0.25188
2229.19944	0.25295
2227.27107	0.25399
2225.34270	0.25505
2223.41432	0.25613
2221.48595	0.25723
2219.55758	0.25833
2217.62920	0.25940
2215.70083	0.26045
2213.77246	0.26156
2211.84408	0.26274
2209.91571	0.26389
2207.98734	0.26502
2206.05896	0.26612
2204.13059	0.26719
2202.20222	0.26825
2200.27385	0.26938
2198.34547	0.27053
2196.41710	0.27160
2194.48873	0.27261
2192.56035	0.27360
2190.63198	0.27457
2188.70361	0.27543
2186.77523	0.27616
2184.84686	0.27683
2182.91849	0.27748
2180.99011	0.27817
2179.06174	0.27885
2177.13337	0.27942
2175.20499	0.27986
2173.27662	0.28026
2171.34825	0.28069
2169.41987	0.28102
2167.49150	0.28124
2165.56313	0.28146
2163.63475	0.28176
2161.70638	0.28208
2159.77801	0.28236
2157.84963	0.28271
2155.92126	0.28315
2153.99289	0.28356
2152.06451	0.28390
2150.13614	0.28429
2148.20777	0.28473
2146.27940	0.28515
2144.35102	0.28557
2142.42265	0.28605
2140.49428	0.28663
2138.56590	0.28727
2136.63753	0.28787
2134.70916	0.28846
2132.78078	0.28922
2130.85241	0.29013
2128.92404	0.29107
2126.99566	0.29201
2125.06729	0.29304
2123.13892	0.29421
2121.21054	0.29540
2119.28217	0.29650
2117.35380	0.29753
2115.42542	0.29860
2113.49705	0.29979
2111.56868	0.30105
2109.64030	0.30229
2107.71193	0.30348
2105.78356	0.30465
2103.85518	0.30576
2101.92681	0.30677
2099.99844	0.30775
2098.07006	0.30883
2096.14169	0.30994
2094.21332	0.31090
2092.28494	0.31169
2090.35657	0.31249
2088.42820	0.31338
2086.49983	0.31422
2084.57145	0.31491
2082.64308	0.31551
2080.71471	0.31603
2078.78633	0.31642
2076.85796	0.31677
2074.92959	0.31701
2073.00121	0.31716
2071.07284	0.31733
2069.14447	0.31748
2067.21609	0.31746
2065.28772	0.31743
2063.35935	0.31770
2061.43097	0.31817
2059.50260	0.31863
2057.57423	0.31914
2055.64585	0.31970
2053.71748	0.32029
2051.78911	0.32093
2049.86073	0.32162
2047.93236	0.32236
2046.00399	0.32313
2044.07561	0.32380
2042.14724	0.32442
2040.21887	0.32530
2038.29049	0.32644
2036.36212	0.32746
2034.43375	0.32817
2032.50538	0.32863
2030.57700	0.32900
2028.64863	0.32934
2026.72026	0.32964
2024.79188	0.32990
2022.86351	0.33010
2020.93514	0.32996
2019.00676	0.32936
2017.07839	0.32901
2015.15002	0.32959
2013.22164	0.33051
2011.29327	0.33103
2009.36490	0.33124
2007.43652	0.33148
2005.50815	0.33189
2003.57978	0.33229
2001.65140	0.33260
1999.72303	0.33292
1997.79466	0.33332
1995.86628	0.33329
1993.93791	0.33231
1992.00954	0.33140
1990.08116	0.33194
1988.15279	0.33320
1986.22442	0.33419
1984.29604	0.33482
1982.36767	0.33512
1980.43930	0.33524
1978.51092	0.33537
1976.58255	0.33559
1974.65418	0.33584
1972.72581	0.33599
1970.79743	0.33568
1968.86906	0.33471
1966.94069	0.33413
1965.01231	0.33493
1963.08394	0.33606
1961.15557	0.33655
1959.22719	0.33677
1957.29882	0.33689
1955.37045	0.33691
1953.44207	0.33708
1951.51370	0.33734
1949.58533	0.33733
1947.65695	0.33678
1945.72858	0.33528
1943.80021	0.33316
1941.87183	0.33276
1939.94346	0.33478
1938.01509	0.33641
1936.08671	0.33644
1934.15834	0.33596
1932.22997	0.33568
1930.30159	0.33554
1928.37322	0.33521
1926.44485	0.33413
1924.51647	0.33199
1922.58810	0.33035
1920.65973	0.32987
1918.73135	0.32930
1916.80298	0.32997
1914.87461	0.33222
1912.94624	0.33312
1911.01786	0.33205
1909.08949	0.33123
1907.16112	0.33187
1905.23274	0.33287
1903.30437	0.33325
1901.37600	0.33322
1899.44762	0.33275
1897.51925	0.33141
1895.59088	0.32982
1893.66250	0.32887
1891.73413	0.32736
1889.80576	0.32532
1887.87738	0.32531
1885.94901	0.32650
1884.02064	0.32671
1882.09226	0.32622
1880.16389	0.32545
1878.23552	0.32444
1876.30714	0.32342
1874.37877	0.32204
1872.45040	0.31875
1870.52202	0.31261
1868.59365	0.30742
1866.66528	0.30812
1864.73690	0.31142
1862.80853	0.31251
1860.88016	0.31150
1858.95179	0.31009
1857.02341	0.30891
1855.09504	0.30779
1853.16667	0.30648
1851.23829	0.30462
1849.30992	0.30167
1847.38155	0.29740
1845.45317	0.29254
1843.52480	0.29098
1841.59643	0.29399
1839.66805	0.29617
1837.73968	0.29556
1835.81131	0.29445
1833.88293	0.29287
1831.95456	0.28858
1830.02619	0.28347
1828.09781	0.28173
1826.16944	0.28146
1824.24107	0.28102
1822.31269	0.28143
1820.38432	0.28080
1818.45595	0.27805
1816.52757	0.27444
1814.59920	0.27004
1812.67083	0.26404
1810.74245	0.25766
1808.81408	0.25292
1806.88571	0.24878
1804.95733	0.24295
1803.02896	0.23468
1801.10059	0.22535
1799.17222	0.21736
1797.24384	0.21032
1795.31547	0.20178
1793.38710	0.19082
1791.45872	0.18090
1789.53035	0.17514
1787.60198	0.16977
1785.67360	0.16204
1783.74523	0.15344
1781.81686	0.14522
1779.88848	0.13766
1777.96011	0.13113
1776.03174	0.12447
1774.10336	0.11618
1772.17499	0.10731
1770.24662	0.10093
1768.31824	0.09638
1766.38987	0.09116
1764.46150	0.08467
1762.53312	0.07634
1760.60475	0.06731
1758.67638	0.05911
1756.74800	0.05056
1754.81963	0.04197
1752.89126	0.03381
1750.96288	0.02521
1749.03451	0.01731
1747.10614	0.01159
1745.17777	0.00742
1743.24939	0.00419
1741.32102	0.00195
1739.39265	0.00064
1737.46427	0.00042
1735.53590	0.00077
1733.60753	0.00092
1731.67915	0.00079
1729.75078	0.00072
1727.82241	0.00073
1725.89403	0.00084
1723.96566	0.00089
1722.03729	0.00088
1720.10891	0.00093
1718.18054	0.00106
1716.25217	0.00116
1714.32379	0.00110
1712.39542	0.00105
1710.46705	0.00104
1708.53867	0.00113
1706.61030	0.00125
1704.68193	0.00127
1702.75355	0.00131
1700.82518	0.00135
1698.89681	0.00131
1696.96843	0.00125
1695.04006	0.00123
1693.11169	0.00107
1691.18331	0.00095
1689.25494	0.00104
1687.32657	0.00123
1685.39820	0.00139
1683.46982	0.00130
1681.54145	0.00110
1679.61308	0.00104
1677.68470	0.00106
1675.75633	0.00102
1673.82796	0.00086
1671.89958	0.00088
1669.97121	0.00102
1668.04284	0.00098
1666.11446	0.00083
1664.18609	0.00076
1662.25772	0.00078
1660.32934	0.00080
1658.40097	0.00087
1656.47260	0.00097
1654.54422	0.00104
1652.61585	0.00098
1650.68748	0.00088
1648.75910	0.00088
1646.83073	0.00094
1644.90236	0.00085
1642.97398	0.00066
1641.04561	0.00063
1639.11724	0.00076
1637.18886	0.00086
1635.26049	0.00089
1633.33212	0.00092
1631.40375	0.00094
1629.47537	0.00089
1627.54700	0.00079
1625.61863	0.00078
1623.69025	0.00087
1621.76188	0.00088
1619.83351	0.00078
1617.90513	0.00081
1615.97676	0.00099
1614.04839	0.00101
1612.12001	0.00081
1610.19164	0.00064
1608.26327	0.00058
1606.33489	0.00057
1604.40652	0.00053
1602.47815	0.00050
1600.54977	0.00050
1598.62140	0.00050
1596.69303	0.00051
1594.76465	0.00054
1592.83628	0.00050
1590.90791	0.00047
1588.97953	0.00056
1587.05116	0.00066
1585.12279	0.00067
1583.19441	0.00071
1581.26604	0.00083
1579.33767	0.00097
1577.40929	0.00111
1575.48092	0.00115
1573.55255	0.00101
1571.62418	0.00080
1569.69580	0.00067
1567.76743	0.00068
1565.83906	0.00070
1563.91068	0.00073
1561.98231	0.00084
1560.05394	0.00113
1558.12556	0.00123
1556.19719	0.00103
1554.26882	0.00086
1552.34044	0.00077
1550.41207	0.00067
1548.48370	0.00055
1546.55532	0.00055
1544.62695	0.00076
1542.69858	0.00110
1540.77020	0.00139
1538.84183	0.00139
1536.91346	0.00119
1534.98508	0.00104
1533.05671	0.00088
1531.12834	0.00081
1529.19996	0.00092
1527.27159	0.00100
1525.34322	0.00088
1523.41484	0.00077
1521.48647	0.00078
1519.55810	0.00078
1517.62972	0.00069
1515.70135	0.00067
1513.77298	0.00069
1511.84461	0.00072
1509.91623	0.00084
1507.98786	0.00102
1506.05949	0.00110
1504.13111	0.00085
1502.20274	0.00066
1500.27437	0.00062
1498.34599	0.00057
1496.41762	0.00048
1494.48925	0.00034
1492.56087	0.00037
1490.63250	0.00055
1488.70413	0.00064
1486.77575	0.00044
1484.84738	0.00037
1482.91901	0.00056
1480.99063	0.00067
1479.06226	0.00074
1477.13389	0.00089
1475.20551	0.00101
1473.27714	0.00093
1471.34877	0.00078
1469.42039	0.00075
1467.49202	0.00079
1465.56365	0.00075
1463.63527	0.00065
1461.70690	0.00071
1459.77853	0.00101
1457.85016	0.00138
1455.92178	0.00132
1453.99341	0.00098
1452.06504	0.00080
1450.13666	0.00075
1448.20829	0.00071
1446.27992	0.00072
1444.35154	0.00075
1442.42317	0.00079
1440.49480	0.00088
1438.56642	0.00097
1436.63805	0.00106
1434.70968	0.00113
1432.78130	0.00106
1430.85293	0.00089
1428.92456	0.00073
1426.99618	0.00069
1425.06781	0.00071
1423.13944	0.00073
1421.21106	0.00075
1419.28269	0.00082
1417.35432	0.00088
1415.42594	0.00088
1413.49757	0.00080
1411.56920	0.00072
1409.64082	0.00074
1407.71245	0.00081
1405.78408	0.00075
1403.85570	0.00064
1401.92733	0.00072
1399.99896	0.00093
1398.07059	0.00104
1396.14221	0.00110
1394.21384	0.00109
1392.28547	0.00094
1390.35709	0.00088
1388.42872	0.00102
1386.50035	0.00116
1384.57197	0.00111
1382.64360	0.00098
1380.71523	0.00090
1378.78685	0.00083
1376.85848	0.00077
1374.93011	0.00088
1373.00173	0.00112
1371.07336	0.00124
1369.14499	0.00117
1367.21661	0.00112
1365.28824	0.00114
1363.35987	0.00108
1361.43149	0.00097
1359.50312	0.00089
1357.57475	0.00087
1355.64637	0.00102
1353.71800	0.00115
1351.78963	0.00106
1349.86125	0.00083
1347.93288	0.00071
1346.00451	0.00074
1344.07614	0.00075
1342.14776	0.00078
1340.21939	0.00087
1338.29102	0.00095
1336.36264	0.00101
1334.43427	0.00105
1332.50590	0.00107
1330.57752	0.00102
1328.64915	0.00099
1326.72078	0.00090
1324.79240	0.00074
1322.86403	0.00077
1320.93566	0.00096
1319.00728	0.00108
1317.07891	0.00108
1315.15054	0.00108
1313.22216	0.00111
1311.29379	0.00108
1309.36542	0.00103
1307.43704	0.00099
1305.50867	0.00093
1303.58030	0.00091
1301.65192	0.00096
1299.72355	0.00100
1297.79518	0.00101
1295.86680	0.00104
1293.93843	0.00110
1292.01006	0.00114
1290.08168	0.00120
1288.15331	0.00121
1286.22494	0.00106
1284.29657	0.00093
1282.36819	0.00103
1280.43982	0.00122
1278.51145	0.00125
1276.58307	0.00123
1274.65470	0.00116
1272.72633	0.00100
1270.79795	0.00096
1268.86958	0.00118
1266.94121	0.00133
1265.01283	0.00122
1263.08446	0.00105
1261.15609	0.00104
1259.22771	0.00117
1257.29934	0.00133
1255.37097	0.00142
1253.44259	0.00150
1251.51422	0.00165
1249.58585	0.00178
1247.65747	0.00185
1245.72910	0.00190
1243.80073	0.00187
1241.87235	0.00174
1239.94398	0.00175
1238.01561	0.00190
1236.08723	0.00201
1234.15886	0.00215
1232.23049	0.00233
1230.30212	0.00233
1228.37374	0.00218
1226.44537	0.00226
1224.51700	0.00245
1222.58862	0.00272
1220.66025	0.00297
1218.73188	0.00310
1216.80350	0.00314
1214.87513	0.00297
1212.94676	0.00266
1211.01838	0.00252
1209.09001	0.00269
1207.16164	0.00293
1205.23326	0.00298
1203.30489	0.00318
1201.37652	0.00382
1199.44814	0.00465
1197.51977	0.00549
1195.59140	0.00638
1193.66302	0.00727
1191.73465	0.00805
1189.80628	0.00843
1187.87790	0.00834
1185.94953	0.00794
1184.02116	0.00740
1182.09278	0.00686
1180.16441	0.00637
1178.23604	0.00585
1176.30766	0.00519
1174.37929	0.00433
1172.45092	0.00345
1170.52255	0.00283
1168.59417	0.00229
1166.66580	0.00186
1164.73743	0.00182
1162.80905	0.00194
1160.88068	0.00180
1158.95231	0.00172
1157.02393	0.00194
1155.09556	0.00198
1153.16719	0.00198
1151.23881	0.00221
1149.31044	0.00279
1147.38207	0.00344
1145.45369	0.00387
1143.52532	0.00406
1141.59695	0.00421
1139.66857	0.00426
1137.74020	0.00399
1135.81183	0.00336
1133.88345	0.00263
1131.95508	0.00212
1130.02671	0.00200
1128.09833	0.00183
1126.16996	0.00160
1124.24159	0.00194
1122.31321	0.00233
1120.38484	0.00231
1118.45647	0.00224
1116.52809	0.00223
1114.59972	0.00213
1112.67135	0.00187
1110.74298	0.00168
1108.81460	0.00167
1106.88623	0.00187
1104.95786	0.00212
1103.02948	0.00213
1101.10111	0.00195
1099.17274	0.00179
1097.24436	0.00179
1095.31599	0.00191
1093.38762	0.00211
1091.45924	0.00223
1089.53087	0.00214
1087.60250	0.00205
1085.67412	0.00212
1083.74575	0.00225
1081.81738	0.00223
1079.88900	0.00220
1077.96063	0.00238
1076.03226	0.00246
1074.10388	0.00225
1072.17551	0.00220
1070.24714	0.00239
1068.31876	0.00235
1066.39039	0.00226
1064.46202	0.00248
1062.53364	0.00280
1060.60527	0.00295
1058.67690	0.00286
1056.74853	0.00262
1054.82015	0.00236
1052.89178	0.00232
1050.96341	0.00248
1049.03503	0.00246
1047.10666	0.00223
1045.17829	0.00209
1043.24991	0.00200
1041.32154	0.00191
1039.39317	0.00198
1037.46479	0.00207
1035.53642	0.00198
1033.60805	0.00201
1031.67967	0.00217
1029.75130	0.00237
1027.82293	0.00253
1025.89455	0.00262
1023.96618	0.00255
1022.03781	0.00224
1020.10943	0.00204
1018.18106	0.00208
1016.25269	0.00212
1014.32431	0.00218
1012.39594	0.00225
1010.46757	0.00197
1008.53919	0.00188
1006.61082	0.00259
1004.68245	0.00358
1002.75407	0.00462
1000.82570	0.00563
998.89733	0.00667
996.96896	0.00782
995.04058	0.00902
993.11221	0.01019
991.18384	0.01127
989.25546	0.01232
987.32709	0.01343
985.39872	0.01427
983.47034	0.01468
981.54197	0.01481
979.61360	0.01466
977.68522	0.01441
975.75685	0.01468
973.82848	0.01598
971.90010	0.01841
969.97173	0.02164
968.04336	0.02513
966.11498	0.02828
964.18661	0.03037
962.25824	0.03032
960.32986	0.02719
958.40149	0.02179
956.47312	0.01698
954.54474	0.01494
952.61637	0.01583
950.68800	0.01888
948.75962	0.02297
946.83125	0.02698
944.90288	0.03037
942.97451	0.03332
941.04613	0.03599
939.11776	0.03831
937.18939	0.04025
935.26101	0.04165
933.33264	0.04227
931.40427	0.04249
929.47589	0.04248
927.54752	0.04170
925.61915	0.04022
923.69077	0.03883
921.76240	0.03798
919.83403	0.03762
917.90565	0.03754
915.97728	0.03745
914.04891	0.03729
912.12053	0.03695
910.19216	0.03592
908.26379	0.03399
906.33541	0.03123
904.40704	0.02781
902.47867	0.02462
900.55029	0.02219
898.62192	0.02030
896.69355	0.01906
894.76517	0.01833
892.83680	0.01759
890.90843	0.01706
888.98005	0.01687
887.05168	0.01661
885.12331	0.01617
883.19494	0.01560
881.26656	0.01502
879.33819	0.01474
877.40982	0.01466
875.48144	0.01469
873.55307	0.01499
871.62470	0.01518
869.69632	0.01484
867.76795	0.01443
865.83958	0.01433
863.91120	0.01417
861.98283	0.01392
860.05446	0.01374
858.12608	0.01332
856.19771	0.01260
854.26934	0.01197
852.34096	0.01136
850.41259	0.01071
848.48422	0.01042
846.55584	0.01047
844.62747	0.01060
842.69910	0.01058
840.77072	0.01011
838.84235	0.00941
836.91398	0.00890
834.98560	0.00851
833.05723	0.00831
831.12886	0.00839
829.20049	0.00828
827.27211	0.00783
825.34374	0.00735
823.41537	0.00706
821.48699	0.00685
819.55862	0.00659
817.63025	0.00638
815.70187	0.00625
813.77350	0.00614
811.84513	0.00629
809.91675	0.00649
807.98838	0.00618
806.06001	0.00534
804.13163	0.00470
802.20326	0.00447
800.27489	0.00437
798.34651	0.00439
796.41814	0.00432
794.48977	0.00397
792.56139	0.00384
790.63302	0.00410
788.70465	0.00410
786.77627	0.00373
784.84790	0.00359
782.91953	0.00372
780.99115	0.00366
779.06278	0.00342
777.13441	0.00322
775.20603	0.00323
773.27766	0.00339
771.34929	0.00347
769.42092	0.00332
767.49254	0.00330
765.56417	0.00355
763.63580	0.00358
761.70742	0.00308
759.77905	0.00271
757.85068	0.00286
755.92230	0.00298
753.99393	0.00290
752.06556	0.00290
750.13718	0.00323
748.20881	0.00349
746.28044	0.00338
744.35206	0.00322
742.42369	0.00336
740.49532	0.00360
738.56694	0.00383
736.63857	0.00396
734.71020	0.00388
732.78182	0.00389
730.85345	0.00435
728.92508	0.00491
726.99670	0.00498
725.06833	0.00455
723.13996	0.00397
721.21158	0.00348
719.28321	0.00331
717.35484	0.00327
715.42647	0.00309
713.49809	0.00327
711.56972	0.00402
709.64135	0.00494
707.71297	0.00561
705.78460	0.00574
703.85623	0.00558
701.92785	0.00554
699.99948	0.00549
698.07111	0.00506
696.14273	0.00463
694.21436	0.00476
692.28599	0.00522
690.35761	0.00578
688.42924	0.00623
686.50087	0.00601
684.57249	0.00566
682.64412	0.00602
680.71575	0.00617
678.78737	0.00547
676.85900	0.00455
674.93063	0.00418
673.00225	0.00468
671.07388	0.00674
669.14551	0.01014
667.21713	0.01036
665.28876	0.00790
663.36039	0.00747
661.43201	0.00798
659.50364	0.00786
657.57527	0.00752
655.64690	0.00793
653.71852	0.00826
651.79015	0.00808
649.86178	0.00791
647.93340	0.00823
646.00503	0.00892
644.07666	0.00937
642.14828	0.00930
640.21991	0.00924
638.29154	0.00968
636.36316	0.00968
634.43479	0.00897
632.50642	0.00846
630.57804	0.00759
628.64967	0.00733
626.72130	0.00886
624.79292	0.01110
622.86455	0.01248
620.93618	0.01249
619.00780	0.01265
617.07943	0.01362
615.15106	0.01419
613.22268	0.01387
611.29431	0.01385
609.36594	0.01492
607.43756	0.01659
605.50919	0.01788
603.58082	0.01774
601.65244	0.01583
599.72407	0.01459
