3997.51769	0.57529
3995.58931	0.57604
3993.66094	0.57674
3991.73257	0.57734
3989.80419	0.57747
3987.87582	0.57730
3985.94745	0.57752
3984.01907	0.57771
3982.09070	0.57727
3980.16233	0.57694
3978.23396	0.57736
3976.30558	0.57810
3974.37721	0.57843
3972.44884	0.57826
3970.52046	0.57810
3968.59209	0.57769
3966.66372	0.57689
3964.73534	0.57673
3962.80697	0.57749
3960.87860	0.57835
3958.95022	0.57900
3957.02185	0.57960
3955.09348	0.58026
3953.16510	0.58124
3951.23673	0.58249
3949.30836	0.58323
3947.37998	0.58299
3945.45161	0.58280
3943.52324	0.58329
3941.59486	0.58337
3939.66649	0.58274
3937.73812	0.58250
3935.80974	0.58346
3933.88137	0.58565
3931.95300	0.58750
3930.02462	0.58730
3928.09625	0.58677
3926.16788	0.58794
3924.23950	0.58919
3922.31113	0.58913
3920.38276	0.58926
3918.45439	0.58999
3916.52601	0.59004
3914.59764	0.58887
3912.66927	0.58773
3910.74089	0.58797
3908.81252	0.58996
3906.88415	0.59375
3904.95577	0.59882
3903.02740	0.60241
3901.09903	0.60226
3899.17065	0.59912
3897.24228	0.59572
3895.31391	0.59528
3893.38553	0.59795
3891.45716	0.59993
3889.52879	0.59899
3887.60041	0.59906
3885.67204	0.60113
3883.74367	0.60278
3881.81529	0.60436
3879.88692	0.60435
3877.95855	0.60193
3876.03017	0.60173
3874.10180	0.60470
3872.17343	0.60841
3870.24505	0.61058
3868.31668	0.60934
3866.38831	0.60871
3864.45994	0.61102
3862.53156	0.61145
3860.60319	0.60885
3858.67482	0.60761
3856.74644	0.61008
3854.81807	0.61677
3852.88970	0.62121
3850.96132	0.61544
3849.03295	0.60873
3847.10458	0.60608
3845.17620	0.60746
3843.24783	0.61100
3841.31946	0.61461
3839.39108	0.61726
3837.46271	0.61757
3835.53434	0.61556
3833.60596	0.61314
3831.67759	0.61064
3829.74922	0.60873
3827.82084	0.60861
3825.89247	0.60952
3823.96410	0.61151
3822.03572	0.61567
3820.10735	0.61754
3818.17898	0.61558
3816.25060	0.61371
3814.32223	0.61063
3812.39386	0.60734
3810.46548	0.60680
3808.53711	0.60902
3806.60874	0.61108
3804.68037	0.61185
3802.75199	0.61384
3800.82362	0.61468
3798.89525	0.61243
3796.96687	0.61017
3795.03850	0.60719
3793.11013	0.60397
3791.18175	0.60230
3789.25338	0.60178
3787.32501	0.60222
3785.39663	0.60305
3783.46826	0.60290
3781.53989	0.60272
3779.61151	0.60277
3777.68314	0.60089
3775.75477	0.59842
3773.82639	0.59819
3771.89802	0.60012
3769.96965	0.60187
3768.04127	0.60149
3766.11290	0.60023
3764.18453	0.59907
3762.25615	0.59897
3760.32778	0.60046
3758.39941	0.60094
3756.47103	0.59991
3754.54266	0.60102
3752.61429	0.60581
3750.68591	0.60977
3748.75754	0.60803
3746.82917	0.60646
3744.90080	0.60576
3742.97242	0.60110
3741.04405	0.59652
3739.11568	0.59644
3737.18730	0.60025
3735.25893	0.60323
3733.33056	0.59930
3731.40218	0.59162
3729.47381	0.58685
3727.54544	0.58593
3725.61706	0.58610
3723.68869	0.58486
3721.76032	0.58216
3719.83194	0.57840
3717.90357	0.57453
3715.97520	0.57259
3714.04682	0.57356
3712.11845	0.57580
3710.19008	0.57386
3708.26170	0.56738
3706.33333	0.56160
3704.40496	0.55855
3702.47658	0.55682
3700.54821	0.55296
3698.61984	0.54771
3696.69146	0.54344
3694.76309	0.54038
3692.83472	0.53886
3690.90635	0.53766
3688.97797	0.53229
3687.04960	0.52149
3685.12123	0.51051
3683.19285	0.50155
3681.26448	0.49455
3679.33611	0.48927
3677.40773	0.48461
3675.47936	0.47552
3673.55099	0.46207
3671.62261	0.45124
3669.69424	0.43854
3667.76587	0.42247
3665.83749	0.40856
3663.90912	0.39626
3661.98075	0.38415
3660.05237	0.37251
3658.12400	0.36131
3656.19563	0.34805
3654.26725	0.33498
3652.33888	0.32618
3650.41051	0.31766
3648.48213	0.30227
3646.55376	0.28331
3644.62539	0.26788
3642.69701	0.25533
3640.76864	0.24373
3638.84027	0.23228
3636.91189	0.22103
3634.98352	0.21011
3633.05515	0.19992
3631.12678	0.19105
3629.19840	0.18082
3627.27003	0.16867
3625.34166	0.15890
3623.41328	0.15067
3621.48491	0.14295
3619.55654	0.13471
3617.62816	0.12572
3615.69979	0.11796
3613.77142	0.11124
3611.84304	0.10476
3609.91467	0.09843
3607.98630	0.09158
3606.05792	0.08498
3604.12955	0.07987
3602.20118	0.07492
3600.27280	0.06945
3598.34443	0.06462
3596.41606	0.06068
3594.48768	0.05681
3592.55931	0.05302
3590.63094	0.04984
3588.70256	0.04651
3586.77419	0.04242
3584.84582	0.03865
3582.91744	0.03580
3580.98907	0.03342
3579.06070	0.03120
3577.13233	0.02906
3575.20395	0.02671
3573.27558	0.02435
3571.34721	0.02241
3569.41883	0.02078
3567.49046	0.01904
3565.56209	0.01721
3563.63371	0.01580
3561.70534	0.01470
3559.77697	0.01364
3557.84859	0.01249
3555.92022	0.01151
3553.99185	0.01067
3552.06347	0.00961
3550.13510	0.00868
3548.20673	0.00813
3546.27835	0.00771
3544.34998	0.00684
3542.42161	0.00591
3540.49323	0.00559
3538.56486	0.00546
3536.63649	0.00473
3534.70811	0.00373
3532.77974	0.00326
3530.85137	0.00320
3528.92299	0.00305
3526.99462	0.00254
3525.06625	0.00215
3523.13787	0.00243
3521.20950	0.00254
3519.28113	0.00195
3517.35276	0.00133
3515.42438	0.00125
3513.49601	0.00162
3511.56764	0.00172
3509.63926	0.00161
3507.71089	0.00144
3505.78252	0.00105
3503.85414	0.00090
3501.92577	0.00153
3499.99740	0.00152
3498.06902	0.00091
3496.14065	0.00036
3494.21228	0.00054
3492.28390	0.00056
3490.35553	0.00052
3488.42716	0.00067
3486.49878	0.00103
3484.57041	0.00085
3482.64204	0.00080
3480.71366	0.00130
3478.78529	0.00117
3476.85692	0.00089
3474.92854	0.00061
3473.00017	0.00070
3471.07180	0.00091
3469.14342	0.00124
3467.21505	0.00129
3465.28668	0.00073
3463.35831	0.00025
3461.42993	0.00050
3459.50156	0.00079
3457.57319	0.00072
3455.64481	0.00046
3453.71644	0.00063
3451.78807	0.00068
3449.85969	0.00040
3447.93132	0.00049
3446.00295	0.00071
3444.07457	0.00056
3442.14620	0.00113
3440.21783	0.00086
3438.28945	0.00033
3436.36108	0.00056
3434.43271	0.00082
3432.50433	0.00096
3430.57596	0.00109
3428.64759	0.00110
3426.71921	0.00101
3424.79084	0.00088
3422.86247	0.00093
3420.93409	0.00094
3419.00572	0.00051
3417.07735	0.00075
3415.14897	0.00107
3413.22060	0.00119
3411.29223	0.00115
3409.36385	0.00072
3407.43548	0.00081
3405.50711	0.00088
3403.57874	0.00058
3401.65036	0.00071
3399.72199	0.00092
3397.79362	0.00093
3395.86524	0.00081
3393.93687	0.00089
3392.00850	0.00095
3390.08012	0.00086
3388.15175	0.00075
3386.22338	0.00060
3384.29500	0.00047
3382.36663	0.00093
3380.43826	0.00090
3378.50988	0.00061
3376.58151	0.00108
3374.65314	0.00177
3372.72476	0.00183
3370.79639	0.00159
3368.86802	0.00121
3366.93964	0.00068
3365.01127	0.00068
3363.08290	0.00096
3361.15452	0.00076
3359.22615	0.00055
3357.29778	0.00071
3355.36940	0.00045
3353.44103	0.00023
3351.51266	0.00038
3349.58428	0.00059
3347.65591	0.00054
3345.72754	0.00053
3343.79917	0.00092
3341.87079	0.00147
3339.94242	0.00138
3338.01405	0.00081
3336.08567	0.00077
3334.15730	0.00074
3332.22893	0.00073
3330.30055	0.00060
3328.37218	0.00068
3326.44381	0.00108
3324.51543	0.00093
3322.58706	0.00080
3320.65869	0.00056
3318.73031	0.00069
3316.80194	0.00072
3314.87357	0.00077
3312.94519	0.00065
3311.01682	0.00094
3309.08845	0.00123
3307.16007	0.00103
3305.23170	0.00055
3303.30333	0.00040
3301.37495	0.00067
3299.44658	0.00080
3297.51821	0.00077
3295.58983	0.00077
3293.66146	0.00072
3291.73309	0.00082
3289.80472	0.00090
3287.87634	0.00076
3285.94797	0.00074
3284.01960	0.00090
3282.09122	0.00098
3280.16285	0.00083
3278.23448	0.00107
3276.30610	0.00097
3274.37773	0.00070
3272.44936	0.00092
3270.52098	0.00101
3268.59261	0.00062
3266.66424	0.00044
3264.73586	0.00098
3262.80749	0.00090
3260.87912	0.00087
3258.95074	0.00097
3257.02237	0.00057
3255.09400	0.00066
3253.16562	0.00107
3251.23725	0.00114
3249.30888	0.00077
3247.38050	0.00097
3245.45213	0.00108
3243.52376	0.00108
3241.59538	0.00075
3239.66701	0.00073
3237.73864	0.00067
3235.81026	0.00072
3233.88189	0.00083
3231.95352	0.00070
3230.02515	0.00082
3228.09677	0.00090
3226.16840	0.00048
3224.24003	0.00091
3222.31165	0.00114
3220.38328	0.00110
3218.45491	0.00084
3216.52653	0.00061
3214.59816	0.00067
3212.66979	0.00034
3210.74141	0.00024
3208.81304	0.00047
3206.88467	0.00077
3204.95629	0.00098
3203.02792	0.00098
3201.09955	0.00085
3199.17117	0.00105
3197.24280	0.00064
3195.31443	0.00068
3193.38605	0.00123
3191.45768	0.00166
3189.52931	0.00165
3187.60093	0.00159
3185.67256	0.00182
3183.74419	0.00180
3181.81581	0.00124
3179.88744	0.00063
3177.95907	0.00066
3176.03070	0.00078
3174.10232	0.00071
3172.17395	0.00071
3170.24558	0.00066
3168.31720	0.00070
3166.38883	0.00077
3164.46046	0.00097
3162.53208	0.00092
3160.60371	0.00061
3158.67534	0.00078
3156.74696	0.00080
3154.81859	0.00067
3152.89022	0.00077
3150.96184	0.00068
3149.03347	0.00065
3147.10510	0.00070
3145.17672	0.00086
3143.24835	0.00105
3141.31998	0.00073
3139.39160	0.00035
3137.46323	0.00048
3135.53486	0.00100
3133.60648	0.00118
3131.67811	0.00073
3129.74974	0.00070
3127.82136	0.00107
3125.89299	0.00088
3123.96462	0.00072
3122.03624	0.00055
3120.10787	0.00064
3118.17950	0.00078
3116.25113	0.00087
3114.32275	0.00095
3112.39438	0.00101
3110.46601	0.00079
3108.53763	0.00109
3106.60926	0.00131
3104.68089	0.00108
3102.75251	0.00068
3100.82414	0.00038
3098.89577	0.00052
3096.96739	0.00032
3095.03902	0.00063
3093.11065	0.00103
3091.18227	0.00064
3089.25390	0.00034
3087.32553	0.00081
3085.39715	0.00088
3083.46878	0.00040
3081.54041	0.00065
3079.61203	0.00116
3077.68366	0.00089
3075.75529	0.00037
3073.82691	0.00065
3071.89854	0.00078
3069.97017	0.00089
3068.04179	0.00080
3066.11342	0.00063
3064.18505	0.00048
3062.25668	0.00045
3060.32830	0.00037
3058.39993	0.00014
3056.47156	0.00048
3054.54318	0.00047
3052.61481	0.00066
3050.68644	0.00110
3048.75806	0.00105
3046.82969	0.00064
3044.90132	0.00038
3042.97294	0.00050
3041.04457	0.00062
3039.11620	0.00041
3037.18782	0.00046
3035.25945	0.00046
3033.33108	0.00056
3031.40270	0.00072
3029.47433	0.00076
3027.54596	0.00071
3025.61758	0.00063
3023.68921	0.00032
3021.76084	0.00048
3019.83246	0.00083
3017.90409	0.00129
3015.97572	0.00115
3014.04734	0.00051
3012.11897	0.00090
3010.19060	0.00124
3008.26222	0.00162
3006.33385	0.00172
3004.40548	0.00130
3002.47711	0.00078
3000.54873	0.00099
2998.62036	0.00097
2996.69199	0.00101
2994.76361	0.00102
2992.83524	0.00083
2990.90687	0.00059
2988.97849	0.00070
2987.05012	0.00075
2985.12175	0.00115
2983.19337	0.00175
2981.26500	0.00180
2979.33663	0.00145
2977.40825	0.00103
2975.47988	0.00131
2973.55151	0.00128
2971.62313	0.00107
2969.69476	0.00108
2967.76639	0.00059
2965.83801	0.00096
2963.90964	0.00173
2961.98127	0.00117
2960.05289	0.00061
2958.12452	0.00164
2956.19615	0.00180
2954.26777	0.00134
2952.33940	0.00115
2950.41103	0.00127
2948.48266	0.00116
2946.55428	0.00107
2944.62591	0.00128
2942.69754	0.00142
2940.76916	0.00085
2938.84079	0.00102
2936.91242	0.00131
2934.98404	0.00113
2933.05567	0.00121
2931.12730	0.00139
2929.19892	0.00160
2927.27055	0.00089
2925.34218	0.00093
2923.41380	0.00106
2921.48543	0.00117
2919.55706	0.00100
2917.62868	0.00076
2915.70031	0.00085
2913.77194	0.00067
2911.84356	0.00088
2909.91519	0.00108
2907.98682	0.00109
2906.05844	0.00104
2904.13007	0.00073
2902.20170	0.00067
2900.27332	0.00129
2898.34495	0.00166
2896.41658	0.00133
2894.48820	0.00107
2892.55983	0.00118
2890.63146	0.00147
2888.70309	0.00189
2886.77471	0.00179
2884.84634	0.00143
2882.91797	0.00126
2880.98959	0.00151
2879.06122	0.00196
2877.13285	0.00181
2875.20447	0.00171
2873.27610	0.00176
2871.34773	0.00186
2869.41935	0.00211
2867.49098	0.00220
2865.56261	0.00192
2863.63423	0.00175
2861.70586	0.00213
2859.77749	0.00253
2857.84911	0.00254
2855.92074	0.00270
2853.99237	0.00333
2852.06399	0.00388
2850.13562	0.00408
2848.20725	0.00425
2846.27887	0.00429
2844.35050	0.00407
2842.42213	0.00375
2840.49375	0.00326
2838.56538	0.00289
2836.63701	0.00297
2834.70863	0.00336
2832.78026	0.00382
2830.85189	0.00386
2828.92352	0.00353
2826.99514	0.00336
2825.06677	0.00339
2823.13840	0.00349
2821.21002	0.00355
2819.28165	0.00330
2817.35328	0.00300
2815.42490	0.00295
2813.49653	0.00306
2811.56816	0.00330
2809.63978	0.00363
2807.71141	0.00382
2805.78304	0.00382
2803.85466	0.00374
2801.92629	0.00373
2799.99792	0.00389
2798.06954	0.00412
2796.14117	0.00435
2794.21280	0.00427
2792.28442	0.00379
2790.35605	0.00351
2788.42768	0.00382
2786.49930	0.00439
2784.57093	0.00470
2782.64256	0.00482
2780.71418	0.00504
2778.78581	0.00520
2776.85744	0.00512
2774.92907	0.00491
2773.00069	0.00467
2771.07232	0.00475
2769.14395	0.00519
2767.21557	0.00553
2765.28720	0.00550
2763.35883	0.00529
2761.43045	0.00548
2759.50208	0.00597
2757.57371	0.00623
2755.64533	0.00623
2753.71696	0.00627
2751.78859	0.00657
2749.86021	0.00704
2747.93184	0.00764
2746.00347	0.00835
2744.07509	0.00902
2742.14672	0.00950
2740.21835	0.00971
2738.28997	0.00975
2736.36160	0.00996
2734.43323	0.01056
2732.50485	0.01138
2730.57648	0.01196
2728.64811	0.01212
2726.71973	0.01219
2724.79136	0.01267
2722.86299	0.01331
2720.93461	0.01362
2719.00624	0.01391
2717.07787	0.01437
2715.14950	0.01456
2713.22112	0.01449
2711.29275	0.01465
2709.36438	0.01491
2707.43600	0.01496
2705.50763	0.01477
2703.57926	0.01468
2701.65088	0.01507
2699.72251	0.01559
2697.79414	0.01579
2695.86576	0.01576
2693.93739	0.01589
2692.00902	0.01617
2690.08064	0.01629
2688.15227	0.01615
2686.22390	0.01616
2684.29552	0.01660
2682.36715	0.01719
2680.43878	0.01784
2678.51040	0.01843
2676.58203	0.01867
2674.65366	0.01871
2672.72528	0.01892
2670.79691	0.01952
2668.86854	0.02034
2666.94016	0.02095
2665.01179	0.02129
2663.08342	0.02167
2661.15505	0.02239
2659.22667	0.02320
2657.29830	0.02376
2655.36993	0.02438
2653.44155	0.02520
2651.51318	0.02582
2649.58481	0.02619
2647.65643	0.02664
2645.72806	0.02732
2643.79969	0.02818
2641.87131	0.02908
2639.94294	0.02984
2638.01457	0.03051
2636.08619	0.03117
2634.15782	0.03179
2632.22945	0.03252
2630.30107	0.03349
2628.37270	0.03463
2626.44433	0.03578
2624.51595	0.03695
2622.58758	0.03815
2620.65921	0.03922
2618.73083	0.04018
2616.80246	0.04117
2614.87409	0.04223
2612.94571	0.04335
2611.01734	0.04449
2609.08897	0.04565
2607.16059	0.04679
2605.23222	0.04788
2603.30385	0.04896
2601.37548	0.05001
2599.44710	0.05101
2597.51873	0.05226
2595.59036	0.05378
2593.66198	0.05523
2591.73361	0.05643
2589.80524	0.05755
2587.87686	0.05898
2585.94849	0.06063
2584.02012	0.06189
2582.09174	0.06276
2580.16337	0.06368
2578.23500	0.06490
2576.30662	0.06634
2574.37825	0.06780
2572.44988	0.06918
2570.52150	0.07050
2568.59313	0.07168
2566.66476	0.07274
2564.73638	0.07383
2562.80801	0.07499
2560.87964	0.07616
2558.95126	0.07739
2557.02289	0.07867
2555.09452	0.07993
2553.16614	0.08119
2551.23777	0.08250
2549.30940	0.08379
2547.38103	0.08492
2545.45265	0.08588
2543.52428	0.08686
2541.59591	0.08804
2539.66753	0.08936
2537.73916	0.09075
2535.81079	0.09213
2533.88241	0.09328
2531.95404	0.09421
2530.02567	0.09514
2528.09729	0.09602
2526.16892	0.09692
2524.24055	0.09819
2522.31217	0.09971
2520.38380	0.10110
2518.45543	0.10225
2516.52705	0.10332
2514.59868	0.10449
2512.67031	0.10581
2510.74193	0.10713
2508.81356	0.10846
2506.88519	0.10976
2504.95681	0.11082
2503.02844	0.11167
2501.10007	0.11258
2499.17169	0.11362
2497.24332	0.11464
2495.31495	0.11556
2493.38657	0.11643
2491.45820	0.11716
2489.52983	0.11785
2487.60146	0.11885
2485.67308	0.12012
2483.74471	0.12130
2481.81634	0.12241
2479.88796	0.12361
2477.95959	0.12491
2476.03122	0.12620
2474.10284	0.12728
2472.17447	0.12830
2470.24610	0.12967
2468.31772	0.13135
2466.38935	0.13308
2464.46098	0.13475
2462.53260	0.13634
2460.60423	0.13784
2458.67586	0.13934
2456.74748	0.14093
2454.81911	0.14262
2452.89074	0.14432
2450.96236	0.14604
2449.03399	0.14797
2447.10562	0.14995
2445.17724	0.15158
2443.24887	0.15299
2441.32050	0.15444
2439.39212	0.15598
2437.46375	0.15765
2435.53538	0.15918
2433.60700	0.16035
2431.67863	0.16168
2429.75026	0.16348
2427.82189	0.16541
2425.89351	0.16717
2423.96514	0.16862
2422.03677	0.16989
2420.10839	0.17134
2418.18002	0.17293
2416.25165	0.17435
2414.32327	0.17569
2412.39490	0.17729
2410.46653	0.17915
2408.53815	0.18102
2406.60978	0.18266
2404.68141	0.18421
2402.75303	0.18601
2400.82466	0.18807
2398.89629	0.18989
2396.96791	0.19132
2395.03954	0.19283
2393.11117	0.19469
2391.18279	0.19665
2389.25442	0.19862
2387.32605	0.20073
2385.39767	0.20284
2383.46930	0.20475
2381.54093	0.20680
2379.61255	0.20937
2377.68418	0.21218
2375.75581	0.21498
2373.82744	0.21804
2371.89906	0.22163
2369.97069	0.22550
2368.04232	0.22974
2366.11394	0.23437
2364.18557	0.23763
2362.25720	0.23838
2360.32882	0.23839
2358.40045	0.23907
2356.47208	0.23961
2354.54370	0.23970
2352.61533	0.23953
2350.68696	0.23873
2348.75858	0.23804
2346.83021	0.23916
2344.90184	0.24290
2342.97346	0.24649
2341.04509	0.24723
2339.11672	0.24735
2337.18834	0.24821
2335.25997	0.24868
2333.33160	0.24871
2331.40322	0.24926
2329.47485	0.25031
2327.54648	0.25123
2325.61810	0.25199
2323.68973	0.25276
2321.76136	0.25302
2319.83298	0.25269
2317.90461	0.25296
2315.97624	0.25452
2314.04787	0.25655
2312.11949	0.25820
2310.19112	0.25928
2308.26275	0.26011
2306.33437	0.26114
2304.40600	0.26245
2302.47763	0.26400
2300.54925	0.26572
2298.62088	0.26736
2296.69251	0.26868
2294.76413	0.26986
2292.83576	0.27120
2290.90739	0.27256
2288.97901	0.27374
2287.05064	0.27486
2285.12227	0.27607
2283.19389	0.27731
2281.26552	0.27836
2279.33715	0.27908
2277.40877	0.27974
2275.48040	0.28074
2273.55203	0.28193
2271.62365	0.28298
2269.69528	0.28404
2267.76691	0.28520
2265.83853	0.28616
2263.91016	0.28683
2261.98179	0.28755
2260.05342	0.28859
2258.12504	0.28979
2256.19667	0.29101
2254.26830	0.29234
2252.33992	0.29384
2250.41155	0.29530
2248.48318	0.29648
2246.55480	0.29754
2244.62643	0.29868
2242.69806	0.29979
2240.76968	0.30063
2238.84131	0.30128
2236.91294	0.30213
2234.98456	0.30323
2233.05619	0.30422
2231.12782	0.30498
2229.19944	0.30564
2227.27107	0.30625
2225.34270	0.30692
2223.41432	0.30770
2221.48595	0.30848
2219.55758	0.30915
2217.62920	0.30980
2215.70083	0.31057
2213.77246	0.31134
2211.84408	0.31197
2209.91571	0.31257
2207.98734	0.31340
2206.05896	0.31443
2204.13059	0.31536
2202.20222	0.31617
2200.27385	0.31690
2198.34547	0.31748
2196.41710	0.31809
2194.48873	0.31900
2192.56035	0.32010
2190.63198	0.32116
2188.70361	0.32217
2186.77523	0.32311
2184.84686	0.32381
2182.91849	0.32423
2180.99011	0.32463
2179.06174	0.32507
2177.13337	0.32542
2175.20499	0.32585
2173.27662	0.32641
2171.34825	0.32666
2169.41987	0.32665
2167.49150	0.32691
2165.56313	0.32747
2163.63475	0.32798
2161.70638	0.32832
2159.77801	0.32855
2157.84963	0.32886
2155.92126	0.32949
2153.99289	0.33031
2152.06451	0.33104
2150.13614	0.33162
2148.20777	0.33230
2146.27940	0.33320
2144.35102	0.33403
2142.42265	0.33466
2140.49428	0.33543
2138.56590	0.33666
2136.63753	0.33831
2134.70916	0.33988
2132.78078	0.34104
2130.85241	0.34213
2128.92404	0.34355
2126.99566	0.34515
2125.06729	0.34666
2123.13892	0.34808
2121.21054	0.34946
2119.28217	0.35078
2117.35380	0.35207
2115.42542	0.35331
2113.49705	0.35432
2111.56868	0.35532
2109.64030	0.35656
2107.71193	0.35777
2105.78356	0.35870
2103.85518	0.35951
2101.92681	0.36031
2099.99844	0.36120
2098.07006	0.36209
2096.14169	0.36286
2094.21332	0.36370
2092.28494	0.36476
2090.35657	0.36574
2088.42820	0.36644
2086.49983	0.36690
2084.57145	0.36715
2082.64308	0.36738
2080.71471	0.36779
2078.78633	0.36821
2076.85796	0.36853
2074.92959	0.36878
2073.00121	0.36895
2071.07284	0.36919
2069.14447	0.36950
2067.21609	0.36979
2065.28772	0.37019
2063.35935	0.37066
2061.43097	0.37107
2059.50260	0.37141
2057.57423	0.37174
2055.64585	0.37222
2053.71748	0.37278
2051.78911	0.37335
2049.86073	0.37407
2047.93236	0.37481
2046.00399	0.37552
2044.07561	0.37640
2042.14724	0.37730
2040.21887	0.37788
2038.29049	0.37805
2036.36212	0.37810
2034.43375	0.37825
2032.50538	0.37844
2030.57700	0.37878
2028.64863	0.37928
2026.72026	0.37966
2024.79188	0.37972
2022.86351	0.37969
2020.93514	0.37985
2019.00676	0.38024
2017.07839	0.38061
2015.15002	0.38080
2013.22164	0.38107
2011.29327	0.38153
2009.36490	0.38210
2007.43652	0.38280
2005.50815	0.38351
2003.57978	0.38406
2001.65140	0.38461
1999.72303	0.38541
1997.79466	0.38638
1995.86628	0.38747
1993.93791	0.38875
1992.00954	0.38964
1990.08116	0.38965
1988.15279	0.38943
1986.22442	0.38962
1984.29604	0.39005
1982.36767	0.39051
1980.43930	0.39097
1978.51092	0.39149
1976.58255	0.39203
1974.65418	0.39237
1972.72581	0.39262
1970.79743	0.39326
1968.86906	0.39441
1966.94069	0.39549
1965.01231	0.39591
1963.08394	0.39607
1961.15557	0.39645
1959.22719	0.39685
1957.29882	0.39731
1955.37045	0.39795
1953.44207	0.39848
1951.51370	0.39883
1949.58533	0.39920
1947.65695	0.39959
1945.72858	0.40008
1943.80021	0.40075
1941.87183	0.40079
1939.94346	0.39980
1938.01509	0.39872
1936.08671	0.39808
1934.15834	0.39785
1932.22997	0.39773
1930.30159	0.39733
1928.37322	0.39679
1926.44485	0.39668
1924.51647	0.39722
1922.58810	0.39785
1920.65973	0.39814
1918.73135	0.39834
1916.80298	0.39824
1914.87461	0.39772
1912.94624	0.39762
1911.01786	0.39837
1909.08949	0.39922
1907.16112	0.39941
1905.23274	0.39928
1903.30437	0.39937
1901.37600	0.39944
1899.44762	0.39929
1897.51925	0.39917
1895.59088	0.39889
1893.66250	0.39823
1891.73413	0.39767
1889.80576	0.39702
1887.87738	0.39537
1885.94901	0.39319
1884.02064	0.39122
1882.09226	0.38936
1880.16389	0.38761
1878.23552	0.38587
1876.30714	0.38397
1874.37877	0.38213
1872.45040	0.38085
1870.52202	0.38040
1868.59365	0.37952
1866.66528	0.37664
1864.73690	0.37310
1862.80853	0.37061
1860.88016	0.36895
1858.95179	0.36729
1857.02341	0.36547
1855.09504	0.36369
1853.16667	0.36232
1851.23829	0.36150
1849.30992	0.36124
1847.38155	0.36146
1845.45317	0.36175
1843.52480	0.36068
1841.59643	0.35812
1839.66805	0.35602
1837.73968	0.35451
1835.81131	0.35289
1833.88293	0.35156
1831.95456	0.35120
1830.02619	0.35070
1828.09781	0.34839
1826.16944	0.34510
1824.24107	0.34151
1822.31269	0.33787
1820.38432	0.33444
1818.45595	0.33083
1816.52757	0.32689
1814.59920	0.32312
1812.67083	0.31956
1810.74245	0.31509
1808.81408	0.30955
1806.88571	0.30389
1804.95733	0.29853
1803.02896	0.29331
1801.10059	0.28721
1799.17222	0.27973
1797.24384	0.27214
1795.31547	0.26545
1793.38710	0.25863
1791.45872	0.24983
1789.53035	0.24047
1787.60198	0.23230
1785.67360	0.22454
1783.74523	0.21691
1781.81686	0.20985
1779.88848	0.20272
1777.96011	0.19571
1776.03174	0.18983
1774.10336	0.18427
1772.17499	0.17674
1770.24662	0.16741
1768.31824	0.15802
1766.38987	0.14854
1764.46150	0.13943
1762.53312	0.12903
1760.60475	0.11672
1758.67638	0.10471
1756.74800	0.09194
1754.81963	0.07905
1752.89126	0.06717
1750.96288	0.05403
1749.03451	0.03996
1747.10614	0.02822
1745.17777	0.01922
1743.24939	0.01249
1741.32102	0.00761
1739.39265	0.00402
1737.46427	0.00204
1735.53590	0.00120
1733.60753	0.00082
1731.67915	0.00059
1729.75078	0.00041
1727.82241	0.00036
1725.89403	0.00039
1723.96566	0.00053
1722.03729	0.00093
1720.10891	0.00099
1718.18054	0.00081
1716.25217	0.00058
1714.32379	0.00048
1712.39542	0.00036
1710.46705	0.00045
1708.53867	0.00083
1706.61030	0.00104
1704.68193	0.00090
1702.75355	0.00127
1700.82518	0.00170
1698.89681	0.00130
1696.96843	0.00072
1695.04006	0.00086
1693.11169	0.00096
1691.18331	0.00083
1689.25494	0.00066
1687.32657	0.00087
1685.39820	0.00166
1683.46982	0.00174
1681.54145	0.00086
1679.61308	0.00048
1677.68470	0.00055
1675.75633	0.00106
1673.82796	0.00098
1671.89958	0.00067
1669.97121	0.00043
1668.04284	0.00045
1666.11446	0.00076
1664.18609	0.00105
1662.25772	0.00093
1660.32934	0.00061
1658.40097	0.00084
1656.47260	0.00100
1654.54422	0.00128
1652.61585	0.00157
1650.68748	0.00140
1648.75910	0.00112
1646.83073	0.00062
1644.90236	0.00059
1642.97398	0.00049
1641.04561	0.00061
1639.11724	0.00071
1637.18886	0.00060
1635.26049	0.00036
1633.33212	0.00050
1631.40375	0.00040
1629.47537	0.00029
1627.54700	0.00051
1625.61863	0.00050
1623.69025	0.00057
1621.76188	0.00084
1619.83351	0.00114
1617.90513	0.00094
1615.97676	0.00078
1614.04839	0.00072
1612.12001	0.00076
1610.19164	0.00071
1608.26327	0.00039
1606.33489	0.00071
1604.40652	0.00076
1602.47815	0.00048
1600.54977	0.00057
1598.62140	0.00072
1596.69303	0.00065
1594.76465	0.00057
1592.83628	0.00036
1590.90791	0.00064
1588.97953	0.00076
1587.05116	0.00066
1585.12279	0.00054
1583.19441	0.00070
1581.26604	0.00060
1579.33767	0.00056
1577.40929	0.00055
1575.48092	0.00030
1573.55255	0.00027
1571.62418	0.00042
1569.69580	0.00070
1567.76743	0.00070
1565.83906	0.00051
1563.91068	0.00064
1561.98231	0.00083
1560.05394	0.00115
1558.12556	0.00141
1556.19719	0.00139
1554.26882	0.00107
1552.34044	0.00057
1550.41207	0.00050
1548.48370	0.00043
1546.55532	0.00053
1544.62695	0.00095
1542.69858	0.00128
1540.77020	0.00128
1538.84183	0.00089
1536.91346	0.00093
1534.98508	0.00068
1533.05671	0.00017
1531.12834	0.00058
1529.19996	0.00061
1527.27159	0.00058
1525.34322	0.00077
1523.41484	0.00105
1521.48647	0.00105
1519.55810	0.00055
1517.62972	0.00054
1515.70135	0.00061
1513.77298	0.00069
1511.84461	0.00093
1509.91623	0.00079
1507.98786	0.00033
1506.05949	0.00067
1504.13111	0.00076
1502.20274	0.00093
1500.27437	0.00122
1498.34599	0.00124
1496.41762	0.00102
1494.48925	0.00124
1492.56087	0.00171
1490.63250	0.00232
1488.70413	0.00285
1486.77575	0.00330
1484.84738	0.00392
1482.91901	0.00444
1480.99063	0.00478
1479.06226	0.00504
1477.13389	0.00509
1475.20551	0.00454
1473.27714	0.00381
1471.34877	0.00357
1469.42039	0.00342
1467.49202	0.00295
1465.56365	0.00234
1463.63527	0.00202
1461.70690	0.00220
1459.77853	0.00244
1457.85016	0.00268
1455.92178	0.00265
1453.99341	0.00209
1452.06504	0.00143
1450.13666	0.00093
1448.20829	0.00063
1446.27992	0.00054
1444.35154	0.00053
1442.42317	0.00076
1440.49480	0.00113
1438.56642	0.00121
1436.63805	0.00115
1434.70968	0.00102
1432.78130	0.00075
1430.85293	0.00049
1428.92456	0.00042
1426.99618	0.00065
1425.06781	0.00059
1423.13944	0.00043
1421.21106	0.00062
1419.28269	0.00110
1417.35432	0.00122
1415.42594	0.00087
1413.49757	0.00083
1411.56920	0.00067
1409.64082	0.00059
1407.71245	0.00076
1405.78408	0.00093
1403.85570	0.00131
1401.92733	0.00129
1399.99896	0.00116
1398.07059	0.00102
1396.14221	0.00093
1394.21384	0.00107
1392.28547	0.00074
1390.35709	0.00098
1388.42872	0.00143
1386.50035	0.00109
1384.57197	0.00072
1382.64360	0.00058
1380.71523	0.00045
1378.78685	0.00095
1376.85848	0.00116
1374.93011	0.00113
1373.00173	0.00084
1371.07336	0.00106
1369.14499	0.00106
1367.21661	0.00067
1365.28824	0.00051
1363.35987	0.00121
1361.43149	0.00138
1359.50312	0.00135
1357.57475	0.00120
1355.64637	0.00107
1353.71800	0.00104
1351.78963	0.00101
1349.86125	0.00112
1347.93288	0.00130
1346.00451	0.00137
1344.07614	0.00136
1342.14776	0.00155
1340.21939	0.00192
1338.29102	0.00190
1336.36264	0.00168
1334.43427	0.00144
1332.50590	0.00124
1330.57752	0.00123
1328.64915	0.00145
1326.72078	0.00170
1324.79240	0.00152
1322.86403	0.00128
1320.93566	0.00141
1319.00728	0.00157
1317.07891	0.00164
1315.15054	0.00190
1313.22216	0.00245
1311.29379	0.00285
1309.36542	0.00290
1307.43704	0.00290
1305.50867	0.00295
1303.58030	0.00294
1301.65192	0.00286
1299.72355	0.00307
1297.79518	0.00369
1295.86680	0.00451
1293.93843	0.00519
1292.01006	0.00540
1290.08168	0.00537
1288.15331	0.00528
1286.22494	0.00513
1284.29657	0.00526
1282.36819	0.00558
1280.43982	0.00562
1278.51145	0.00553
1276.58307	0.00558
1274.65470	0.00563
1272.72633	0.00541
1270.79795	0.00502
1268.86958	0.00471
1266.94121	0.00438
1265.01283	0.00399
1263.08446	0.00386
1261.15609	0.00392
1259.22771	0.00375
1257.29934	0.00378
1255.37097	0.00429
1253.44259	0.00505
1251.51422	0.00577
1249.58585	0.00613
1247.65747	0.00589
1245.72910	0.00564
1243.80073	0.00594
1241.87235	0.00657
1239.94398	0.00711
1238.01561	0.00751
1236.08723	0.00770
1234.15886	0.00768
1232.23049	0.00788
1230.30212	0.00849
1228.37374	0.00919
1226.44537	0.00981
1224.51700	0.01039
1222.58862	0.01114
1220.66025	0.01196
1218.73188	0.01299
1216.80350	0.01438
1214.87513	0.01549
1212.94676	0.01569
1211.01838	0.01460
1209.09001	0.01254
1207.16164	0.01142
1205.23326	0.01234
1203.30489	0.01384
1201.37652	0.01508
1199.44814	0.01690
1197.51977	0.01922
1195.59140	0.02162
1193.66302	0.02394
1191.73465	0.02555
1189.80628	0.02612
1187.87790	0.02579
1185.94953	0.02442
1184.02116	0.02269
1182.09278	0.02141
1180.16441	0.02011
1178.23604	0.01838
1176.30766	0.01676
1174.37929	0.01527
1172.45092	0.01280
1170.52255	0.00924
1168.59417	0.00596
1166.66580	0.00382
1164.73743	0.00270
1162.80905	0.00216
1160.88068	0.00171
1158.95231	0.00156
1157.02393	0.00180
1155.09556	0.00214
1153.16719	0.00272
1151.23881	0.00460
1149.31044	0.00706
1147.38207	0.00906
1145.45369	0.01134
1143.52532	0.01286
1141.59695	0.01289
1139.66857	0.01218
1137.74020	0.01112
1135.81183	0.00976
1133.88345	0.00813
1131.95508	0.00610
1130.02671	0.00418
1128.09833	0.00268
1126.16996	0.00162
1124.24159	0.00143
1122.31321	0.00078
1120.38484	0.00036
1118.45647	0.00088
1116.52809	0.00120
1114.59972	0.00214
1112.67135	0.00316
1110.74298	0.00350
1108.81460	0.00318
1106.88623	0.00372
1104.95786	0.00461
1103.02948	0.00529
1101.10111	0.00560
1099.17274	0.00493
1097.24436	0.00390
1095.31599	0.00305
1093.38762	0.00247
1091.45924	0.00179
1089.53087	0.00196
1087.60250	0.00189
1085.67412	0.00081
1083.74575	0.00099
1081.81738	0.00178
1079.88900	0.00178
1077.96063	0.00158
1076.03226	0.00189
1074.10388	0.00143
1072.17551	0.00145
1070.24714	0.00196
1068.31876	0.00300
1066.39039	0.00357
1064.46202	0.00288
1062.53364	0.00255
1060.60527	0.00285
1058.67690	0.00315
1056.74853	0.00385
1054.82015	0.00455
1052.89178	0.00456
1050.96341	0.00395
1049.03503	0.00376
1047.10666	0.00369
1045.17829	0.00318
1043.24991	0.00212
1041.32154	0.00162
1039.39317	0.00163
1037.46479	0.00117
1035.53642	0.00132
1033.60805	0.00199
1031.67967	0.00202
1029.75130	0.00112
1027.82293	0.00104
1025.89455	0.00139
1023.96618	0.00141
1022.03781	0.00122
1020.10943	0.00103
1018.18106	0.00137
1016.25269	0.00217
1014.32431	0.00323
1012.39594	0.00405
1010.46757	0.00487
1008.53919	0.00594
1006.61082	0.00689
1004.68245	0.00822
1002.75407	0.01004
1000.82570	0.01191
998.89733	0.01360
996.96896	0.01555
995.04058	0.01743
993.11221	0.01886
991.18384	0.02050
989.25546	0.02257
987.32709	0.02469
985.39872	0.02684
983.47034	0.02833
981.54197	0.02826
979.61360	0.02784
977.68522	0.02848
975.75685	0.02999
973.82848	0.03267
971.90010	0.03754
969.97173	0.04405
968.04336	0.05063
966.11498	0.05647
964.18661	0.06005
962.25824	0.05900
960.32986	0.05267
958.40149	0.04334
956.47312	0.03517
954.54474	0.03158
952.61637	0.03328
950.68800	0.03896
948.75962	0.04685
946.83125	0.05515
944.90288	0.06228
942.97451	0.06791
941.04613	0.07216
939.11776	0.07492
937.18939	0.07666
935.26101	0.07783
933.33264	0.07806
931.40427	0.07713
929.47589	0.07564
927.54752	0.07378
925.61915	0.07141
923.69077	0.06888
921.76240	0.06679
919.83403	0.06552
917.90565	0.06515
915.97728	0.06521
914.04891	0.06479
912.12053	0.06327
910.19216	0.06046
908.26379	0.05668
906.33541	0.05233
904.40704	0.04803
902.47867	0.04422
900.55029	0.04084
898.62192	0.03795
896.69355	0.03597
894.76517	0.03479
892.83680	0.03377
890.90843	0.03292
888.98005	0.03247
887.05168	0.03212
885.12331	0.03169
883.19494	0.03061
881.26656	0.02887
879.33819	0.02802
877.40982	0.02871
875.48144	0.02998
873.55307	0.03053
871.62470	0.03014
869.69632	0.02984
867.76795	0.03002
865.83958	0.03025
863.91120	0.03023
861.98283	0.03007
860.05446	0.02995
858.12608	0.02960
856.19771	0.02877
854.26934	0.02811
852.34096	0.02783
850.41259	0.02646
848.48422	0.02376
846.55584	0.02186
844.62747	0.02156
842.69910	0.02226
840.77072	0.02330
838.84235	0.02347
836.91398	0.02230
834.98560	0.02075
833.05723	0.01970
831.12886	0.01877
829.20049	0.01745
827.27211	0.01658
825.34374	0.01716
823.41537	0.01786
821.48699	0.01675
819.55862	0.01491
817.63025	0.01444
815.70187	0.01446
813.77350	0.01351
811.84513	0.01251
809.91675	0.01214
807.98838	0.01163
806.06001	0.01048
804.13163	0.00874
802.20326	0.00737
800.27489	0.00749
798.34651	0.00765
796.41814	0.00610
794.48977	0.00423
792.56139	0.00339
790.63302	0.00330
788.70465	0.00319
786.77627	0.00384
784.84790	0.00399
782.91953	0.00391
780.99115	0.00410
779.06278	0.00451
777.13441	0.00523
775.20603	0.00577
773.27766	0.00638
771.34929	0.00615
769.42092	0.00499
767.49254	0.00499
765.56417	0.00621
763.63580	0.00606
761.70742	0.00459
759.77905	0.00362
757.85068	0.00371
755.92230	0.00472
753.99393	0.00453
752.06556	0.00233
750.13718	0.00168
748.20881	0.00213
746.28044	0.00232
744.35206	0.00270
742.42369	0.00195
740.49532	0.00193
738.56694	0.00227
736.63857	0.00276
734.71020	0.00237
732.78182	0.00311
730.85345	0.00348
728.92508	0.00378
726.99670	0.00404
725.06833	0.00470
723.13996	0.00513
721.21158	0.00501
719.28321	0.00284
717.35484	0.00201
715.42647	0.00315
713.49809	0.00286
711.56972	0.00300
709.64135	0.00301
707.71297	0.00262
705.78460	0.00256
703.85623	0.00302
701.92785	0.00253
699.99948	0.00332
698.07111	0.00404
696.14273	0.00426
694.21436	0.00419
692.28599	0.00554
690.35761	0.00820
688.42924	0.00976
686.50087	0.00851
684.57249	0.00651
682.64412	0.00628
680.71575	0.00708
678.78737	0.00759
676.85900	0.00793
674.93063	0.00871
673.00225	0.00959
671.07388	0.01056
669.14551	0.01279
667.21713	0.01481
665.28876	0.01234
663.36039	0.01013
661.43201	0.00919
659.50364	0.00807
657.57527	0.00619
655.64690	0.00490
653.71852	0.00552
651.79015	0.00968
649.86178	0.01247
647.93340	0.01227
646.00503	0.00994
644.07666	0.00770
642.14828	0.00615
640.21991	0.00578
638.29154	0.00592
636.36316	0.00529
634.43479	0.00417
632.50642	0.00101
630.57804	0.00277
628.64967	0.00208
626.72130	0.00280
624.79292	0.00323
622.86455	0.00234
620.93618	0.00298
619.00780	0.00380
617.07943	0.00994
615.15106	0.01342
613.22268	0.01116
611.29431	0.01008
609.36594	0.00829
607.43756	0.00737
605.50919	0.00957
603.58082	0.01271
601.65244	0.01089
599.72407	0.00827
