3997.51769	0.78862
3995.58931	0.78828
3993.66094	0.78815
3991.73257	0.78823
3989.80419	0.78872
3987.87582	0.78954
3985.94745	0.78990
3984.01907	0.78960
3982.09070	0.78938
3980.16233	0.78949
3978.23396	0.78951
3976.30558	0.78903
3974.37721	0.78851
3972.44884	0.78856
3970.52046	0.78904
3968.59209	0.79028
3966.66372	0.79230
3964.73534	0.79317
3962.80697	0.79182
3960.87860	0.79072
3958.95022	0.79146
3957.02185	0.79277
3955.09348	0.79370
3953.16510	0.79319
3951.23673	0.79025
3949.30836	0.78723
3947.37998	0.78795
3945.45161	0.78955
3943.52324	0.78832
3941.59486	0.78931
3939.66649	0.79466
3937.73812	0.79861
3935.80974	0.79754
3933.88137	0.79170
3931.95300	0.78649
3930.02462	0.78818
3928.09625	0.79249
3926.16788	0.79213
3924.23950	0.79035
3922.31113	0.79192
3920.38276	0.79225
3918.45439	0.78977
3916.52601	0.79171
3914.59764	0.80013
3912.66927	0.80784
3910.74089	0.81056
3908.81252	0.80764
3906.88415	0.79666
3904.95577	0.78022
3903.02740	0.76954
3901.09903	0.77044
3899.17065	0.78049
3897.24228	0.79539
3895.31391	0.80398
3893.38553	0.80013
3891.45716	0.79492
3889.52879	0.79877
3887.60041	0.79970
3885.67204	0.79335
3883.74367	0.79033
3881.81529	0.78930
3879.88692	0.79237
3877.95855	0.80282
3876.03017	0.80474
3874.10180	0.79532
3872.17343	0.78560
3870.24505	0.78113
3868.31668	0.78609
3866.38831	0.79107
3864.45994	0.78910
3862.53156	0.79295
3860.60319	0.80404
3858.67482	0.80748
3856.74644	0.79720
3854.81807	0.77620
3852.88970	0.76463
3850.96132	0.78392
3849.03295	0.80743
3847.10458	0.81742
3845.17620	0.81304
3843.24783	0.80048
3841.31946	0.78656
3839.39108	0.77601
3837.46271	0.77662
3835.53434	0.78758
3833.60596	0.79750
3831.67759	0.80482
3829.74922	0.81045
3827.82084	0.81121
3825.89247	0.80881
3823.96410	0.80208
3822.03572	0.78678
3820.10735	0.77939
3818.17898	0.78746
3816.25060	0.79649
3814.32223	0.80994
3812.39386	0.82377
3810.46548	0.82587
3808.53711	0.81545
3806.60874	0.80404
3804.68037	0.79825
3802.75199	0.78899
3800.82362	0.78450
3798.89525	0.79318
3796.96687	0.80218
3795.03850	0.81257
3793.11013	0.82429
3791.18175	0.82976
3789.25338	0.82908
3787.32501	0.82435
3785.39663	0.81832
3783.46826	0.81584
3781.53989	0.81289
3779.61151	0.80813
3777.68314	0.81189
3775.75477	0.82099
3773.82639	0.82243
3771.89802	0.81314
3769.96965	0.80188
3768.04127	0.79886
3766.11290	0.80133
3764.18453	0.80528
3762.25615	0.80522
3760.32778	0.79590
3758.39941	0.78748
3756.47103	0.78722
3754.54266	0.78238
3752.61429	0.76462
3750.68591	0.74784
3748.75754	0.75052
3746.82917	0.75565
3744.90080	0.75437
3742.97242	0.76131
3741.04405	0.77147
3739.11568	0.76893
3737.18730	0.75149
3735.25893	0.73369
3733.33056	0.73831
3731.40218	0.76024
3729.47381	0.77594
3727.54544	0.77591
3725.61706	0.76788
3723.68869	0.76308
3721.76032	0.76401
3719.83194	0.76880
3717.90357	0.77365
3715.97520	0.77209
3714.04682	0.75853
3712.11845	0.73759
3710.19008	0.73101
3708.26170	0.74448
3706.33333	0.75718
3704.40496	0.75672
3702.47658	0.74744
3700.54821	0.74314
3698.61984	0.74520
3696.69146	0.74375
3694.76309	0.73513
3692.83472	0.71765
3690.90635	0.69338
3688.97797	0.67874
3687.04960	0.68396
3685.12123	0.69159
3683.19285	0.68905
3681.26448	0.67543
3679.33611	0.65364
3677.40773	0.62553
3675.47936	0.59887
3673.55099	0.58963
3671.62261	0.58392
3669.69424	0.57125
3667.76587	0.56618
3665.83749	0.56549
3663.90912	0.55677
3661.98075	0.54093
3660.05237	0.52203
3658.12400	0.50003
3656.19563	0.47632
3654.26725	0.45589
3652.33888	0.43338
3650.41051	0.40161
3648.48213	0.37391
3646.55376	0.36559
3644.62539	0.36344
3642.69701	0.35544
3640.76864	0.34129
3638.84027	0.32506
3636.91189	0.30855
3634.98352	0.29147
3633.05515	0.27424
3631.12678	0.25640
3629.19840	0.23615
3627.27003	0.22142
3625.34166	0.21481
3623.41328	0.20640
3621.48491	0.19328
3619.55654	0.17798
3617.62816	0.16528
3615.69979	0.15592
3613.77142	0.14680
3611.84304	0.13785
3609.91467	0.12935
3607.98630	0.12085
3606.05792	0.11382
3604.12955	0.10813
3602.20118	0.10145
3600.27280	0.09389
3598.34443	0.08692
3596.41606	0.08063
3594.48768	0.07493
3592.55931	0.07002
3590.63094	0.06535
3588.70256	0.05971
3586.77419	0.05425
3584.84582	0.05071
3582.91744	0.04775
3580.98907	0.04435
3579.06070	0.04089
3577.13233	0.03775
3575.20395	0.03469
3573.27558	0.03183
3571.34721	0.02930
3569.41883	0.02665
3567.49046	0.02384
3565.56209	0.02160
3563.63371	0.02027
3561.70534	0.01900
3559.77697	0.01760
3557.84859	0.01633
3555.92022	0.01486
3553.99185	0.01305
3552.06347	0.01145
3550.13510	0.01053
3548.20673	0.00973
3546.27835	0.00869
3544.34998	0.00785
3542.42161	0.00730
3540.49323	0.00660
3538.56486	0.00565
3536.63649	0.00482
3534.70811	0.00409
3532.77974	0.00345
3530.85137	0.00295
3528.92299	0.00251
3526.99462	0.00204
3525.06625	0.00159
3523.13787	0.00121
3521.20950	0.00097
3519.28113	0.00089
3517.35276	0.00078
3515.42438	0.00048
3513.49601	0.00032
3511.56764	0.00047
3509.63926	0.00080
3507.71089	0.00108
3505.78252	0.00124
3503.85414	0.00125
3501.92577	0.00113
3499.99740	0.00104
3498.06902	0.00116
3496.14065	0.00133
3494.21228	0.00140
3492.28390	0.00134
3490.35553	0.00145
3488.42716	0.00159
3486.49878	0.00145
3484.57041	0.00122
3482.64204	0.00112
3480.71366	0.00124
3478.78529	0.00139
3476.85692	0.00144
3474.92854	0.00131
3473.00017	0.00108
3471.07180	0.00098
3469.14342	0.00096
3467.21505	0.00107
3465.28668	0.00118
3463.35831	0.00131
3461.42993	0.00153
3459.50156	0.00169
3457.57319	0.00162
3455.64481	0.00137
3453.71644	0.00110
3451.78807	0.00111
3449.85969	0.00128
3447.93132	0.00137
3446.00295	0.00129
3444.07457	0.00120
3442.14620	0.00120
3440.21783	0.00122
3438.28945	0.00119
3436.36108	0.00121
3434.43271	0.00121
3432.50433	0.00122
3430.57596	0.00129
3428.64759	0.00130
3426.71921	0.00142
3424.79084	0.00162
3422.86247	0.00165
3420.93409	0.00162
3419.00572	0.00161
3417.07735	0.00152
3415.14897	0.00153
3413.22060	0.00152
3411.29223	0.00152
3409.36385	0.00156
3407.43548	0.00152
3405.50711	0.00138
3403.57874	0.00131
3401.65036	0.00140
3399.72199	0.00156
3397.79362	0.00164
3395.86524	0.00163
3393.93687	0.00156
3392.00850	0.00150
3390.08012	0.00141
3388.15175	0.00120
3386.22338	0.00101
3384.29500	0.00096
3382.36663	0.00102
3380.43826	0.00117
3378.50988	0.00130
3376.58151	0.00136
3374.65314	0.00142
3372.72476	0.00152
3370.79639	0.00154
3368.86802	0.00139
3366.93964	0.00119
3365.01127	0.00117
3363.08290	0.00126
3361.15452	0.00120
3359.22615	0.00098
3357.29778	0.00094
3355.36940	0.00092
3353.44103	0.00087
3351.51266	0.00085
3349.58428	0.00082
3347.65591	0.00088
3345.72754	0.00106
3343.79917	0.00132
3341.87079	0.00141
3339.94242	0.00117
3338.01405	0.00093
3336.08567	0.00095
3334.15730	0.00114
3332.22893	0.00135
3330.30055	0.00158
3328.37218	0.00172
3326.44381	0.00176
3324.51543	0.00162
3322.58706	0.00125
3320.65869	0.00105
3318.73031	0.00110
3316.80194	0.00106
3314.87357	0.00103
3312.94519	0.00114
3311.01682	0.00141
3309.08845	0.00158
3307.16007	0.00144
3305.23170	0.00116
3303.30333	0.00103
3301.37495	0.00108
3299.44658	0.00106
3297.51821	0.00103
3295.58983	0.00104
3293.66146	0.00099
3291.73309	0.00098
3289.80472	0.00098
3287.87634	0.00095
3285.94797	0.00109
3284.01960	0.00127
3282.09122	0.00116
3280.16285	0.00098
3278.23448	0.00110
3276.30610	0.00137
3274.37773	0.00144
3272.44936	0.00134
3270.52098	0.00119
3268.59261	0.00100
3266.66424	0.00091
3264.73586	0.00101
3262.80749	0.00109
3260.87912	0.00103
3258.95074	0.00084
3257.02237	0.00076
3255.09400	0.00083
3253.16562	0.00103
3251.23725	0.00131
3249.30888	0.00143
3247.38050	0.00130
3245.45213	0.00116
3243.52376	0.00090
3241.59538	0.00064
3239.66701	0.00068
3237.73864	0.00105
3235.81026	0.00134
3233.88189	0.00122
3231.95352	0.00090
3230.02515	0.00078
3228.09677	0.00093
3226.16840	0.00114
3224.24003	0.00121
3222.31165	0.00111
3220.38328	0.00100
3218.45491	0.00097
3216.52653	0.00094
3214.59816	0.00102
3212.66979	0.00120
3210.74141	0.00125
3208.81304	0.00108
3206.88467	0.00087
3204.95629	0.00076
3203.02792	0.00077
3201.09955	0.00089
3199.17117	0.00104
3197.24280	0.00115
3195.31443	0.00112
3193.38605	0.00110
3191.45768	0.00120
3189.52931	0.00110
3187.60093	0.00101
3185.67256	0.00106
3183.74419	0.00100
3181.81581	0.00105
3179.88744	0.00121
3177.95907	0.00117
3176.03070	0.00102
3174.10232	0.00097
3172.17395	0.00105
3170.24558	0.00121
3168.31720	0.00128
3166.38883	0.00113
3164.46046	0.00095
3162.53208	0.00084
3160.60371	0.00079
3158.67534	0.00082
3156.74696	0.00086
3154.81859	0.00087
3152.89022	0.00093
3150.96184	0.00093
3149.03347	0.00095
3147.10510	0.00107
3145.17672	0.00101
3143.24835	0.00075
3141.31998	0.00075
3139.39160	0.00100
3137.46323	0.00110
3135.53486	0.00107
3133.60648	0.00109
3131.67811	0.00104
3129.74974	0.00092
3127.82136	0.00089
3125.89299	0.00092
3123.96462	0.00097
3122.03624	0.00114
3120.10787	0.00126
3118.17950	0.00123
3116.25113	0.00124
3114.32275	0.00133
3112.39438	0.00136
3110.46601	0.00125
3108.53763	0.00114
3106.60926	0.00112
3104.68089	0.00111
3102.75251	0.00103
3100.82414	0.00101
3098.89577	0.00116
3096.96739	0.00128
3095.03902	0.00125
3093.11065	0.00128
3091.18227	0.00142
3089.25390	0.00150
3087.32553	0.00137
3085.39715	0.00120
3083.46878	0.00114
3081.54041	0.00119
3079.61203	0.00128
3077.68366	0.00130
3075.75529	0.00127
3073.82691	0.00118
3071.89854	0.00099
3069.97017	0.00098
3068.04179	0.00120
3066.11342	0.00128
3064.18505	0.00113
3062.25668	0.00101
3060.32830	0.00107
3058.39993	0.00111
3056.47156	0.00107
3054.54318	0.00109
3052.61481	0.00110
3050.68644	0.00113
3048.75806	0.00114
3046.82969	0.00103
3044.90132	0.00097
3042.97294	0.00105
3041.04457	0.00115
3039.11620	0.00121
3037.18782	0.00126
3035.25945	0.00125
3033.33108	0.00109
3031.40270	0.00100
3029.47433	0.00108
3027.54596	0.00115
3025.61758	0.00118
3023.68921	0.00123
3021.76084	0.00114
3019.83246	0.00100
3017.90409	0.00103
3015.97572	0.00122
3014.04734	0.00144
3012.11897	0.00147
3010.19060	0.00135
3008.26222	0.00121
3006.33385	0.00111
3004.40548	0.00106
3002.47711	0.00105
3000.54873	0.00107
2998.62036	0.00110
2996.69199	0.00118
2994.76361	0.00127
2992.83524	0.00138
2990.90687	0.00151
2988.97849	0.00152
2987.05012	0.00139
2985.12175	0.00120
2983.19337	0.00109
2981.26500	0.00102
2979.33663	0.00110
2977.40825	0.00124
2975.47988	0.00142
2973.55151	0.00166
2971.62313	0.00196
2969.69476	0.00208
2967.76639	0.00189
2965.83801	0.00174
2963.90964	0.00182
2961.98127	0.00182
2960.05289	0.00165
2958.12452	0.00145
2956.19615	0.00159
2954.26777	0.00182
2952.33940	0.00196
2950.41103	0.00184
2948.48266	0.00158
2946.55428	0.00137
2944.62591	0.00127
2942.69754	0.00132
2940.76916	0.00152
2938.84079	0.00168
2936.91242	0.00170
2934.98404	0.00175
2933.05567	0.00192
2931.12730	0.00200
2929.19892	0.00198
2927.27055	0.00200
2925.34218	0.00187
2923.41380	0.00153
2921.48543	0.00136
2919.55706	0.00138
2917.62868	0.00149
2915.70031	0.00167
2913.77194	0.00175
2911.84356	0.00168
2909.91519	0.00155
2907.98682	0.00139
2906.05844	0.00124
2904.13007	0.00114
2902.20170	0.00126
2900.27332	0.00141
2898.34495	0.00130
2896.41658	0.00109
2894.48820	0.00101
2892.55983	0.00103
2890.63146	0.00114
2888.70309	0.00139
2886.77471	0.00151
2884.84634	0.00140
2882.91797	0.00130
2880.98959	0.00131
2879.06122	0.00134
2877.13285	0.00142
2875.20447	0.00155
2873.27610	0.00151
2871.34773	0.00120
2869.41935	0.00090
2867.49098	0.00088
2865.56261	0.00089
2863.63423	0.00086
2861.70586	0.00083
2859.77749	0.00082
2857.84911	0.00084
2855.92074	0.00078
2853.99237	0.00056
2852.06399	0.00043
2850.13562	0.00052
2848.20725	0.00074
2846.27887	0.00078
2844.35050	0.00066
2842.42213	0.00058
2840.49375	0.00062
2838.56538	0.00077
2836.63701	0.00075
2834.70863	0.00057
2832.78026	0.00043
2830.85189	0.00025
2828.92352	0.00027
2826.99514	0.00036
2825.06677	0.00035
2823.13840	0.00028
2821.21002	0.00031
2819.28165	0.00050
2817.35328	0.00067
2815.42490	0.00072
2813.49653	0.00067
2811.56816	0.00069
2809.63978	0.00079
2807.71141	0.00078
2805.78304	0.00066
2803.85466	0.00057
2801.92629	0.00043
2799.99792	0.00029
2798.06954	0.00018
2796.14117	0.00012
2794.21280	0.00016
2792.28442	0.00030
2790.35605	0.00038
2788.42768	0.00033
2786.49930	0.00027
2784.57093	0.00033
2782.64256	0.00031
2780.71418	0.00029
2778.78581	0.00033
2776.85744	0.00035
2774.92907	0.00033
2773.00069	0.00034
2771.07232	0.00040
2769.14395	0.00047
2767.21557	0.00059
2765.28720	0.00068
2763.35883	0.00072
2761.43045	0.00079
2759.50208	0.00085
2757.57371	0.00095
2755.64533	0.00105
2753.71696	0.00108
2751.78859	0.00115
2749.86021	0.00119
2747.93184	0.00108
2746.00347	0.00100
2744.07509	0.00117
2742.14672	0.00155
2740.21835	0.00198
2738.28997	0.00221
2736.36160	0.00219
2734.43323	0.00215
2732.50485	0.00234
2730.57648	0.00265
2728.64811	0.00288
2726.71973	0.00295
2724.79136	0.00291
2722.86299	0.00287
2720.93461	0.00293
2719.00624	0.00308
2717.07787	0.00329
2715.14950	0.00357
2713.22112	0.00376
2711.29275	0.00377
2709.36438	0.00371
2707.43600	0.00367
2705.50763	0.00369
2703.57926	0.00381
2701.65088	0.00394
2699.72251	0.00400
2697.79414	0.00408
2695.86576	0.00422
2693.93739	0.00435
2692.00902	0.00440
2690.08064	0.00438
2688.15227	0.00441
2686.22390	0.00455
2684.29552	0.00472
2682.36715	0.00487
2680.43878	0.00497
2678.51040	0.00503
2676.58203	0.00513
2674.65366	0.00538
2672.72528	0.00577
2670.79691	0.00614
2668.86854	0.00632
2666.94016	0.00639
2665.01179	0.00652
2663.08342	0.00667
2661.15505	0.00686
2659.22667	0.00714
2657.29830	0.00740
2655.36993	0.00765
2653.44155	0.00796
2651.51318	0.00822
2649.58481	0.00836
2647.65643	0.00847
2645.72806	0.00861
2643.79969	0.00881
2641.87131	0.00907
2639.94294	0.00930
2638.01457	0.00958
2636.08619	0.00997
2634.15782	0.01031
2632.22945	0.01049
2630.30107	0.01071
2628.37270	0.01114
2626.44433	0.01166
2624.51595	0.01213
2622.58758	0.01255
2620.65921	0.01305
2618.73083	0.01357
2616.80246	0.01400
2614.87409	0.01432
2612.94571	0.01465
2611.01734	0.01508
2609.08897	0.01559
2607.16059	0.01611
2605.23222	0.01663
2603.30385	0.01714
2601.37548	0.01764
2599.44710	0.01820
2597.51873	0.01881
2595.59036	0.01936
2593.66198	0.01989
2591.73361	0.02040
2589.80524	0.02091
2587.87686	0.02155
2585.94849	0.02230
2584.02012	0.02299
2582.09174	0.02356
2580.16337	0.02414
2578.23500	0.02480
2576.30662	0.02548
2574.37825	0.02607
2572.44988	0.02658
2570.52150	0.02715
2568.59313	0.02780
2566.66476	0.02846
2564.73638	0.02911
2562.80801	0.02979
2560.87964	0.03051
2558.95126	0.03126
2557.02289	0.03201
2555.09452	0.03279
2553.16614	0.03349
2551.23777	0.03405
2549.30940	0.03458
2547.38103	0.03519
2545.45265	0.03585
2543.52428	0.03656
2541.59591	0.03730
2539.66753	0.03798
2537.73916	0.03857
2535.81079	0.03921
2533.88241	0.03998
2531.95404	0.04076
2530.02567	0.04141
2528.09729	0.04197
2526.16892	0.04256
2524.24055	0.04327
2522.31217	0.04419
2520.38380	0.04524
2518.45543	0.04620
2516.52705	0.04696
2514.59868	0.04765
2512.67031	0.04841
2510.74193	0.04918
2508.81356	0.04990
2506.88519	0.05060
2504.95681	0.05137
2503.02844	0.05222
2501.10007	0.05308
2499.17169	0.05388
2497.24332	0.05465
2495.31495	0.05544
2493.38657	0.05617
2491.45820	0.05693
2489.52983	0.05785
2487.60146	0.05879
2485.67308	0.05954
2483.74471	0.06028
2481.81634	0.06113
2479.88796	0.06202
2477.95959	0.06296
2476.03122	0.06395
2474.10284	0.06491
2472.17447	0.06589
2470.24610	0.06702
2468.31772	0.06828
2466.38935	0.06953
2464.46098	0.07071
2462.53260	0.07189
2460.60423	0.07307
2458.67586	0.07425
2456.74748	0.07548
2454.81911	0.07683
2452.89074	0.07824
2450.96236	0.07962
2449.03399	0.08094
2447.10562	0.08229
2445.17724	0.08365
2443.24887	0.08503
2441.32050	0.08643
2439.39212	0.08785
2437.46375	0.08919
2435.53538	0.09042
2433.60700	0.09169
2431.67863	0.09308
2429.75026	0.09451
2427.82189	0.09588
2425.89351	0.09717
2423.96514	0.09850
2422.03677	0.09988
2420.10839	0.10125
2418.18002	0.10266
2416.25165	0.10407
2414.32327	0.10548
2412.39490	0.10696
2410.46653	0.10847
2408.53815	0.11000
2406.60978	0.11159
2404.68141	0.11320
2402.75303	0.11482
2400.82466	0.11643
2398.89629	0.11808
2396.96791	0.11985
2395.03954	0.12178
2393.11117	0.12376
2391.18279	0.12566
2389.25442	0.12736
2387.32605	0.12884
2385.39767	0.13021
2383.46930	0.13140
2381.54093	0.13239
2379.61255	0.13338
2377.68418	0.13442
2375.75581	0.13522
2373.82744	0.13571
2371.89906	0.13627
2369.97069	0.13692
2368.04232	0.13737
2366.11394	0.13768
2364.18557	0.13838
2362.25720	0.13981
2360.32882	0.14167
2358.40045	0.14355
2356.47208	0.14557
2354.54370	0.14836
2352.61533	0.15183
2350.68696	0.15469
2348.75858	0.15625
2346.83021	0.15683
2344.90184	0.15718
2342.97346	0.15802
2341.04509	0.15933
2339.11672	0.16070
2337.18834	0.16183
2335.25997	0.16286
2333.33160	0.16406
2331.40322	0.16556
2329.47485	0.16741
2327.54648	0.16954
2325.61810	0.17158
2323.68973	0.17348
2321.76136	0.17545
2319.83298	0.17751
2317.90461	0.17969
2315.97624	0.18199
2314.04787	0.18418
2312.11949	0.18632
2310.19112	0.18855
2308.26275	0.19090
2306.33437	0.19330
2304.40600	0.19568
2302.47763	0.19801
2300.54925	0.20030
2298.62088	0.20248
2296.69251	0.20456
2294.76413	0.20663
2292.83576	0.20873
2290.90739	0.21081
2288.97901	0.21287
2287.05064	0.21489
2285.12227	0.21682
2283.19389	0.21855
2281.26552	0.22012
2279.33715	0.22174
2277.40877	0.22346
2275.48040	0.22515
2273.55203	0.22675
2271.62365	0.22821
2269.69528	0.22961
2267.76691	0.23107
2265.83853	0.23256
2263.91016	0.23403
2261.98179	0.23556
2260.05342	0.23712
2258.12504	0.23867
2256.19667	0.24027
2254.26830	0.24190
2252.33992	0.24353
2250.41155	0.24518
2248.48318	0.24683
2246.55480	0.24845
2244.62643	0.25005
2242.69806	0.25149
2240.76968	0.25275
2238.84131	0.25393
2236.91294	0.25508
2234.98456	0.25628
2233.05619	0.25756
2231.12782	0.25879
2229.19944	0.25991
2227.27107	0.26102
2225.34270	0.26215
2223.41432	0.26321
2221.48595	0.26417
2219.55758	0.26514
2217.62920	0.26623
2215.70083	0.26737
2213.77246	0.26847
2211.84408	0.26965
2209.91571	0.27092
2207.98734	0.27220
2206.05896	0.27344
2204.13059	0.27468
2202.20222	0.27584
2200.27385	0.27681
2198.34547	0.27768
2196.41710	0.27859
2194.48873	0.27955
2192.56035	0.28054
2190.63198	0.28156
2188.70361	0.28247
2186.77523	0.28324
2184.84686	0.28397
2182.91849	0.28474
2180.99011	0.28550
2179.06174	0.28621
2177.13337	0.28681
2175.20499	0.28729
2173.27662	0.28764
2171.34825	0.28800
2169.41987	0.28844
2167.49150	0.28888
2165.56313	0.28920
2163.63475	0.28939
2161.70638	0.28956
2159.77801	0.28989
2157.84963	0.29045
2155.92126	0.29107
2153.99289	0.29165
2152.06451	0.29220
2150.13614	0.29278
2148.20777	0.29339
2146.27940	0.29394
2144.35102	0.29449
2142.42265	0.29519
2140.49428	0.29597
2138.56590	0.29666
2136.63753	0.29732
2134.70916	0.29816
2132.78078	0.29920
2130.85241	0.30029
2128.92404	0.30139
2126.99566	0.30257
2125.06729	0.30375
2123.13892	0.30496
2121.21054	0.30633
2119.28217	0.30781
2117.35380	0.30922
2115.42542	0.31049
2113.49705	0.31172
2111.56868	0.31297
2109.64030	0.31425
2107.71193	0.31554
2105.78356	0.31683
2103.85518	0.31800
2101.92681	0.31906
2099.99844	0.32018
2098.07006	0.32138
2096.14169	0.32244
2094.21332	0.32337
2092.28494	0.32421
2090.35657	0.32491
2088.42820	0.32567
2086.49983	0.32660
2084.57145	0.32748
2082.64308	0.32815
2080.71471	0.32866
2078.78633	0.32904
2076.85796	0.32936
2074.92959	0.32968
2073.00121	0.33005
2071.07284	0.33045
2069.14447	0.33062
2067.21609	0.33042
2065.28772	0.33021
2063.35935	0.33043
2061.43097	0.33102
2059.50260	0.33172
2057.57423	0.33249
2055.64585	0.33320
2053.71748	0.33395
2051.78911	0.33484
2049.86073	0.33579
2047.93236	0.33671
2046.00399	0.33758
2044.07561	0.33831
2042.14724	0.33900
2040.21887	0.33997
2038.29049	0.34111
2036.36212	0.34200
2034.43375	0.34261
2032.50538	0.34311
2030.57700	0.34359
2028.64863	0.34389
2026.72026	0.34391
2024.79188	0.34386
2022.86351	0.34381
2020.93514	0.34349
2019.00676	0.34272
2017.07839	0.34223
2015.15002	0.34282
2013.22164	0.34382
2011.29327	0.34434
2009.36490	0.34453
2007.43652	0.34483
2005.50815	0.34528
2003.57978	0.34574
2001.65140	0.34613
1999.72303	0.34654
1997.79466	0.34712
1995.86628	0.34734
1993.93791	0.34649
1992.00954	0.34575
1990.08116	0.34664
1988.15279	0.34835
1986.22442	0.34977
1984.29604	0.35080
1982.36767	0.35147
1980.43930	0.35195
1978.51092	0.35240
1976.58255	0.35283
1974.65418	0.35322
1972.72581	0.35352
1970.79743	0.35331
1968.86906	0.35229
1966.94069	0.35176
1965.01231	0.35283
1963.08394	0.35421
1961.15557	0.35479
1959.22719	0.35498
1957.29882	0.35503
1955.37045	0.35504
1953.44207	0.35531
1951.51370	0.35572
1949.58533	0.35584
1947.65695	0.35534
1945.72858	0.35380
1943.80021	0.35165
1941.87183	0.35138
1939.94346	0.35371
1938.01509	0.35574
1936.08671	0.35616
1934.15834	0.35597
1932.22997	0.35592
1930.30159	0.35608
1928.37322	0.35612
1926.44485	0.35530
1924.51647	0.35322
1922.58810	0.35170
1920.65973	0.35152
1918.73135	0.35129
1916.80298	0.35245
1914.87461	0.35523
1912.94624	0.35649
1911.01786	0.35558
1909.08949	0.35479
1907.16112	0.35552
1905.23274	0.35665
1903.30437	0.35715
1901.37600	0.35727
1899.44762	0.35698
1897.51925	0.35572
1895.59088	0.35412
1893.66250	0.35322
1891.73413	0.35164
1889.80576	0.34944
1887.87738	0.34948
1885.94901	0.35081
1884.02064	0.35105
1882.09226	0.35056
1880.16389	0.34980
1878.23552	0.34880
1876.30714	0.34777
1874.37877	0.34634
1872.45040	0.34277
1870.52202	0.33601
1868.59365	0.33044
1866.66528	0.33149
1864.73690	0.33545
1862.80853	0.33703
1860.88016	0.33626
1858.95179	0.33487
1857.02341	0.33376
1855.09504	0.33284
1853.16667	0.33179
1851.23829	0.33010
1849.30992	0.32718
1847.38155	0.32274
1845.45317	0.31763
1843.52480	0.31635
1841.59643	0.32005
1839.66805	0.32260
1837.73968	0.32210
1835.81131	0.32120
1833.88293	0.31970
1831.95456	0.31490
1830.02619	0.30911
1828.09781	0.30727
1826.16944	0.30723
1824.24107	0.30700
1822.31269	0.30764
1820.38432	0.30711
1818.45595	0.30428
1816.52757	0.30061
1814.59920	0.29607
1812.67083	0.28962
1810.74245	0.28273
1808.81408	0.27784
1806.88571	0.27362
1804.95733	0.26736
1803.02896	0.25831
1801.10059	0.24819
1799.17222	0.23985
1797.24384	0.23268
1795.31547	0.22362
1793.38710	0.21167
1791.45872	0.20097
1789.53035	0.19509
1787.60198	0.18954
1785.67360	0.18119
1783.74523	0.17174
1781.81686	0.16279
1779.88848	0.15466
1777.96011	0.14755
1776.03174	0.14005
1774.10336	0.13059
1772.17499	0.12062
1770.24662	0.11378
1768.31824	0.10909
1766.38987	0.10369
1764.46150	0.09676
1762.53312	0.08761
1760.60475	0.07761
1758.67638	0.06845
1756.74800	0.05881
1754.81963	0.04919
1752.89126	0.03994
1750.96288	0.03002
1749.03451	0.02085
1747.10614	0.01410
1745.17777	0.00906
1743.24939	0.00522
1741.32102	0.00257
1739.39265	0.00091
1737.46427	0.00031
1735.53590	0.00090
1733.60753	0.00149
1731.67915	0.00145
1729.75078	0.00118
1727.82241	0.00107
1725.89403	0.00116
1723.96566	0.00120
1722.03729	0.00121
1720.10891	0.00125
1718.18054	0.00133
1716.25217	0.00141
1714.32379	0.00134
1712.39542	0.00120
1710.46705	0.00108
1708.53867	0.00109
1706.61030	0.00116
1704.68193	0.00120
1702.75355	0.00134
1700.82518	0.00155
1698.89681	0.00164
1696.96843	0.00157
1695.04006	0.00140
1693.11169	0.00124
1691.18331	0.00128
1689.25494	0.00142
1687.32657	0.00150
1685.39820	0.00169
1683.46982	0.00177
1681.54145	0.00148
1679.61308	0.00119
1677.68470	0.00112
1675.75633	0.00120
1673.82796	0.00123
1671.89958	0.00127
1669.97121	0.00131
1668.04284	0.00118
1666.11446	0.00101
1664.18609	0.00103
1662.25772	0.00115
1660.32934	0.00109
1658.40097	0.00090
1656.47260	0.00087
1654.54422	0.00121
1652.61585	0.00146
1650.68748	0.00121
1648.75910	0.00108
1646.83073	0.00112
1644.90236	0.00102
1642.97398	0.00095
1641.04561	0.00101
1639.11724	0.00110
1637.18886	0.00119
1635.26049	0.00119
1633.33212	0.00102
1631.40375	0.00082
1629.47537	0.00073
1627.54700	0.00082
1625.61863	0.00098
1623.69025	0.00106
1621.76188	0.00100
1619.83351	0.00094
1617.90513	0.00093
1615.97676	0.00088
1614.04839	0.00079
1612.12001	0.00087
1610.19164	0.00109
1608.26327	0.00129
1606.33489	0.00128
1604.40652	0.00108
1602.47815	0.00085
1600.54977	0.00069
1598.62140	0.00067
1596.69303	0.00084
1594.76465	0.00100
1592.83628	0.00099
1590.90791	0.00093
1588.97953	0.00093
1587.05116	0.00091
1585.12279	0.00080
1583.19441	0.00080
1581.26604	0.00097
1579.33767	0.00110
1577.40929	0.00111
1575.48092	0.00108
1573.55255	0.00105
1571.62418	0.00108
1569.69580	0.00113
1567.76743	0.00108
1565.83906	0.00109
1563.91068	0.00118
1561.98231	0.00128
1560.05394	0.00151
1558.12556	0.00158
1556.19719	0.00126
1554.26882	0.00108
1552.34044	0.00100
1550.41207	0.00094
1548.48370	0.00090
1546.55532	0.00092
1544.62695	0.00096
1542.69858	0.00097
1540.77020	0.00107
1538.84183	0.00116
1536.91346	0.00112
1534.98508	0.00114
1533.05671	0.00119
1531.12834	0.00108
1529.19996	0.00096
1527.27159	0.00100
1525.34322	0.00113
1523.41484	0.00132
1521.48647	0.00148
1519.55810	0.00139
1517.62972	0.00119
1515.70135	0.00109
1513.77298	0.00099
1511.84461	0.00090
1509.91623	0.00096
1507.98786	0.00126
1506.05949	0.00144
1504.13111	0.00112
1502.20274	0.00079
1500.27437	0.00069
1498.34599	0.00078
1496.41762	0.00085
1494.48925	0.00074
1492.56087	0.00063
1490.63250	0.00060
1488.70413	0.00056
1486.77575	0.00065
1484.84738	0.00066
1482.91901	0.00067
1480.99063	0.00081
1479.06226	0.00104
1477.13389	0.00113
1475.20551	0.00108
1473.27714	0.00097
1471.34877	0.00094
1469.42039	0.00097
1467.49202	0.00091
1465.56365	0.00081
1463.63527	0.00086
1461.70690	0.00100
1459.77853	0.00115
1457.85016	0.00139
1455.92178	0.00139
1453.99341	0.00110
1452.06504	0.00096
1450.13666	0.00105
1448.20829	0.00121
1446.27992	0.00119
1444.35154	0.00108
1442.42317	0.00097
1440.49480	0.00092
1438.56642	0.00099
1436.63805	0.00101
1434.70968	0.00090
1432.78130	0.00081
1430.85293	0.00085
1428.92456	0.00092
1426.99618	0.00094
1425.06781	0.00101
1423.13944	0.00112
1421.21106	0.00121
1419.28269	0.00124
1417.35432	0.00114
1415.42594	0.00105
1413.49757	0.00112
1411.56920	0.00123
1409.64082	0.00113
1407.71245	0.00102
1405.78408	0.00107
1403.85570	0.00116
1401.92733	0.00119
1399.99896	0.00116
1398.07059	0.00118
1396.14221	0.00134
1394.21384	0.00151
1392.28547	0.00149
1390.35709	0.00132
1388.42872	0.00114
1386.50035	0.00112
1384.57197	0.00126
1382.64360	0.00147
1380.71523	0.00157
1378.78685	0.00152
1376.85848	0.00144
1374.93011	0.00142
1373.00173	0.00146
1371.07336	0.00144
1369.14499	0.00141
1367.21661	0.00145
1365.28824	0.00148
1363.35987	0.00135
1361.43149	0.00109
1359.50312	0.00093
1357.57475	0.00090
1355.64637	0.00087
1353.71800	0.00077
1351.78963	0.00074
1349.86125	0.00087
1347.93288	0.00112
1346.00451	0.00135
1344.07614	0.00146
1342.14776	0.00139
1340.21939	0.00125
1338.29102	0.00119
1336.36264	0.00113
1334.43427	0.00102
1332.50590	0.00099
1330.57752	0.00103
1328.64915	0.00112
1326.72078	0.00124
1324.79240	0.00127
1322.86403	0.00119
1320.93566	0.00122
1319.00728	0.00139
1317.07891	0.00143
1315.15054	0.00126
1313.22216	0.00108
1311.29379	0.00110
1309.36542	0.00120
1307.43704	0.00122
1305.50867	0.00115
1303.58030	0.00111
1301.65192	0.00114
1299.72355	0.00119
1297.79518	0.00125
1295.86680	0.00132
1293.93843	0.00128
1292.01006	0.00106
1290.08168	0.00091
1288.15331	0.00108
1286.22494	0.00140
1284.29657	0.00159
1282.36819	0.00159
1280.43982	0.00148
1278.51145	0.00140
1276.58307	0.00140
1274.65470	0.00144
1272.72633	0.00157
1270.79795	0.00172
1268.86958	0.00175
1266.94121	0.00171
1265.01283	0.00172
1263.08446	0.00177
1261.15609	0.00177
1259.22771	0.00165
1257.29934	0.00154
1255.37097	0.00156
1253.44259	0.00171
1251.51422	0.00187
1249.58585	0.00205
1247.65747	0.00222
1245.72910	0.00225
1243.80073	0.00232
1241.87235	0.00238
1239.94398	0.00228
1238.01561	0.00220
1236.08723	0.00216
1234.15886	0.00206
1232.23049	0.00210
1230.30212	0.00242
1228.37374	0.00276
1226.44537	0.00304
1224.51700	0.00330
1222.58862	0.00345
1220.66025	0.00356
1218.73188	0.00374
1216.80350	0.00408
1214.87513	0.00441
1212.94676	0.00449
1211.01838	0.00447
1209.09001	0.00453
1207.16164	0.00454
1205.23326	0.00441
1203.30489	0.00440
1201.37652	0.00466
1199.44814	0.00512
1197.51977	0.00584
1195.59140	0.00688
1193.66302	0.00808
1191.73465	0.00898
1189.80628	0.00939
1187.87790	0.00964
1185.94953	0.00985
1184.02116	0.00966
1182.09278	0.00893
1180.16441	0.00803
1178.23604	0.00719
1176.30766	0.00628
1174.37929	0.00521
1172.45092	0.00414
1170.52255	0.00329
1168.59417	0.00270
1166.66580	0.00250
1164.73743	0.00254
1162.80905	0.00273
1160.88068	0.00307
1158.95231	0.00322
1157.02393	0.00290
1155.09556	0.00234
1153.16719	0.00199
1151.23881	0.00220
1149.31044	0.00279
1147.38207	0.00359
1145.45369	0.00443
1143.52532	0.00497
1141.59695	0.00512
1139.66857	0.00506
1137.74020	0.00478
1135.81183	0.00419
1133.88345	0.00360
1131.95508	0.00336
1130.02671	0.00315
1128.09833	0.00269
1126.16996	0.00251
1124.24159	0.00277
1122.31321	0.00292
1120.38484	0.00271
1118.45647	0.00249
1116.52809	0.00261
1114.59972	0.00304
1112.67135	0.00333
1110.74298	0.00321
1108.81460	0.00313
1106.88623	0.00334
1104.95786	0.00316
1103.02948	0.00272
1101.10111	0.00272
1099.17274	0.00296
1097.24436	0.00303
1095.31599	0.00291
1093.38762	0.00264
1091.45924	0.00243
1089.53087	0.00263
1087.60250	0.00320
1085.67412	0.00361
1083.74575	0.00352
1081.81738	0.00306
1079.88900	0.00252
1077.96063	0.00221
1076.03226	0.00217
1074.10388	0.00221
1072.17551	0.00232
1070.24714	0.00265
1068.31876	0.00306
1066.39039	0.00328
1064.46202	0.00320
1062.53364	0.00293
1060.60527	0.00281
1058.67690	0.00272
1056.74853	0.00264
1054.82015	0.00271
1052.89178	0.00291
1050.96341	0.00316
1049.03503	0.00317
1047.10666	0.00290
1045.17829	0.00280
1043.24991	0.00296
1041.32154	0.00305
1039.39317	0.00296
1037.46479	0.00285
1035.53642	0.00273
1033.60805	0.00258
1031.67967	0.00238
1029.75130	0.00223
1027.82293	0.00217
1025.89455	0.00219
1023.96618	0.00237
1022.03781	0.00250
1020.10943	0.00228
1018.18106	0.00195
1016.25269	0.00192
1014.32431	0.00206
1012.39594	0.00213
1010.46757	0.00246
1008.53919	0.00302
1006.61082	0.00340
1004.68245	0.00366
1002.75407	0.00432
1000.82570	0.00548
998.89733	0.00683
996.96896	0.00817
995.04058	0.00932
993.11221	0.01037
991.18384	0.01162
989.25546	0.01301
987.32709	0.01410
985.39872	0.01479
983.47034	0.01533
981.54197	0.01568
979.61360	0.01554
977.68522	0.01519
975.75685	0.01541
973.82848	0.01673
971.90010	0.01925
969.97173	0.02278
968.04336	0.02679
966.11498	0.03038
964.18661	0.03237
962.25824	0.03179
960.32986	0.02823
958.40149	0.02271
956.47312	0.01784
954.54474	0.01590
952.61637	0.01707
950.68800	0.02011
948.75962	0.02383
946.83125	0.02763
944.90288	0.03125
942.97451	0.03453
941.04613	0.03758
939.11776	0.04048
937.18939	0.04267
935.26101	0.04375
933.33264	0.04431
931.40427	0.04472
929.47589	0.04471
927.54752	0.04410
925.61915	0.04284
923.69077	0.04106
921.76240	0.03936
919.83403	0.03851
917.90565	0.03873
915.97728	0.03937
914.04891	0.03966
912.12053	0.03929
910.19216	0.03795
908.26379	0.03543
906.33541	0.03216
904.40704	0.02866
902.47867	0.02535
900.55029	0.02275
898.62192	0.02096
896.69355	0.01963
894.76517	0.01859
892.83680	0.01797
890.90843	0.01784
888.98005	0.01787
887.05168	0.01755
885.12331	0.01681
883.19494	0.01628
881.26656	0.01612
879.33819	0.01584
877.40982	0.01547
875.48144	0.01533
873.55307	0.01536
871.62470	0.01537
869.69632	0.01511
867.76795	0.01467
865.83958	0.01434
863.91120	0.01414
861.98283	0.01400
860.05446	0.01378
858.12608	0.01349
856.19771	0.01320
854.26934	0.01276
852.34096	0.01198
850.41259	0.01124
848.48422	0.01104
846.55584	0.01102
844.62747	0.01058
842.69910	0.01000
840.77072	0.00969
838.84235	0.00948
836.91398	0.00903
834.98560	0.00863
833.05723	0.00863
831.12886	0.00859
829.20049	0.00820
827.27211	0.00792
825.34374	0.00819
823.41537	0.00838
821.48699	0.00785
819.55862	0.00729
817.63025	0.00727
815.70187	0.00749
813.77350	0.00779
811.84513	0.00780
809.91675	0.00740
807.98838	0.00692
806.06001	0.00637
804.13163	0.00553
802.20326	0.00471
800.27489	0.00415
798.34651	0.00392
796.41814	0.00386
794.48977	0.00386
792.56139	0.00385
790.63302	0.00360
788.70465	0.00349
786.77627	0.00385
784.84790	0.00425
782.91953	0.00405
780.99115	0.00349
779.06278	0.00325
777.13441	0.00331
775.20603	0.00367
773.27766	0.00438
771.34929	0.00487
769.42092	0.00482
767.49254	0.00450
765.56417	0.00433
763.63580	0.00446
761.70742	0.00444
759.77905	0.00434
757.85068	0.00470
755.92230	0.00501
753.99393	0.00469
752.06556	0.00449
750.13718	0.00463
748.20881	0.00487
746.28044	0.00514
744.35206	0.00539
742.42369	0.00551
740.49532	0.00576
738.56694	0.00599
736.63857	0.00568
734.71020	0.00485
732.78182	0.00404
730.85345	0.00379
728.92508	0.00416
726.99670	0.00465
725.06833	0.00485
723.13996	0.00486
721.21158	0.00493
719.28321	0.00494
717.35484	0.00474
715.42647	0.00449
713.49809	0.00415
711.56972	0.00372
709.64135	0.00386
707.71297	0.00456
705.78460	0.00517
703.85623	0.00559
701.92785	0.00575
699.99948	0.00568
698.07111	0.00609
696.14273	0.00686
694.21436	0.00691
692.28599	0.00628
690.35761	0.00604
688.42924	0.00649
686.50087	0.00675
684.57249	0.00673
682.64412	0.00718
680.71575	0.00796
678.78737	0.00791
676.85900	0.00686
674.93063	0.00650
673.00225	0.00753
671.07388	0.00972
669.14551	0.01285
667.21713	0.01323
665.28876	0.01029
663.36039	0.00792
661.43201	0.00682
659.50364	0.00705
657.57527	0.00795
655.64690	0.00879
653.71852	0.00919
651.79015	0.00961
649.86178	0.01058
647.93340	0.01130
646.00503	0.01089
644.07666	0.00991
642.14828	0.00922
640.21991	0.00926
638.29154	0.00984
636.36316	0.01066
634.43479	0.01104
632.50642	0.01065
630.57804	0.01064
628.64967	0.01124
626.72130	0.01139
624.79292	0.01185
622.86455	0.01337
620.93618	0.01465
619.00780	0.01530
617.07943	0.01642
615.15106	0.01756
613.22268	0.01795
611.29431	0.01761
609.36594	0.01717
607.43756	0.01642
605.50919	0.01584
603.58082	0.01671
601.65244	0.01951
599.72407	0.02289
