3997.51769	0.49301
3995.58931	0.49354
3993.66094	0.49367
3991.73257	0.49370
3989.80419	0.49394
3987.87582	0.49411
3985.94745	0.49427
3984.01907	0.49470
3982.09070	0.49538
3980.16233	0.49596
3978.23396	0.49645
3976.30558	0.49716
3974.37721	0.49774
3972.44884	0.49764
3970.52046	0.49715
3968.59209	0.49679
3966.66372	0.49679
3964.73534	0.49742
3962.80697	0.49868
3960.87860	0.49977
3958.95022	0.50044
3957.02185	0.50113
3955.09348	0.50190
3953.16510	0.50288
3951.23673	0.50409
3949.30836	0.50479
3947.37998	0.50453
3945.45161	0.50419
3943.52324	0.50438
3941.59486	0.50463
3939.66649	0.50491
3937.73812	0.50554
3935.80974	0.50635
3933.88137	0.50757
3931.95300	0.50883
3930.02462	0.50884
3928.09625	0.50848
3926.16788	0.50936
3924.23950	0.51062
3922.31113	0.51112
3920.38276	0.51170
3918.45439	0.51278
3916.52601	0.51336
3914.59764	0.51304
3912.66927	0.51284
3910.74089	0.51328
3908.81252	0.51439
3906.88415	0.51700
3904.95577	0.52149
3903.02740	0.52557
3901.09903	0.52677
3899.17065	0.52525
3897.24228	0.52291
3895.31391	0.52228
3893.38553	0.52384
3891.45716	0.52530
3889.52879	0.52518
3887.60041	0.52575
3885.67204	0.52764
3883.74367	0.52936
3881.81529	0.53118
3879.88692	0.53151
3877.95855	0.52932
3876.03017	0.52870
3874.10180	0.53110
3872.17343	0.53458
3870.24505	0.53703
3868.31668	0.53686
3866.38831	0.53664
3864.45994	0.53779
3862.53156	0.53730
3860.60319	0.53560
3858.67482	0.53540
3856.74644	0.53730
3854.81807	0.54207
3852.88970	0.54618
3850.96132	0.54291
3849.03295	0.53836
3847.10458	0.53663
3845.17620	0.53787
3843.24783	0.54050
3841.31946	0.54301
3839.39108	0.54504
3837.46271	0.54524
3835.53434	0.54357
3833.60596	0.54182
3831.67759	0.54006
3829.74922	0.53872
3827.82084	0.53872
3825.89247	0.53936
3823.96410	0.54087
3822.03572	0.54446
3820.10735	0.54640
3818.17898	0.54493
3816.25060	0.54322
3814.32223	0.54013
3812.39386	0.53690
3810.46548	0.53633
3808.53711	0.53847
3806.60874	0.54079
3804.68037	0.54194
3802.75199	0.54401
3800.82362	0.54478
3798.89525	0.54221
3796.96687	0.53960
3795.03850	0.53709
3793.11013	0.53487
3791.18175	0.53371
3789.25338	0.53331
3787.32501	0.53393
3785.39663	0.53522
3783.46826	0.53585
3781.53989	0.53589
3779.61151	0.53547
3777.68314	0.53376
3775.75477	0.53207
3773.82639	0.53230
3771.89802	0.53453
3769.96965	0.53657
3768.04127	0.53610
3766.11290	0.53467
3764.18453	0.53373
3762.25615	0.53368
3760.32778	0.53481
3758.39941	0.53525
3756.47103	0.53443
3754.54266	0.53510
3752.61429	0.53877
3750.68591	0.54200
3748.75754	0.54058
3746.82917	0.53909
3744.90080	0.53783
3742.97242	0.53328
3741.04405	0.52922
3739.11568	0.52896
3737.18730	0.53203
3735.25893	0.53471
3733.33056	0.53204
3731.40218	0.52621
3729.47381	0.52208
3727.54544	0.52043
3725.61706	0.51965
3723.68869	0.51837
3721.76032	0.51622
3719.83194	0.51283
3717.90357	0.50903
3715.97520	0.50669
3714.04682	0.50675
3712.11845	0.50811
3710.19008	0.50581
3708.26170	0.49898
3706.33333	0.49302
3704.40496	0.49018
3702.47658	0.48834
3700.54821	0.48392
3698.61984	0.47833
3696.69146	0.47362
3694.76309	0.46965
3692.83472	0.46700
3690.90635	0.46468
3688.97797	0.45789
3687.04960	0.44579
3685.12123	0.43451
3683.19285	0.42582
3681.26448	0.41873
3679.33611	0.41262
3677.40773	0.40654
3675.47936	0.39601
3673.55099	0.38197
3671.62261	0.37098
3669.69424	0.35797
3667.76587	0.34147
3665.83749	0.32715
3663.90912	0.31479
3661.98075	0.30301
3660.05237	0.29141
3658.12400	0.27978
3656.19563	0.26657
3654.26725	0.25378
3652.33888	0.24420
3650.41051	0.23441
3648.48213	0.21967
3646.55376	0.20361
3644.62539	0.19091
3642.69701	0.18037
3640.76864	0.17039
3638.84027	0.16025
3636.91189	0.15011
3634.98352	0.14060
3633.05515	0.13205
3631.12678	0.12465
3629.19840	0.11585
3627.27003	0.10496
3625.34166	0.09651
3623.41328	0.09019
3621.48491	0.08465
3619.55654	0.07886
3617.62816	0.07262
3615.69979	0.06715
3613.77142	0.06252
3611.84304	0.05815
3609.91467	0.05384
3607.98630	0.04951
3606.05792	0.04519
3604.12955	0.04120
3602.20118	0.03766
3600.27280	0.03462
3598.34443	0.03176
3596.41606	0.02877
3594.48768	0.02595
3592.55931	0.02415
3590.63094	0.02323
3588.70256	0.02182
3586.77419	0.01947
3584.84582	0.01719
3582.91744	0.01524
3580.98907	0.01358
3579.06070	0.01239
3577.13233	0.01157
3575.20395	0.01059
3573.27558	0.00947
3571.34721	0.00851
3569.41883	0.00792
3567.49046	0.00777
3565.56209	0.00719
3563.63371	0.00593
3561.70534	0.00477
3559.77697	0.00407
3557.84859	0.00368
3555.92022	0.00332
3553.99185	0.00297
3552.06347	0.00264
3550.13510	0.00235
3548.20673	0.00213
3546.27835	0.00217
3544.34998	0.00198
3542.42161	0.00205
3540.49323	0.00176
3538.56486	0.00114
3536.63649	0.00128
3534.70811	0.00122
3532.77974	0.00118
3530.85137	0.00115
3528.92299	0.00115
3526.99462	0.00112
3525.06625	0.00108
3523.13787	0.00081
3521.20950	0.00071
3519.28113	0.00066
3517.35276	0.00122
3515.42438	0.00137
3513.49601	0.00098
3511.56764	0.00078
3509.63926	0.00060
3507.71089	0.00103
3505.78252	0.00140
3503.85414	0.00102
3501.92577	0.00047
3499.99740	0.00054
3498.06902	0.00068
3496.14065	0.00088
3494.21228	0.00067
3492.28390	0.00055
3490.35553	0.00079
3488.42716	0.00056
3486.49878	0.00053
3484.57041	0.00096
3482.64204	0.00107
3480.71366	0.00060
3478.78529	0.00078
3476.85692	0.00109
3474.92854	0.00114
3473.00017	0.00142
3471.07180	0.00127
3469.14342	0.00102
3467.21505	0.00090
3465.28668	0.00113
3463.35831	0.00145
3461.42993	0.00129
3459.50156	0.00089
3457.57319	0.00036
3455.64481	0.00084
3453.71644	0.00094
3451.78807	0.00080
3449.85969	0.00060
3447.93132	0.00051
3446.00295	0.00058
3444.07457	0.00052
3442.14620	0.00051
3440.21783	0.00057
3438.28945	0.00043
3436.36108	0.00068
3434.43271	0.00113
3432.50433	0.00090
3430.57596	0.00072
3428.64759	0.00097
3426.71921	0.00131
3424.79084	0.00133
3422.86247	0.00110
3420.93409	0.00103
3419.00572	0.00100
3417.07735	0.00108
3415.14897	0.00121
3413.22060	0.00111
3411.29223	0.00092
3409.36385	0.00090
3407.43548	0.00085
3405.50711	0.00080
3403.57874	0.00074
3401.65036	0.00082
3399.72199	0.00083
3397.79362	0.00103
3395.86524	0.00114
3393.93687	0.00124
3392.00850	0.00138
3390.08012	0.00135
3388.15175	0.00117
3386.22338	0.00105
3384.29500	0.00093
3382.36663	0.00095
3380.43826	0.00117
3378.50988	0.00099
3376.58151	0.00098
3374.65314	0.00114
3372.72476	0.00089
3370.79639	0.00049
3368.86802	0.00075
3366.93964	0.00062
3365.01127	0.00066
3363.08290	0.00095
3361.15452	0.00093
3359.22615	0.00106
3357.29778	0.00117
3355.36940	0.00086
3353.44103	0.00054
3351.51266	0.00065
3349.58428	0.00060
3347.65591	0.00039
3345.72754	0.00027
3343.79917	0.00036
3341.87079	0.00084
3339.94242	0.00069
3338.01405	0.00077
3336.08567	0.00076
3334.15730	0.00022
3332.22893	0.00056
3330.30055	0.00057
3328.37218	0.00036
3326.44381	0.00065
3324.51543	0.00112
3322.58706	0.00100
3320.65869	0.00073
3318.73031	0.00072
3316.80194	0.00079
3314.87357	0.00051
3312.94519	0.00043
3311.01682	0.00095
3309.08845	0.00142
3307.16007	0.00120
3305.23170	0.00106
3303.30333	0.00143
3301.37495	0.00144
3299.44658	0.00120
3297.51821	0.00112
3295.58983	0.00103
3293.66146	0.00104
3291.73309	0.00079
3289.80472	0.00056
3287.87634	0.00073
3285.94797	0.00062
3284.01960	0.00077
3282.09122	0.00101
3280.16285	0.00115
3278.23448	0.00114
3276.30610	0.00092
3274.37773	0.00079
3272.44936	0.00084
3270.52098	0.00090
3268.59261	0.00070
3266.66424	0.00053
3264.73586	0.00079
3262.80749	0.00072
3260.87912	0.00050
3258.95074	0.00021
3257.02237	0.00037
3255.09400	0.00044
3253.16562	0.00018
3251.23725	0.00050
3249.30888	0.00070
3247.38050	0.00092
3245.45213	0.00137
3243.52376	0.00149
3241.59538	0.00099
3239.66701	0.00053
3237.73864	0.00110
3235.81026	0.00156
3233.88189	0.00150
3231.95352	0.00098
3230.02515	0.00055
3228.09677	0.00098
3226.16840	0.00098
3224.24003	0.00082
3222.31165	0.00053
3220.38328	0.00083
3218.45491	0.00078
3216.52653	0.00086
3214.59816	0.00110
3212.66979	0.00126
3210.74141	0.00103
3208.81304	0.00063
3206.88467	0.00064
3204.95629	0.00088
3203.02792	0.00085
3201.09955	0.00134
3199.17117	0.00138
3197.24280	0.00072
3195.31443	0.00046
3193.38605	0.00101
3191.45768	0.00099
3189.52931	0.00061
3187.60093	0.00095
3185.67256	0.00111
3183.74419	0.00100
3181.81581	0.00059
3179.88744	0.00042
3177.95907	0.00082
3176.03070	0.00138
3174.10232	0.00151
3172.17395	0.00111
3170.24558	0.00056
3168.31720	0.00023
3166.38883	0.00020
3164.46046	0.00037
3162.53208	0.00067
3160.60371	0.00064
3158.67534	0.00043
3156.74696	0.00031
3154.81859	0.00059
3152.89022	0.00044
3150.96184	0.00035
3149.03347	0.00070
3147.10510	0.00042
3145.17672	0.00085
3143.24835	0.00114
3141.31998	0.00055
3139.39160	0.00036
3137.46323	0.00078
3135.53486	0.00059
3133.60648	0.00051
3131.67811	0.00060
3129.74974	0.00050
3127.82136	0.00040
3125.89299	0.00071
3123.96462	0.00078
3122.03624	0.00078
3120.10787	0.00079
3118.17950	0.00075
3116.25113	0.00050
3114.32275	0.00041
3112.39438	0.00057
3110.46601	0.00087
3108.53763	0.00079
3106.60926	0.00090
3104.68089	0.00123
3102.75251	0.00147
3100.82414	0.00124
3098.89577	0.00090
3096.96739	0.00061
3095.03902	0.00092
3093.11065	0.00105
3091.18227	0.00080
3089.25390	0.00070
3087.32553	0.00074
3085.39715	0.00086
3083.46878	0.00100
3081.54041	0.00111
3079.61203	0.00127
3077.68366	0.00115
3075.75529	0.00101
3073.82691	0.00074
3071.89854	0.00067
3069.97017	0.00055
3068.04179	0.00061
3066.11342	0.00050
3064.18505	0.00052
3062.25668	0.00063
3060.32830	0.00049
3058.39993	0.00043
3056.47156	0.00092
3054.54318	0.00143
3052.61481	0.00115
3050.68644	0.00056
3048.75806	0.00062
3046.82969	0.00079
3044.90132	0.00065
3042.97294	0.00024
3041.04457	0.00066
3039.11620	0.00115
3037.18782	0.00093
3035.25945	0.00040
3033.33108	0.00034
3031.40270	0.00041
3029.47433	0.00076
3027.54596	0.00125
3025.61758	0.00147
3023.68921	0.00109
3021.76084	0.00090
3019.83246	0.00101
3017.90409	0.00123
3015.97572	0.00132
3014.04734	0.00098
3012.11897	0.00063
3010.19060	0.00077
3008.26222	0.00076
3006.33385	0.00053
3004.40548	0.00085
3002.47711	0.00148
3000.54873	0.00142
2998.62036	0.00074
2996.69199	0.00049
2994.76361	0.00064
2992.83524	0.00102
2990.90687	0.00110
2988.97849	0.00092
2987.05012	0.00049
2985.12175	0.00039
2983.19337	0.00075
2981.26500	0.00087
2979.33663	0.00098
2977.40825	0.00104
2975.47988	0.00136
2973.55151	0.00131
2971.62313	0.00100
2969.69476	0.00139
2967.76639	0.00158
2965.83801	0.00149
2963.90964	0.00103
2961.98127	0.00101
2960.05289	0.00112
2958.12452	0.00151
2956.19615	0.00113
2954.26777	0.00071
2952.33940	0.00157
2950.41103	0.00207
2948.48266	0.00186
2946.55428	0.00165
2944.62591	0.00140
2942.69754	0.00125
2940.76916	0.00122
2938.84079	0.00099
2936.91242	0.00129
2934.98404	0.00110
2933.05567	0.00069
2931.12730	0.00133
2929.19892	0.00186
2927.27055	0.00143
2925.34218	0.00069
2923.41380	0.00051
2921.48543	0.00059
2919.55706	0.00054
2917.62868	0.00059
2915.70031	0.00080
2913.77194	0.00072
2911.84356	0.00076
2909.91519	0.00087
2907.98682	0.00115
2906.05844	0.00131
2904.13007	0.00112
2902.20170	0.00078
2900.27332	0.00048
2898.34495	0.00059
2896.41658	0.00092
2894.48820	0.00103
2892.55983	0.00099
2890.63146	0.00076
2888.70309	0.00081
2886.77471	0.00088
2884.84634	0.00064
2882.91797	0.00100
2880.98959	0.00109
2879.06122	0.00091
2877.13285	0.00052
2875.20447	0.00050
2873.27610	0.00050
2871.34773	0.00082
2869.41935	0.00109
2867.49098	0.00103
2865.56261	0.00074
2863.63423	0.00062
2861.70586	0.00097
2859.77749	0.00131
2857.84911	0.00152
2855.92074	0.00135
2853.99237	0.00133
2852.06399	0.00113
2850.13562	0.00056
2848.20725	0.00051
2846.27887	0.00070
2844.35050	0.00092
2842.42213	0.00095
2840.49375	0.00092
2838.56538	0.00100
2836.63701	0.00115
2834.70863	0.00124
2832.78026	0.00145
2830.85189	0.00155
2828.92352	0.00151
2826.99514	0.00143
2825.06677	0.00144
2823.13840	0.00149
2821.21002	0.00149
2819.28165	0.00146
2817.35328	0.00149
2815.42490	0.00154
2813.49653	0.00156
2811.56816	0.00148
2809.63978	0.00149
2807.71141	0.00157
2805.78304	0.00169
2803.85466	0.00161
2801.92629	0.00154
2799.99792	0.00151
2798.06954	0.00123
2796.14117	0.00088
2794.21280	0.00078
2792.28442	0.00117
2790.35605	0.00178
2788.42768	0.00217
2786.49930	0.00214
2784.57093	0.00194
2782.64256	0.00194
2780.71418	0.00208
2778.78581	0.00209
2776.85744	0.00196
2774.92907	0.00185
2773.00069	0.00187
2771.07232	0.00214
2769.14395	0.00252
2767.21557	0.00239
2765.28720	0.00209
2763.35883	0.00237
2761.43045	0.00287
2759.50208	0.00301
2757.57371	0.00310
2755.64533	0.00320
2753.71696	0.00304
2751.78859	0.00296
2749.86021	0.00323
2747.93184	0.00356
2746.00347	0.00370
2744.07509	0.00365
2742.14672	0.00363
2740.21835	0.00391
2738.28997	0.00443
2736.36160	0.00487
2734.43323	0.00509
2732.50485	0.00533
2730.57648	0.00557
2728.64811	0.00566
2726.71973	0.00577
2724.79136	0.00597
2722.86299	0.00607
2720.93461	0.00606
2719.00624	0.00613
2717.07787	0.00646
2715.14950	0.00679
2713.22112	0.00692
2711.29275	0.00684
2709.36438	0.00663
2707.43600	0.00669
2705.50763	0.00720
2703.57926	0.00777
2701.65088	0.00794
2699.72251	0.00778
2697.79414	0.00776
2695.86576	0.00805
2693.93739	0.00830
2692.00902	0.00835
2690.08064	0.00849
2688.15227	0.00864
2686.22390	0.00858
2684.29552	0.00842
2682.36715	0.00847
2680.43878	0.00855
2678.51040	0.00850
2676.58203	0.00877
2674.65366	0.00930
2672.72528	0.00951
2670.79691	0.00958
2668.86854	0.00994
2666.94016	0.01044
2665.01179	0.01087
2663.08342	0.01134
2661.15505	0.01189
2659.22667	0.01230
2657.29830	0.01242
2655.36993	0.01255
2653.44155	0.01283
2651.51318	0.01303
2649.58481	0.01323
2647.65643	0.01368
2645.72806	0.01424
2643.79969	0.01468
2641.87131	0.01502
2639.94294	0.01542
2638.01457	0.01598
2636.08619	0.01667
2634.15782	0.01730
2632.22945	0.01767
2630.30107	0.01785
2628.37270	0.01804
2626.44433	0.01847
2624.51595	0.01914
2622.58758	0.01984
2620.65921	0.02044
2618.73083	0.02090
2616.80246	0.02150
2614.87409	0.02233
2612.94571	0.02313
2611.01734	0.02391
2609.08897	0.02493
2607.16059	0.02600
2605.23222	0.02678
2603.30385	0.02735
2601.37548	0.02798
2599.44710	0.02864
2597.51873	0.02942
2595.59036	0.03029
2593.66198	0.03086
2591.73361	0.03124
2589.80524	0.03183
2587.87686	0.03260
2585.94849	0.03348
2584.02012	0.03439
2582.09174	0.03513
2580.16337	0.03588
2578.23500	0.03683
2576.30662	0.03771
2574.37825	0.03850
2572.44988	0.03934
2570.52150	0.04008
2568.59313	0.04077
2566.66476	0.04163
2564.73638	0.04248
2562.80801	0.04316
2560.87964	0.04385
2558.95126	0.04478
2557.02289	0.04599
2555.09452	0.04710
2553.16614	0.04763
2551.23777	0.04775
2549.30940	0.04821
2547.38103	0.04926
2545.45265	0.05041
2543.52428	0.05127
2541.59591	0.05200
2539.66753	0.05279
2537.73916	0.05353
2535.81079	0.05421
2533.88241	0.05486
2531.95404	0.05551
2530.02567	0.05632
2528.09729	0.05735
2526.16892	0.05822
2524.24055	0.05874
2522.31217	0.05932
2520.38380	0.06023
2518.45543	0.06124
2516.52705	0.06212
2514.59868	0.06296
2512.67031	0.06375
2510.74193	0.06444
2508.81356	0.06530
2506.88519	0.06646
2504.95681	0.06747
2503.02844	0.06815
2501.10007	0.06880
2499.17169	0.06958
2497.24332	0.07042
2495.31495	0.07131
2493.38657	0.07221
2491.45820	0.07309
2489.52983	0.07401
2487.60146	0.07486
2485.67308	0.07549
2483.74471	0.07591
2481.81634	0.07653
2479.88796	0.07749
2477.95959	0.07831
2476.03122	0.07881
2474.10284	0.07954
2472.17447	0.08097
2470.24610	0.08258
2468.31772	0.08377
2466.38935	0.08482
2464.46098	0.08614
2462.53260	0.08769
2460.60423	0.08917
2458.67586	0.09043
2456.74748	0.09147
2454.81911	0.09244
2452.89074	0.09358
2450.96236	0.09498
2449.03399	0.09635
2447.10562	0.09746
2445.17724	0.09843
2443.24887	0.09950
2441.32050	0.10085
2439.39212	0.10237
2437.46375	0.10372
2435.53538	0.10482
2433.60700	0.10591
2431.67863	0.10706
2429.75026	0.10827
2427.82189	0.10963
2425.89351	0.11109
2423.96514	0.11235
2422.03677	0.11337
2420.10839	0.11452
2418.18002	0.11594
2416.25165	0.11730
2414.32327	0.11842
2412.39490	0.11951
2410.46653	0.12070
2408.53815	0.12197
2406.60978	0.12336
2404.68141	0.12479
2402.75303	0.12601
2400.82466	0.12718
2398.89629	0.12875
2396.96791	0.13056
2395.03954	0.13206
2393.11117	0.13333
2391.18279	0.13472
2389.25442	0.13623
2387.32605	0.13775
2385.39767	0.13930
2383.46930	0.14098
2381.54093	0.14290
2379.61255	0.14498
2377.68418	0.14714
2375.75581	0.14949
2373.82744	0.15180
2371.89906	0.15376
2369.97069	0.15574
2368.04232	0.15820
2366.11394	0.16051
2364.18557	0.16198
2362.25720	0.16393
2360.32882	0.16771
2358.40045	0.17076
2356.47208	0.17016
2354.54370	0.16844
2352.61533	0.16810
2350.68696	0.16804
2348.75858	0.16781
2346.83021	0.16831
2344.90184	0.17042
2342.97346	0.17309
2341.04509	0.17408
2339.11672	0.17419
2337.18834	0.17503
2335.25997	0.17604
2333.33160	0.17682
2331.40322	0.17822
2329.47485	0.17986
2327.54648	0.18066
2325.61810	0.18094
2323.68973	0.18127
2321.76136	0.18177
2319.83298	0.18284
2317.90461	0.18451
2315.97624	0.18604
2314.04787	0.18715
2312.11949	0.18825
2310.19112	0.18947
2308.26275	0.19069
2306.33437	0.19202
2304.40600	0.19346
2302.47763	0.19500
2300.54925	0.19640
2298.62088	0.19743
2296.69251	0.19851
2294.76413	0.19994
2292.83576	0.20132
2290.90739	0.20254
2288.97901	0.20391
2287.05064	0.20536
2285.12227	0.20661
2283.19389	0.20779
2281.26552	0.20923
2279.33715	0.21085
2277.40877	0.21220
2275.48040	0.21312
2273.55203	0.21390
2271.62365	0.21490
2269.69528	0.21628
2267.76691	0.21780
2265.83853	0.21910
2263.91016	0.22011
2261.98179	0.22099
2260.05342	0.22195
2258.12504	0.22315
2256.19667	0.22443
2254.26830	0.22572
2252.33992	0.22704
2250.41155	0.22831
2248.48318	0.22938
2246.55480	0.23028
2244.62643	0.23116
2242.69806	0.23207
2240.76968	0.23295
2238.84131	0.23377
2236.91294	0.23455
2234.98456	0.23531
2233.05619	0.23604
2231.12782	0.23679
2229.19944	0.23767
2227.27107	0.23854
2225.34270	0.23923
2223.41432	0.23984
2221.48595	0.24056
2219.55758	0.24146
2217.62920	0.24252
2215.70083	0.24358
2213.77246	0.24440
2211.84408	0.24496
2209.91571	0.24549
2207.98734	0.24615
2206.05896	0.24702
2204.13059	0.24791
2202.20222	0.24871
2200.27385	0.24962
2198.34547	0.25067
2196.41710	0.25164
2194.48873	0.25231
2192.56035	0.25263
2190.63198	0.25298
2188.70361	0.25384
2186.77523	0.25501
2184.84686	0.25596
2182.91849	0.25639
2180.99011	0.25661
2179.06174	0.25706
2177.13337	0.25767
2175.20499	0.25822
2173.27662	0.25876
2171.34825	0.25926
2169.41987	0.25961
2167.49150	0.25978
2165.56313	0.25992
2163.63475	0.26026
2161.70638	0.26063
2159.77801	0.26088
2157.84963	0.26128
2155.92126	0.26186
2153.99289	0.26246
2152.06451	0.26311
2150.13614	0.26384
2148.20777	0.26443
2146.27940	0.26481
2144.35102	0.26514
2142.42265	0.26564
2140.49428	0.26643
2138.56590	0.26742
2136.63753	0.26833
2134.70916	0.26905
2132.78078	0.26971
2130.85241	0.27062
2128.92404	0.27189
2126.99566	0.27311
2125.06729	0.27402
2123.13892	0.27483
2121.21054	0.27587
2119.28217	0.27710
2117.35380	0.27831
2115.42542	0.27945
2113.49705	0.28057
2111.56868	0.28170
2109.64030	0.28284
2107.71193	0.28406
2105.78356	0.28541
2103.85518	0.28665
2101.92681	0.28755
2099.99844	0.28818
2098.07006	0.28884
2096.14169	0.28969
2094.21332	0.29070
2092.28494	0.29165
2090.35657	0.29233
2088.42820	0.29287
2086.49983	0.29335
2084.57145	0.29356
2082.64308	0.29360
2080.71471	0.29373
2078.78633	0.29382
2076.85796	0.29399
2074.92959	0.29443
2073.00121	0.29479
2071.07284	0.29489
2069.14447	0.29504
2067.21609	0.29536
2065.28772	0.29559
2063.35935	0.29556
2061.43097	0.29544
2059.50260	0.29562
2057.57423	0.29614
2055.64585	0.29677
2053.71748	0.29744
2051.78911	0.29815
2049.86073	0.29901
2047.93236	0.30002
2046.00399	0.30095
2044.07561	0.30188
2042.14724	0.30294
2040.21887	0.30376
2038.29049	0.30430
2036.36212	0.30478
2034.43375	0.30516
2032.50538	0.30534
2030.57700	0.30548
2028.64863	0.30580
2026.72026	0.30614
2024.79188	0.30630
2022.86351	0.30646
2020.93514	0.30685
2019.00676	0.30729
2017.07839	0.30748
2015.15002	0.30744
2013.22164	0.30756
2011.29327	0.30779
2009.36490	0.30797
2007.43652	0.30812
2005.50815	0.30824
2003.57978	0.30840
2001.65140	0.30887
1999.72303	0.30967
1997.79466	0.31043
1995.86628	0.31095
1993.93791	0.31154
1992.00954	0.31222
1990.08116	0.31258
1988.15279	0.31275
1986.22442	0.31295
1984.29604	0.31319
1982.36767	0.31358
1980.43930	0.31404
1978.51092	0.31442
1976.58255	0.31479
1974.65418	0.31515
1972.72581	0.31545
1970.79743	0.31591
1968.86906	0.31671
1966.94069	0.31735
1965.01231	0.31723
1963.08394	0.31688
1961.15557	0.31683
1959.22719	0.31677
1957.29882	0.31662
1955.37045	0.31660
1953.44207	0.31663
1951.51370	0.31653
1949.58533	0.31636
1947.65695	0.31632
1945.72858	0.31654
1943.80021	0.31690
1941.87183	0.31677
1939.94346	0.31588
1938.01509	0.31510
1936.08671	0.31484
1934.15834	0.31472
1932.22997	0.31430
1930.30159	0.31373
1928.37322	0.31340
1926.44485	0.31353
1924.51647	0.31414
1922.58810	0.31463
1920.65973	0.31461
1918.73135	0.31453
1916.80298	0.31432
1914.87461	0.31371
1912.94624	0.31329
1911.01786	0.31346
1909.08949	0.31372
1907.16112	0.31343
1905.23274	0.31285
1903.30437	0.31241
1901.37600	0.31202
1899.44762	0.31159
1897.51925	0.31127
1895.59088	0.31090
1893.66250	0.31019
1891.73413	0.30932
1889.80576	0.30839
1887.87738	0.30713
1885.94901	0.30582
1884.02064	0.30462
1882.09226	0.30323
1880.16389	0.30169
1878.23552	0.30045
1876.30714	0.29949
1874.37877	0.29841
1872.45040	0.29744
1870.52202	0.29701
1868.59365	0.29623
1866.66528	0.29413
1864.73690	0.29168
1862.80853	0.28971
1860.88016	0.28808
1858.95179	0.28648
1857.02341	0.28491
1855.09504	0.28349
1853.16667	0.28224
1851.23829	0.28096
1849.30992	0.27981
1847.38155	0.27912
1845.45317	0.27856
1843.52480	0.27713
1841.59643	0.27503
1839.66805	0.27337
1837.73968	0.27212
1835.81131	0.27081
1833.88293	0.26958
1831.95456	0.26893
1830.02619	0.26808
1828.09781	0.26605
1826.16944	0.26362
1824.24107	0.26071
1822.31269	0.25724
1820.38432	0.25400
1818.45595	0.25094
1816.52757	0.24754
1814.59920	0.24399
1812.67083	0.24043
1810.74245	0.23608
1808.81408	0.23087
1806.88571	0.22562
1804.95733	0.22071
1803.02896	0.21600
1801.10059	0.21067
1799.17222	0.20424
1797.24384	0.19756
1795.31547	0.19143
1793.38710	0.18494
1791.45872	0.17689
1789.53035	0.16901
1787.60198	0.16243
1785.67360	0.15606
1783.74523	0.14961
1781.81686	0.14353
1779.88848	0.13739
1777.96011	0.13149
1776.03174	0.12665
1774.10336	0.12224
1772.17499	0.11624
1770.24662	0.10869
1768.31824	0.10133
1766.38987	0.09424
1764.46150	0.08774
1762.53312	0.08074
1760.60475	0.07258
1758.67638	0.06429
1756.74800	0.05518
1754.81963	0.04633
1752.89126	0.03892
1750.96288	0.03120
1749.03451	0.02271
1747.10614	0.01541
1745.17777	0.00980
1743.24939	0.00583
1741.32102	0.00362
1739.39265	0.00239
1737.46427	0.00160
1735.53590	0.00112
1733.60753	0.00076
1731.67915	0.00061
1729.75078	0.00074
1727.82241	0.00060
1725.89403	0.00081
1723.96566	0.00122
1722.03729	0.00137
1720.10891	0.00132
1718.18054	0.00143
1716.25217	0.00151
1714.32379	0.00098
1712.39542	0.00059
1710.46705	0.00052
1708.53867	0.00070
1706.61030	0.00090
1704.68193	0.00115
1702.75355	0.00089
1700.82518	0.00068
1698.89681	0.00083
1696.96843	0.00108
1695.04006	0.00077
1693.11169	0.00067
1691.18331	0.00085
1689.25494	0.00091
1687.32657	0.00085
1685.39820	0.00069
1683.46982	0.00075
1681.54145	0.00072
1679.61308	0.00109
1677.68470	0.00158
1675.75633	0.00152
1673.82796	0.00112
1671.89958	0.00059
1669.97121	0.00056
1668.04284	0.00055
1666.11446	0.00040
1664.18609	0.00053
1662.25772	0.00092
1660.32934	0.00123
1658.40097	0.00117
1656.47260	0.00093
1654.54422	0.00058
1652.61585	0.00089
1650.68748	0.00119
1648.75910	0.00076
1646.83073	0.00046
1644.90236	0.00037
1642.97398	0.00028
1641.04561	0.00044
1639.11724	0.00049
1637.18886	0.00075
1635.26049	0.00158
1633.33212	0.00127
1631.40375	0.00058
1629.47537	0.00030
1627.54700	0.00019
1625.61863	0.00026
1623.69025	0.00053
1621.76188	0.00062
1619.83351	0.00052
1617.90513	0.00075
1615.97676	0.00099
1614.04839	0.00068
1612.12001	0.00062
1610.19164	0.00051
1608.26327	0.00044
1606.33489	0.00038
1604.40652	0.00049
1602.47815	0.00063
1600.54977	0.00066
1598.62140	0.00053
1596.69303	0.00061
1594.76465	0.00085
1592.83628	0.00073
1590.90791	0.00067
1588.97953	0.00076
1587.05116	0.00070
1585.12279	0.00042
1583.19441	0.00020
1581.26604	0.00033
1579.33767	0.00045
1577.40929	0.00058
1575.48092	0.00082
1573.55255	0.00065
1571.62418	0.00047
1569.69580	0.00035
1567.76743	0.00049
1565.83906	0.00074
1563.91068	0.00076
1561.98231	0.00082
1560.05394	0.00109
1558.12556	0.00108
1556.19719	0.00074
1554.26882	0.00051
1552.34044	0.00037
1550.41207	0.00040
1548.48370	0.00036
1546.55532	0.00065
1544.62695	0.00083
1542.69858	0.00081
1540.77020	0.00061
1538.84183	0.00095
1536.91346	0.00089
1534.98508	0.00071
1533.05671	0.00087
1531.12834	0.00091
1529.19996	0.00062
1527.27159	0.00052
1525.34322	0.00049
1523.41484	0.00056
1521.48647	0.00083
1519.55810	0.00108
1517.62972	0.00076
1515.70135	0.00050
1513.77298	0.00067
1511.84461	0.00054
1509.91623	0.00050
1507.98786	0.00078
1506.05949	0.00120
1504.13111	0.00086
1502.20274	0.00053
1500.27437	0.00036
1498.34599	0.00033
1496.41762	0.00053
1494.48925	0.00079
1492.56087	0.00095
1490.63250	0.00097
1488.70413	0.00096
1486.77575	0.00125
1484.84738	0.00166
1482.91901	0.00168
1480.99063	0.00140
1479.06226	0.00110
1477.13389	0.00106
1475.20551	0.00137
1473.27714	0.00159
1471.34877	0.00142
1469.42039	0.00113
1467.49202	0.00096
1465.56365	0.00083
1463.63527	0.00062
1461.70690	0.00054
1459.77853	0.00037
1457.85016	0.00051
1455.92178	0.00043
1453.99341	0.00054
1452.06504	0.00064
1450.13666	0.00079
1448.20829	0.00097
1446.27992	0.00084
1444.35154	0.00069
1442.42317	0.00067
1440.49480	0.00057
1438.56642	0.00051
1436.63805	0.00062
1434.70968	0.00057
1432.78130	0.00031
1430.85293	0.00052
1428.92456	0.00049
1426.99618	0.00048
1425.06781	0.00061
1423.13944	0.00073
1421.21106	0.00084
1419.28269	0.00069
1417.35432	0.00063
1415.42594	0.00029
1413.49757	0.00042
1411.56920	0.00060
1409.64082	0.00056
1407.71245	0.00041
1405.78408	0.00045
1403.85570	0.00056
1401.92733	0.00076
1399.99896	0.00094
1398.07059	0.00125
1396.14221	0.00132
1394.21384	0.00093
1392.28547	0.00046
1390.35709	0.00043
1388.42872	0.00049
1386.50035	0.00048
1384.57197	0.00047
1382.64360	0.00077
1380.71523	0.00100
1378.78685	0.00117
1376.85848	0.00122
1374.93011	0.00122
1373.00173	0.00103
1371.07336	0.00075
1369.14499	0.00086
1367.21661	0.00067
1365.28824	0.00041
1363.35987	0.00087
1361.43149	0.00139
1359.50312	0.00144
1357.57475	0.00090
1355.64637	0.00045
1353.71800	0.00069
1351.78963	0.00050
1349.86125	0.00052
1347.93288	0.00075
1346.00451	0.00131
1344.07614	0.00131
1342.14776	0.00103
1340.21939	0.00102
1338.29102	0.00065
1336.36264	0.00062
1334.43427	0.00078
1332.50590	0.00073
1330.57752	0.00070
1328.64915	0.00097
1326.72078	0.00106
1324.79240	0.00065
1322.86403	0.00065
1320.93566	0.00059
1319.00728	0.00048
1317.07891	0.00058
1315.15054	0.00047
1313.22216	0.00041
1311.29379	0.00056
1309.36542	0.00061
1307.43704	0.00050
1305.50867	0.00046
1303.58030	0.00099
1301.65192	0.00120
1299.72355	0.00109
1297.79518	0.00105
1295.86680	0.00132
1293.93843	0.00147
1292.01006	0.00134
1290.08168	0.00159
1288.15331	0.00148
1286.22494	0.00143
1284.29657	0.00145
1282.36819	0.00137
1280.43982	0.00123
1278.51145	0.00118
1276.58307	0.00133
1274.65470	0.00141
1272.72633	0.00160
1270.79795	0.00152
1268.86958	0.00103
1266.94121	0.00090
1265.01283	0.00138
1263.08446	0.00132
1261.15609	0.00115
1259.22771	0.00111
1257.29934	0.00108
1255.37097	0.00086
1253.44259	0.00092
1251.51422	0.00118
1249.58585	0.00133
1247.65747	0.00107
1245.72910	0.00110
1243.80073	0.00165
1241.87235	0.00168
1239.94398	0.00214
1238.01561	0.00222
1236.08723	0.00212
1234.15886	0.00237
1232.23049	0.00287
1230.30212	0.00311
1228.37374	0.00283
1226.44537	0.00255
1224.51700	0.00218
1222.58862	0.00213
1220.66025	0.00229
1218.73188	0.00196
1216.80350	0.00211
1214.87513	0.00235
1212.94676	0.00296
1211.01838	0.00348
1209.09001	0.00365
1207.16164	0.00322
1205.23326	0.00351
1203.30489	0.00411
1201.37652	0.00465
1199.44814	0.00504
1197.51977	0.00522
1195.59140	0.00573
1193.66302	0.00629
1191.73465	0.00648
1189.80628	0.00667
1187.87790	0.00747
1185.94953	0.00819
1184.02116	0.00783
1182.09278	0.00680
1180.16441	0.00628
1178.23604	0.00627
1176.30766	0.00564
1174.37929	0.00480
1172.45092	0.00460
1170.52255	0.00433
1168.59417	0.00297
1166.66580	0.00102
1164.73743	0.00110
1162.80905	0.00150
1160.88068	0.00177
1158.95231	0.00170
1157.02393	0.00103
1155.09556	0.00062
1153.16719	0.00061
1151.23881	0.00167
1149.31044	0.00317
1147.38207	0.00444
1145.45369	0.00460
1143.52532	0.00435
1141.59695	0.00402
1139.66857	0.00395
1137.74020	0.00457
1135.81183	0.00456
1133.88345	0.00384
1131.95508	0.00318
1130.02671	0.00272
1128.09833	0.00233
1126.16996	0.00198
1124.24159	0.00208
1122.31321	0.00203
1120.38484	0.00183
1118.45647	0.00250
1116.52809	0.00239
1114.59972	0.00221
1112.67135	0.00186
1110.74298	0.00087
1108.81460	0.00117
1106.88623	0.00180
1104.95786	0.00209
1103.02948	0.00211
1101.10111	0.00214
1099.17274	0.00178
1097.24436	0.00190
1095.31599	0.00265
1093.38762	0.00247
1091.45924	0.00154
1089.53087	0.00145
1087.60250	0.00165
1085.67412	0.00152
1083.74575	0.00197
1081.81738	0.00157
1079.88900	0.00124
1077.96063	0.00187
1076.03226	0.00193
1074.10388	0.00132
1072.17551	0.00162
1070.24714	0.00105
1068.31876	0.00075
1066.39039	0.00117
1064.46202	0.00136
1062.53364	0.00188
1060.60527	0.00216
1058.67690	0.00206
1056.74853	0.00258
1054.82015	0.00252
1052.89178	0.00262
1050.96341	0.00329
1049.03503	0.00349
1047.10666	0.00270
1045.17829	0.00179
1043.24991	0.00131
1041.32154	0.00144
1039.39317	0.00139
1037.46479	0.00184
1035.53642	0.00250
1033.60805	0.00193
1031.67967	0.00117
1029.75130	0.00099
1027.82293	0.00097
1025.89455	0.00077
1023.96618	0.00039
1022.03781	0.00068
1020.10943	0.00139
1018.18106	0.00175
1016.25269	0.00149
1014.32431	0.00142
1012.39594	0.00152
1010.46757	0.00113
1008.53919	0.00120
1006.61082	0.00221
1004.68245	0.00328
1002.75407	0.00417
1000.82570	0.00532
998.89733	0.00607
996.96896	0.00632
995.04058	0.00665
993.11221	0.00748
991.18384	0.00879
989.25546	0.01010
987.32709	0.01114
985.39872	0.01195
983.47034	0.01261
981.54197	0.01325
979.61360	0.01367
977.68522	0.01365
975.75685	0.01378
973.82848	0.01472
971.90010	0.01662
969.97173	0.01981
968.04336	0.02404
966.11498	0.02779
964.18661	0.02969
962.25824	0.02932
960.32986	0.02684
958.40149	0.02304
956.47312	0.01925
954.54474	0.01720
952.61637	0.01789
950.68800	0.02065
948.75962	0.02431
946.83125	0.02807
944.90288	0.03139
942.97451	0.03412
941.04613	0.03653
939.11776	0.03873
937.18939	0.04034
935.26101	0.04110
933.33264	0.04105
931.40427	0.04034
929.47589	0.03948
927.54752	0.03869
925.61915	0.03765
923.69077	0.03626
921.76240	0.03500
919.83403	0.03441
917.90565	0.03428
915.97728	0.03407
914.04891	0.03384
912.12053	0.03363
910.19216	0.03292
908.26379	0.03119
906.33541	0.02844
904.40704	0.02559
902.47867	0.02383
900.55029	0.02271
898.62192	0.02093
896.69355	0.01892
894.76517	0.01751
892.83680	0.01652
890.90843	0.01577
888.98005	0.01540
887.05168	0.01550
885.12331	0.01561
883.19494	0.01508
881.26656	0.01408
879.33819	0.01356
877.40982	0.01366
875.48144	0.01409
873.55307	0.01415
871.62470	0.01364
869.69632	0.01365
867.76795	0.01459
865.83958	0.01535
863.91120	0.01522
861.98283	0.01466
860.05446	0.01416
858.12608	0.01371
856.19771	0.01316
854.26934	0.01264
852.34096	0.01184
850.41259	0.01089
848.48422	0.01084
846.55584	0.01137
844.62747	0.01143
842.69910	0.01125
840.77072	0.01144
838.84235	0.01190
836.91398	0.01202
834.98560	0.01074
833.05723	0.00906
831.12886	0.00850
829.20049	0.00818
827.27211	0.00767
825.34374	0.00797
823.41537	0.00838
821.48699	0.00825
819.55862	0.00792
817.63025	0.00731
815.70187	0.00662
813.77350	0.00683
811.84513	0.00756
809.91675	0.00740
807.98838	0.00632
806.06001	0.00544
804.13163	0.00514
802.20326	0.00456
800.27489	0.00382
798.34651	0.00384
796.41814	0.00519
794.48977	0.00591
792.56139	0.00490
790.63302	0.00305
788.70465	0.00173
786.77627	0.00120
784.84790	0.00250
782.91953	0.00434
780.99115	0.00521
779.06278	0.00424
777.13441	0.00271
775.20603	0.00219
773.27766	0.00243
771.34929	0.00264
769.42092	0.00308
767.49254	0.00330
765.56417	0.00296
763.63580	0.00234
761.70742	0.00301
759.77905	0.00349
757.85068	0.00316
755.92230	0.00256
753.99393	0.00182
752.06556	0.00235
750.13718	0.00278
748.20881	0.00218
746.28044	0.00133
744.35206	0.00163
742.42369	0.00249
740.49532	0.00311
738.56694	0.00301
736.63857	0.00296
734.71020	0.00301
732.78182	0.00325
730.85345	0.00353
728.92508	0.00329
726.99670	0.00355
725.06833	0.00336
723.13996	0.00283
721.21158	0.00249
719.28321	0.00277
717.35484	0.00319
715.42647	0.00287
713.49809	0.00230
711.56972	0.00207
709.64135	0.00171
707.71297	0.00170
705.78460	0.00310
703.85623	0.00381
701.92785	0.00325
699.99948	0.00297
698.07111	0.00357
696.14273	0.00464
694.21436	0.00355
692.28599	0.00281
690.35761	0.00182
688.42924	0.00233
686.50087	0.00262
684.57249	0.00338
682.64412	0.00423
680.71575	0.00442
678.78737	0.00505
676.85900	0.00634
674.93063	0.00699
673.00225	0.00685
671.07388	0.00657
669.14551	0.00616
667.21713	0.00469
665.28876	0.00399
663.36039	0.00472
661.43201	0.00692
659.50364	0.00998
657.57527	0.01083
655.64690	0.00789
653.71852	0.00444
651.79015	0.00491
649.86178	0.00749
647.93340	0.00909
646.00503	0.00792
644.07666	0.00671
642.14828	0.00704
640.21991	0.00843
638.29154	0.00830
636.36316	0.00732
634.43479	0.00541
632.50642	0.00310
630.57804	0.00340
628.64967	0.00465
626.72130	0.00375
624.79292	0.00288
622.86455	0.00497
620.93618	0.00713
619.00780	0.01087
617.07943	0.01152
615.15106	0.00657
613.22268	0.00168
611.29431	0.00348
609.36594	0.00855
607.43756	0.01343
605.50919	0.01295
603.58082	0.00867
601.65244	0.00931
599.72407	0.01273
