3997.51769	0.21259
3995.58931	0.21324
3993.66094	0.21390
3991.73257	0.21397
3989.80419	0.21366
3987.87582	0.21337
3985.94745	0.21360
3984.01907	0.21443
3982.09070	0.21489
3980.16233	0.21422
3978.23396	0.21336
3976.30558	0.21342
3974.37721	0.21413
3972.44884	0.21481
3970.52046	0.21514
3968.59209	0.21503
3966.66372	0.21482
3964.73534	0.21506
3962.80697	0.21556
3960.87860	0.21584
3958.95022	0.21607
3957.02185	0.21640
3955.09348	0.21655
3953.16510	0.21680
3951.23673	0.21754
3949.30836	0.21824
3947.37998	0.21855
3945.45161	0.21885
3943.52324	0.21911
3941.59486	0.21901
3939.66649	0.21893
3937.73812	0.21923
3935.80974	0.21989
3933.88137	0.22098
3931.95300	0.22211
3930.02462	0.22228
3928.09625	0.22180
3926.16788	0.22164
3924.23950	0.22183
3922.31113	0.22200
3920.38276	0.22234
3918.45439	0.22311
3916.52601	0.22366
3914.59764	0.22357
3912.66927	0.22361
3910.74089	0.22432
3908.81252	0.22560
3906.88415	0.22718
3904.95577	0.22847
3903.02740	0.22875
3901.09903	0.22842
3899.17065	0.22817
3897.24228	0.22805
3895.31391	0.22845
3893.38553	0.22969
3891.45716	0.23098
3889.52879	0.23141
3887.60041	0.23159
3885.67204	0.23178
3883.74367	0.23184
3881.81529	0.23232
3879.88692	0.23252
3877.95855	0.23187
3876.03017	0.23176
3874.10180	0.23282
3872.17343	0.23455
3870.24505	0.23564
3868.31668	0.23543
3866.38831	0.23575
3864.45994	0.23697
3862.53156	0.23682
3860.60319	0.23552
3858.67482	0.23524
3856.74644	0.23641
3854.81807	0.23866
3852.88970	0.23992
3850.96132	0.23821
3849.03295	0.23626
3847.10458	0.23532
3845.17620	0.23568
3843.24783	0.23716
3841.31946	0.23883
3839.39108	0.24002
3837.46271	0.24037
3835.53434	0.24003
3833.60596	0.23960
3831.67759	0.23905
3829.74922	0.23833
3827.82084	0.23798
3825.89247	0.23841
3823.96410	0.23975
3822.03572	0.24181
3820.10735	0.24252
3818.17898	0.24164
3816.25060	0.24102
3814.32223	0.24022
3812.39386	0.23944
3810.46548	0.23941
3808.53711	0.23990
3806.60874	0.24037
3804.68037	0.24098
3802.75199	0.24206
3800.82362	0.24226
3798.89525	0.24133
3796.96687	0.24060
3795.03850	0.23942
3793.11013	0.23799
3791.18175	0.23748
3789.25338	0.23797
3787.32501	0.23882
3785.39663	0.23941
3783.46826	0.23938
3781.53989	0.23934
3779.61151	0.23940
3777.68314	0.23852
3775.75477	0.23727
3773.82639	0.23698
3771.89802	0.23755
3769.96965	0.23820
3768.04127	0.23844
3766.11290	0.23830
3764.18453	0.23777
3762.25615	0.23726
3760.32778	0.23736
3758.39941	0.23783
3756.47103	0.23790
3754.54266	0.23779
3752.61429	0.23877
3750.68591	0.24072
3748.75754	0.24114
3746.82917	0.24064
3744.90080	0.24012
3742.97242	0.23855
3741.04405	0.23695
3739.11568	0.23674
3737.18730	0.23787
3735.25893	0.23864
3733.33056	0.23695
3731.40218	0.23421
3729.47381	0.23253
3727.54544	0.23220
3725.61706	0.23252
3723.68869	0.23216
3721.76032	0.23080
3719.83194	0.22919
3717.90357	0.22784
3715.97520	0.22712
3714.04682	0.22716
3712.11845	0.22748
3710.19008	0.22638
3708.26170	0.22375
3706.33333	0.22145
3704.40496	0.22004
3702.47658	0.21882
3700.54821	0.21674
3698.61984	0.21410
3696.69146	0.21166
3694.76309	0.20993
3692.83472	0.20881
3690.90635	0.20753
3688.97797	0.20471
3687.04960	0.19972
3685.12123	0.19473
3683.19285	0.19082
3681.26448	0.18743
3679.33611	0.18418
3677.40773	0.18102
3675.47936	0.17621
3673.55099	0.16985
3671.62261	0.16475
3669.69424	0.15908
3667.76587	0.15230
3665.83749	0.14644
3663.90912	0.14100
3661.98075	0.13535
3660.05237	0.12999
3658.12400	0.12529
3656.19563	0.11982
3654.26725	0.11379
3652.33888	0.10886
3650.41051	0.10402
3648.48213	0.09771
3646.55376	0.09077
3644.62539	0.08482
3642.69701	0.08009
3640.76864	0.07607
3638.84027	0.07217
3636.91189	0.06814
3634.98352	0.06397
3633.05515	0.06006
3631.12678	0.05683
3629.19840	0.05305
3627.27003	0.04850
3625.34166	0.04502
3623.41328	0.04216
3621.48491	0.03928
3619.55654	0.03630
3617.62816	0.03359
3615.69979	0.03143
3613.77142	0.02958
3611.84304	0.02761
3609.91467	0.02541
3607.98630	0.02333
3606.05792	0.02163
3604.12955	0.02014
3602.20118	0.01850
3600.27280	0.01674
3598.34443	0.01511
3596.41606	0.01384
3594.48768	0.01276
3592.55931	0.01167
3590.63094	0.01083
3588.70256	0.01019
3586.77419	0.00948
3584.84582	0.00862
3582.91744	0.00769
3580.98907	0.00685
3579.06070	0.00633
3577.13233	0.00613
3575.20395	0.00578
3573.27558	0.00518
3571.34721	0.00462
3569.41883	0.00412
3567.49046	0.00351
3565.56209	0.00283
3563.63371	0.00286
3561.70534	0.00348
3559.77697	0.00346
3557.84859	0.00269
3555.92022	0.00223
3553.99185	0.00212
3552.06347	0.00171
3550.13510	0.00117
3548.20673	0.00102
3546.27835	0.00139
3544.34998	0.00128
3542.42161	0.00099
3540.49323	0.00090
3538.56486	0.00080
3536.63649	0.00067
3534.70811	0.00067
3532.77974	0.00061
3530.85137	0.00080
3528.92299	0.00125
3526.99462	0.00156
3525.06625	0.00154
3523.13787	0.00113
3521.20950	0.00063
3519.28113	0.00104
3517.35276	0.00122
3515.42438	0.00065
3513.49601	0.00080
3511.56764	0.00143
3509.63926	0.00105
3507.71089	0.00045
3505.78252	0.00086
3503.85414	0.00093
3501.92577	0.00050
3499.99740	0.00059
3498.06902	0.00045
3496.14065	0.00050
3494.21228	0.00086
3492.28390	0.00080
3490.35553	0.00082
3488.42716	0.00083
3486.49878	0.00078
3484.57041	0.00076
3482.64204	0.00055
3480.71366	0.00043
3478.78529	0.00028
3476.85692	0.00065
3474.92854	0.00111
3473.00017	0.00089
3471.07180	0.00050
3469.14342	0.00062
3467.21505	0.00044
3465.28668	0.00074
3463.35831	0.00119
3461.42993	0.00117
3459.50156	0.00070
3457.57319	0.00089
3455.64481	0.00086
3453.71644	0.00079
3451.78807	0.00087
3449.85969	0.00077
3447.93132	0.00068
3446.00295	0.00080
3444.07457	0.00075
3442.14620	0.00063
3440.21783	0.00059
3438.28945	0.00081
3436.36108	0.00072
3434.43271	0.00044
3432.50433	0.00060
3430.57596	0.00076
3428.64759	0.00104
3426.71921	0.00118
3424.79084	0.00083
3422.86247	0.00036
3420.93409	0.00071
3419.00572	0.00101
3417.07735	0.00075
3415.14897	0.00059
3413.22060	0.00062
3411.29223	0.00087
3409.36385	0.00108
3407.43548	0.00085
3405.50711	0.00102
3403.57874	0.00105
3401.65036	0.00072
3399.72199	0.00089
3397.79362	0.00118
3395.86524	0.00122
3393.93687	0.00098
3392.00850	0.00108
3390.08012	0.00121
3388.15175	0.00093
3386.22338	0.00081
3384.29500	0.00080
3382.36663	0.00052
3380.43826	0.00043
3378.50988	0.00031
3376.58151	0.00062
3374.65314	0.00077
3372.72476	0.00105
3370.79639	0.00119
3368.86802	0.00098
3366.93964	0.00036
3365.01127	0.00021
3363.08290	0.00040
3361.15452	0.00073
3359.22615	0.00108
3357.29778	0.00097
3355.36940	0.00088
3353.44103	0.00087
3351.51266	0.00056
3349.58428	0.00029
3347.65591	0.00039
3345.72754	0.00058
3343.79917	0.00054
3341.87079	0.00039
3339.94242	0.00035
3338.01405	0.00074
3336.08567	0.00068
3334.15730	0.00051
3332.22893	0.00107
3330.30055	0.00118
3328.37218	0.00115
3326.44381	0.00118
3324.51543	0.00094
3322.58706	0.00060
3320.65869	0.00054
3318.73031	0.00027
3316.80194	0.00065
3314.87357	0.00083
3312.94519	0.00048
3311.01682	0.00112
3309.08845	0.00136
3307.16007	0.00088
3305.23170	0.00027
3303.30333	0.00072
3301.37495	0.00075
3299.44658	0.00032
3297.51821	0.00030
3295.58983	0.00036
3293.66146	0.00057
3291.73309	0.00103
3289.80472	0.00158
3287.87634	0.00132
3285.94797	0.00050
3284.01960	0.00071
3282.09122	0.00083
3280.16285	0.00114
3278.23448	0.00126
3276.30610	0.00117
3274.37773	0.00113
3272.44936	0.00063
3270.52098	0.00105
3268.59261	0.00123
3266.66424	0.00081
3264.73586	0.00038
3262.80749	0.00081
3260.87912	0.00136
3258.95074	0.00128
3257.02237	0.00113
3255.09400	0.00129
3253.16562	0.00123
3251.23725	0.00173
3249.30888	0.00162
3247.38050	0.00135
3245.45213	0.00104
3243.52376	0.00060
3241.59538	0.00085
3239.66701	0.00079
3237.73864	0.00051
3235.81026	0.00047
3233.88189	0.00083
3231.95352	0.00105
3230.02515	0.00110
3228.09677	0.00078
3226.16840	0.00055
3224.24003	0.00058
3222.31165	0.00058
3220.38328	0.00086
3218.45491	0.00083
3216.52653	0.00068
3214.59816	0.00046
3212.66979	0.00100
3210.74141	0.00126
3208.81304	0.00101
3206.88467	0.00095
3204.95629	0.00098
3203.02792	0.00106
3201.09955	0.00108
3199.17117	0.00099
3197.24280	0.00065
3195.31443	0.00082
3193.38605	0.00127
3191.45768	0.00150
3189.52931	0.00133
3187.60093	0.00128
3185.67256	0.00103
3183.74419	0.00076
3181.81581	0.00057
3179.88744	0.00052
3177.95907	0.00042
3176.03070	0.00044
3174.10232	0.00061
3172.17395	0.00066
3170.24558	0.00036
3168.31720	0.00043
3166.38883	0.00068
3164.46046	0.00090
3162.53208	0.00137
3160.60371	0.00148
3158.67534	0.00117
3156.74696	0.00089
3154.81859	0.00051
3152.89022	0.00051
3150.96184	0.00075
3149.03347	0.00077
3147.10510	0.00062
3145.17672	0.00072
3143.24835	0.00086
3141.31998	0.00087
3139.39160	0.00077
3137.46323	0.00090
3135.53486	0.00111
3133.60648	0.00096
3131.67811	0.00049
3129.74974	0.00081
3127.82136	0.00090
3125.89299	0.00060
3123.96462	0.00044
3122.03624	0.00049
3120.10787	0.00087
3118.17950	0.00117
3116.25113	0.00088
3114.32275	0.00046
3112.39438	0.00050
3110.46601	0.00067
3108.53763	0.00094
3106.60926	0.00078
3104.68089	0.00035
3102.75251	0.00077
3100.82414	0.00095
3098.89577	0.00053
3096.96739	0.00098
3095.03902	0.00128
3093.11065	0.00113
3091.18227	0.00088
3089.25390	0.00063
3087.32553	0.00043
3085.39715	0.00067
3083.46878	0.00125
3081.54041	0.00095
3079.61203	0.00083
3077.68366	0.00102
3075.75529	0.00090
3073.82691	0.00049
3071.89854	0.00039
3069.97017	0.00061
3068.04179	0.00047
3066.11342	0.00054
3064.18505	0.00073
3062.25668	0.00098
3060.32830	0.00087
3058.39993	0.00051
3056.47156	0.00058
3054.54318	0.00065
3052.61481	0.00068
3050.68644	0.00056
3048.75806	0.00066
3046.82969	0.00115
3044.90132	0.00128
3042.97294	0.00093
3041.04457	0.00059
3039.11620	0.00046
3037.18782	0.00074
3035.25945	0.00096
3033.33108	0.00113
3031.40270	0.00095
3029.47433	0.00062
3027.54596	0.00056
3025.61758	0.00050
3023.68921	0.00076
3021.76084	0.00081
3019.83246	0.00082
3017.90409	0.00077
3015.97572	0.00049
3014.04734	0.00056
3012.11897	0.00045
3010.19060	0.00031
3008.26222	0.00048
3006.33385	0.00042
3004.40548	0.00028
3002.47711	0.00024
3000.54873	0.00058
2998.62036	0.00110
2996.69199	0.00122
2994.76361	0.00098
2992.83524	0.00076
2990.90687	0.00044
2988.97849	0.00075
2987.05012	0.00068
2985.12175	0.00039
2983.19337	0.00059
2981.26500	0.00131
2979.33663	0.00174
2977.40825	0.00121
2975.47988	0.00115
2973.55151	0.00070
2971.62313	0.00071
2969.69476	0.00091
2967.76639	0.00102
2965.83801	0.00100
2963.90964	0.00062
2961.98127	0.00053
2960.05289	0.00115
2958.12452	0.00107
2956.19615	0.00078
2954.26777	0.00102
2952.33940	0.00104
2950.41103	0.00129
2948.48266	0.00145
2946.55428	0.00112
2944.62591	0.00069
2942.69754	0.00041
2940.76916	0.00101
2938.84079	0.00111
2936.91242	0.00082
2934.98404	0.00110
2933.05567	0.00147
2931.12730	0.00089
2929.19892	0.00047
2927.27055	0.00062
2925.34218	0.00059
2923.41380	0.00095
2921.48543	0.00166
2919.55706	0.00194
2917.62868	0.00139
2915.70031	0.00070
2913.77194	0.00067
2911.84356	0.00071
2909.91519	0.00070
2907.98682	0.00063
2906.05844	0.00112
2904.13007	0.00121
2902.20170	0.00106
2900.27332	0.00107
2898.34495	0.00110
2896.41658	0.00111
2894.48820	0.00112
2892.55983	0.00102
2890.63146	0.00077
2888.70309	0.00081
2886.77471	0.00102
2884.84634	0.00091
2882.91797	0.00080
2880.98959	0.00050
2879.06122	0.00044
2877.13285	0.00058
2875.20447	0.00080
2873.27610	0.00102
2871.34773	0.00102
2869.41935	0.00089
2867.49098	0.00103
2865.56261	0.00105
2863.63423	0.00098
2861.70586	0.00081
2859.77749	0.00082
2857.84911	0.00094
2855.92074	0.00092
2853.99237	0.00074
2852.06399	0.00121
2850.13562	0.00126
2848.20725	0.00108
2846.27887	0.00096
2844.35050	0.00071
2842.42213	0.00077
2840.49375	0.00111
2838.56538	0.00127
2836.63701	0.00090
2834.70863	0.00079
2832.78026	0.00053
2830.85189	0.00043
2828.92352	0.00049
2826.99514	0.00065
2825.06677	0.00074
2823.13840	0.00060
2821.21002	0.00052
2819.28165	0.00040
2817.35328	0.00039
2815.42490	0.00049
2813.49653	0.00026
2811.56816	0.00052
2809.63978	0.00041
2807.71141	0.00097
2805.78304	0.00154
2803.85466	0.00177
2801.92629	0.00150
2799.99792	0.00104
2798.06954	0.00091
2796.14117	0.00089
2794.21280	0.00080
2792.28442	0.00079
2790.35605	0.00078
2788.42768	0.00102
2786.49930	0.00122
2784.57093	0.00121
2782.64256	0.00108
2780.71418	0.00105
2778.78581	0.00118
2776.85744	0.00136
2774.92907	0.00175
2773.00069	0.00171
2771.07232	0.00143
2769.14395	0.00127
2767.21557	0.00110
2765.28720	0.00116
2763.35883	0.00145
2761.43045	0.00164
2759.50208	0.00152
2757.57371	0.00132
2755.64533	0.00153
2753.71696	0.00167
2751.78859	0.00181
2749.86021	0.00193
2747.93184	0.00182
2746.00347	0.00164
2744.07509	0.00159
2742.14672	0.00180
2740.21835	0.00200
2738.28997	0.00194
2736.36160	0.00180
2734.43323	0.00187
2732.50485	0.00222
2730.57648	0.00245
2728.64811	0.00250
2726.71973	0.00274
2724.79136	0.00320
2722.86299	0.00348
2720.93461	0.00341
2719.00624	0.00319
2717.07787	0.00315
2715.14950	0.00323
2713.22112	0.00320
2711.29275	0.00306
2709.36438	0.00299
2707.43600	0.00311
2705.50763	0.00328
2703.57926	0.00345
2701.65088	0.00352
2699.72251	0.00347
2697.79414	0.00332
2695.86576	0.00323
2693.93739	0.00334
2692.00902	0.00350
2690.08064	0.00357
2688.15227	0.00363
2686.22390	0.00366
2684.29552	0.00371
2682.36715	0.00393
2680.43878	0.00407
2678.51040	0.00420
2676.58203	0.00450
2674.65366	0.00453
2672.72528	0.00417
2670.79691	0.00401
2668.86854	0.00431
2666.94016	0.00475
2665.01179	0.00508
2663.08342	0.00529
2661.15505	0.00547
2659.22667	0.00560
2657.29830	0.00562
2655.36993	0.00562
2653.44155	0.00569
2651.51318	0.00586
2649.58481	0.00621
2647.65643	0.00668
2645.72806	0.00684
2643.79969	0.00676
2641.87131	0.00683
2639.94294	0.00698
2638.01457	0.00719
2636.08619	0.00756
2634.15782	0.00792
2632.22945	0.00809
2630.30107	0.00803
2628.37270	0.00789
2626.44433	0.00812
2624.51595	0.00881
2622.58758	0.00957
2620.65921	0.01004
2618.73083	0.01004
2616.80246	0.00973
2614.87409	0.00964
2612.94571	0.01011
2611.01734	0.01086
2609.08897	0.01142
2607.16059	0.01171
2605.23222	0.01189
2603.30385	0.01223
2601.37548	0.01287
2599.44710	0.01348
2597.51873	0.01383
2595.59036	0.01406
2593.66198	0.01431
2591.73361	0.01463
2589.80524	0.01499
2587.87686	0.01534
2585.94849	0.01553
2584.02012	0.01546
2582.09174	0.01567
2580.16337	0.01645
2578.23500	0.01719
2576.30662	0.01747
2574.37825	0.01762
2572.44988	0.01785
2570.52150	0.01808
2568.59313	0.01833
2566.66476	0.01872
2564.73638	0.01915
2562.80801	0.01948
2560.87964	0.01987
2558.95126	0.02047
2557.02289	0.02097
2555.09452	0.02108
2553.16614	0.02113
2551.23777	0.02151
2549.30940	0.02207
2547.38103	0.02240
2545.45265	0.02252
2543.52428	0.02273
2541.59591	0.02318
2539.66753	0.02370
2537.73916	0.02406
2535.81079	0.02436
2533.88241	0.02468
2531.95404	0.02488
2530.02567	0.02509
2528.09729	0.02547
2526.16892	0.02589
2524.24055	0.02632
2522.31217	0.02674
2520.38380	0.02711
2518.45543	0.02751
2516.52705	0.02792
2514.59868	0.02831
2512.67031	0.02882
2510.74193	0.02932
2508.81356	0.02957
2506.88519	0.02971
2504.95681	0.03003
2503.02844	0.03054
2501.10007	0.03105
2499.17169	0.03136
2497.24332	0.03152
2495.31495	0.03172
2493.38657	0.03201
2491.45820	0.03236
2489.52983	0.03264
2487.60146	0.03289
2485.67308	0.03330
2483.74471	0.03383
2481.81634	0.03429
2479.88796	0.03455
2477.95959	0.03469
2476.03122	0.03500
2474.10284	0.03548
2472.17447	0.03590
2470.24610	0.03629
2468.31772	0.03691
2466.38935	0.03775
2464.46098	0.03848
2462.53260	0.03905
2460.60423	0.03961
2458.67586	0.04014
2456.74748	0.04044
2454.81911	0.04064
2452.89074	0.04104
2450.96236	0.04184
2449.03399	0.04284
2447.10562	0.04369
2445.17724	0.04428
2443.24887	0.04469
2441.32050	0.04502
2439.39212	0.04539
2437.46375	0.04584
2435.53538	0.04636
2433.60700	0.04697
2431.67863	0.04763
2429.75026	0.04824
2427.82189	0.04881
2425.89351	0.04939
2423.96514	0.04994
2422.03677	0.05030
2420.10839	0.05052
2418.18002	0.05087
2416.25165	0.05155
2414.32327	0.05239
2412.39490	0.05312
2410.46653	0.05374
2408.53815	0.05432
2406.60978	0.05485
2404.68141	0.05545
2402.75303	0.05621
2400.82466	0.05699
2398.89629	0.05772
2396.96791	0.05827
2395.03954	0.05856
2393.11117	0.05888
2391.18279	0.05944
2389.25442	0.06015
2387.32605	0.06092
2385.39767	0.06174
2383.46930	0.06267
2381.54093	0.06347
2379.61255	0.06385
2377.68418	0.06435
2375.75581	0.06571
2373.82744	0.06746
2371.89906	0.06871
2369.97069	0.06964
2368.04232	0.07100
2366.11394	0.07254
2364.18557	0.07320
2362.25720	0.07331
2360.32882	0.07426
2358.40045	0.07481
2356.47208	0.07333
2354.54370	0.07242
2352.61533	0.07373
2350.68696	0.07509
2348.75858	0.07557
2346.83021	0.07597
2344.90184	0.07636
2342.97346	0.07607
2341.04509	0.07608
2339.11672	0.07756
2337.18834	0.07937
2335.25997	0.08030
2333.33160	0.08049
2331.40322	0.08030
2329.47485	0.08034
2327.54648	0.08053
2325.61810	0.08023
2323.68973	0.08019
2321.76136	0.08094
2319.83298	0.08167
2317.90461	0.08212
2315.97624	0.08260
2314.04787	0.08304
2312.11949	0.08343
2310.19112	0.08382
2308.26275	0.08397
2306.33437	0.08413
2304.40600	0.08480
2302.47763	0.08578
2300.54925	0.08672
2298.62088	0.08754
2296.69251	0.08819
2294.76413	0.08862
2292.83576	0.08895
2290.90739	0.08949
2288.97901	0.09036
2287.05064	0.09126
2285.12227	0.09199
2283.19389	0.09263
2281.26552	0.09318
2279.33715	0.09352
2277.40877	0.09373
2275.48040	0.09403
2273.55203	0.09465
2271.62365	0.09546
2269.69528	0.09602
2267.76691	0.09639
2265.83853	0.09694
2263.91016	0.09757
2261.98179	0.09811
2260.05342	0.09864
2258.12504	0.09907
2256.19667	0.09931
2254.26830	0.09964
2252.33992	0.10024
2250.41155	0.10091
2248.48318	0.10139
2246.55480	0.10171
2244.62643	0.10213
2242.69806	0.10271
2240.76968	0.10319
2238.84131	0.10351
2236.91294	0.10389
2234.98456	0.10448
2233.05619	0.10516
2231.12782	0.10557
2229.19944	0.10562
2227.27107	0.10585
2225.34270	0.10659
2223.41432	0.10725
2221.48595	0.10746
2219.55758	0.10758
2217.62920	0.10784
2215.70083	0.10818
2213.77246	0.10863
2211.84408	0.10918
2209.91571	0.10976
2207.98734	0.11032
2206.05896	0.11072
2204.13059	0.11095
2202.20222	0.11109
2200.27385	0.11130
2198.34547	0.11178
2196.41710	0.11240
2194.48873	0.11290
2192.56035	0.11329
2190.63198	0.11359
2188.70361	0.11384
2186.77523	0.11413
2184.84686	0.11450
2182.91849	0.11490
2180.99011	0.11519
2179.06174	0.11530
2177.13337	0.11534
2175.20499	0.11558
2173.27662	0.11608
2171.34825	0.11661
2169.41987	0.11698
2167.49150	0.11711
2165.56313	0.11708
2163.63475	0.11715
2161.70638	0.11746
2159.77801	0.11800
2157.84963	0.11841
2155.92126	0.11830
2153.99289	0.11805
2152.06451	0.11827
2150.13614	0.11886
2148.20777	0.11935
2146.27940	0.11967
2144.35102	0.11995
2142.42265	0.12010
2140.49428	0.12014
2138.56590	0.12032
2136.63753	0.12078
2134.70916	0.12141
2132.78078	0.12208
2130.85241	0.12265
2128.92404	0.12302
2126.99566	0.12333
2125.06729	0.12377
2123.13892	0.12435
2121.21054	0.12485
2119.28217	0.12527
2117.35380	0.12572
2115.42542	0.12616
2113.49705	0.12664
2111.56868	0.12729
2109.64030	0.12797
2107.71193	0.12858
2105.78356	0.12906
2103.85518	0.12932
2101.92681	0.12953
2099.99844	0.12990
2098.07006	0.13044
2096.14169	0.13097
2094.21332	0.13143
2092.28494	0.13183
2090.35657	0.13206
2088.42820	0.13211
2086.49983	0.13223
2084.57145	0.13243
2082.64308	0.13272
2080.71471	0.13312
2078.78633	0.13338
2076.85796	0.13335
2074.92959	0.13310
2073.00121	0.13291
2071.07284	0.13306
2069.14447	0.13323
2067.21609	0.13323
2065.28772	0.13346
2063.35935	0.13380
2061.43097	0.13382
2059.50260	0.13377
2057.57423	0.13397
2055.64585	0.13426
2053.71748	0.13445
2051.78911	0.13479
2049.86073	0.13540
2047.93236	0.13597
2046.00399	0.13625
2044.07561	0.13648
2042.14724	0.13693
2040.21887	0.13761
2038.29049	0.13821
2036.36212	0.13859
2034.43375	0.13882
2032.50538	0.13905
2030.57700	0.13948
2028.64863	0.13991
2026.72026	0.14003
2024.79188	0.14004
2022.86351	0.14025
2020.93514	0.14047
2019.00676	0.14050
2017.07839	0.14052
2015.15002	0.14064
2013.22164	0.14083
2011.29327	0.14115
2009.36490	0.14161
2007.43652	0.14188
2005.50815	0.14179
2003.57978	0.14181
2001.65140	0.14225
1999.72303	0.14270
1997.79466	0.14275
1995.86628	0.14268
1993.93791	0.14276
1992.00954	0.14296
1990.08116	0.14330
1988.15279	0.14371
1986.22442	0.14395
1984.29604	0.14404
1982.36767	0.14429
1980.43930	0.14466
1978.51092	0.14481
1976.58255	0.14477
1974.65418	0.14471
1972.72581	0.14472
1970.79743	0.14494
1968.86906	0.14537
1966.94069	0.14575
1965.01231	0.14590
1963.08394	0.14592
1961.15557	0.14595
1959.22719	0.14599
1957.29882	0.14618
1955.37045	0.14656
1953.44207	0.14683
1951.51370	0.14686
1949.58533	0.14693
1947.65695	0.14715
1945.72858	0.14734
1943.80021	0.14750
1941.87183	0.14754
1939.94346	0.14745
1938.01509	0.14735
1936.08671	0.14729
1934.15834	0.14722
1932.22997	0.14699
1930.30159	0.14672
1928.37322	0.14663
1926.44485	0.14671
1924.51647	0.14702
1922.58810	0.14735
1920.65973	0.14749
1918.73135	0.14754
1916.80298	0.14733
1914.87461	0.14693
1912.94624	0.14682
1911.01786	0.14688
1909.08949	0.14682
1907.16112	0.14670
1905.23274	0.14653
1903.30437	0.14631
1901.37600	0.14612
1899.44762	0.14584
1897.51925	0.14540
1895.59088	0.14506
1893.66250	0.14491
1891.73413	0.14476
1889.80576	0.14440
1887.87738	0.14393
1885.94901	0.14348
1884.02064	0.14294
1882.09226	0.14238
1880.16389	0.14201
1878.23552	0.14165
1876.30714	0.14104
1874.37877	0.14054
1872.45040	0.14059
1870.52202	0.14071
1868.59365	0.14008
1866.66528	0.13879
1864.73690	0.13763
1862.80853	0.13679
1860.88016	0.13599
1858.95179	0.13508
1857.02341	0.13422
1855.09504	0.13356
1853.16667	0.13308
1851.23829	0.13271
1849.30992	0.13253
1847.38155	0.13253
1845.45317	0.13241
1843.52480	0.13166
1841.59643	0.13068
1839.66805	0.13012
1837.73968	0.12972
1835.81131	0.12909
1833.88293	0.12855
1831.95456	0.12851
1830.02619	0.12846
1828.09781	0.12770
1826.16944	0.12664
1824.24107	0.12555
1822.31269	0.12445
1820.38432	0.12342
1818.45595	0.12225
1816.52757	0.12085
1814.59920	0.11936
1812.67083	0.11794
1810.74245	0.11638
1808.81408	0.11440
1806.88571	0.11204
1804.95733	0.10952
1803.02896	0.10712
1801.10059	0.10482
1799.17222	0.10219
1797.24384	0.09914
1795.31547	0.09610
1793.38710	0.09294
1791.45872	0.08920
1789.53035	0.08554
1787.60198	0.08247
1785.67360	0.07955
1783.74523	0.07649
1781.81686	0.07348
1779.88848	0.07056
1777.96011	0.06787
1776.03174	0.06556
1774.10336	0.06340
1772.17499	0.06075
1770.24662	0.05777
1768.31824	0.05479
1766.38987	0.05154
1764.46150	0.04824
1762.53312	0.04451
1760.60475	0.04016
1758.67638	0.03603
1756.74800	0.03167
1754.81963	0.02716
1752.89126	0.02288
1750.96288	0.01819
1749.03451	0.01356
1747.10614	0.00987
1745.17777	0.00672
1743.24939	0.00414
1741.32102	0.00247
1739.39265	0.00165
1737.46427	0.00140
1735.53590	0.00116
1733.60753	0.00075
1731.67915	0.00052
1729.75078	0.00035
1727.82241	0.00048
1725.89403	0.00060
1723.96566	0.00065
1722.03729	0.00058
1720.10891	0.00056
1718.18054	0.00056
1716.25217	0.00022
1714.32379	0.00039
1712.39542	0.00048
1710.46705	0.00068
1708.53867	0.00080
1706.61030	0.00101
1704.68193	0.00089
1702.75355	0.00078
1700.82518	0.00130
1698.89681	0.00116
1696.96843	0.00059
1695.04006	0.00038
1693.11169	0.00031
1691.18331	0.00032
1689.25494	0.00054
1687.32657	0.00075
1685.39820	0.00095
1683.46982	0.00106
1681.54145	0.00097
1679.61308	0.00122
1677.68470	0.00145
1675.75633	0.00131
1673.82796	0.00075
1671.89958	0.00043
1669.97121	0.00064
1668.04284	0.00052
1666.11446	0.00050
1664.18609	0.00057
1662.25772	0.00081
1660.32934	0.00085
1658.40097	0.00068
1656.47260	0.00040
1654.54422	0.00037
1652.61585	0.00098
1650.68748	0.00080
1648.75910	0.00059
1646.83073	0.00019
1644.90236	0.00045
1642.97398	0.00050
1641.04561	0.00040
1639.11724	0.00069
1637.18886	0.00148
1635.26049	0.00165
1633.33212	0.00080
1631.40375	0.00044
1629.47537	0.00040
1627.54700	0.00049
1625.61863	0.00017
1623.69025	0.00025
1621.76188	0.00049
1619.83351	0.00068
1617.90513	0.00068
1615.97676	0.00063
1614.04839	0.00038
1612.12001	0.00050
1610.19164	0.00078
1608.26327	0.00084
1606.33489	0.00066
1604.40652	0.00039
1602.47815	0.00048
1600.54977	0.00049
1598.62140	0.00022
1596.69303	0.00036
1594.76465	0.00054
1592.83628	0.00043
1590.90791	0.00014
1588.97953	0.00046
1587.05116	0.00036
1585.12279	0.00025
1583.19441	0.00043
1581.26604	0.00045
1579.33767	0.00037
1577.40929	0.00050
1575.48092	0.00043
1573.55255	0.00031
1571.62418	0.00082
1569.69580	0.00116
1567.76743	0.00083
1565.83906	0.00033
1563.91068	0.00041
1561.98231	0.00071
1560.05394	0.00076
1558.12556	0.00033
1556.19719	0.00055
1554.26882	0.00065
1552.34044	0.00021
1550.41207	0.00065
1548.48370	0.00101
1546.55532	0.00091
1544.62695	0.00069
1542.69858	0.00076
1540.77020	0.00126
1538.84183	0.00120
1536.91346	0.00077
1534.98508	0.00055
1533.05671	0.00061
1531.12834	0.00060
1529.19996	0.00061
1527.27159	0.00104
1525.34322	0.00116
1523.41484	0.00098
1521.48647	0.00088
1519.55810	0.00072
1517.62972	0.00071
1515.70135	0.00047
1513.77298	0.00055
1511.84461	0.00052
1509.91623	0.00029
1507.98786	0.00064
1506.05949	0.00113
1504.13111	0.00081
1502.20274	0.00070
1500.27437	0.00097
1498.34599	0.00090
1496.41762	0.00059
1494.48925	0.00029
1492.56087	0.00056
1490.63250	0.00079
1488.70413	0.00078
1486.77575	0.00069
1484.84738	0.00084
1482.91901	0.00104
1480.99063	0.00106
1479.06226	0.00097
1477.13389	0.00104
1475.20551	0.00115
1473.27714	0.00131
1471.34877	0.00136
1469.42039	0.00119
1467.49202	0.00130
1465.56365	0.00134
1463.63527	0.00116
1461.70690	0.00114
1459.77853	0.00111
1457.85016	0.00080
1455.92178	0.00095
1453.99341	0.00093
1452.06504	0.00070
1450.13666	0.00057
1448.20829	0.00042
1446.27992	0.00017
1444.35154	0.00029
1442.42317	0.00026
1440.49480	0.00023
1438.56642	0.00057
1436.63805	0.00070
1434.70968	0.00062
1432.78130	0.00049
1430.85293	0.00078
1428.92456	0.00091
1426.99618	0.00074
1425.06781	0.00069
1423.13944	0.00083
1421.21106	0.00071
1419.28269	0.00049
1417.35432	0.00069
1415.42594	0.00044
1413.49757	0.00054
1411.56920	0.00112
1409.64082	0.00104
1407.71245	0.00077
1405.78408	0.00064
1403.85570	0.00029
1401.92733	0.00050
1399.99896	0.00060
1398.07059	0.00082
1396.14221	0.00059
1394.21384	0.00036
1392.28547	0.00068
1390.35709	0.00084
1388.42872	0.00073
1386.50035	0.00098
1384.57197	0.00103
1382.64360	0.00088
1380.71523	0.00066
1378.78685	0.00045
1376.85848	0.00076
1374.93011	0.00125
1373.00173	0.00139
1371.07336	0.00111
1369.14499	0.00097
1367.21661	0.00095
1365.28824	0.00094
1363.35987	0.00075
1361.43149	0.00053
1359.50312	0.00054
1357.57475	0.00035
1355.64637	0.00030
1353.71800	0.00042
1351.78963	0.00061
1349.86125	0.00065
1347.93288	0.00063
1346.00451	0.00031
1344.07614	0.00024
1342.14776	0.00048
1340.21939	0.00057
1338.29102	0.00050
1336.36264	0.00057
1334.43427	0.00062
1332.50590	0.00064
1330.57752	0.00084
1328.64915	0.00094
1326.72078	0.00080
1324.79240	0.00084
1322.86403	0.00098
1320.93566	0.00079
1319.00728	0.00035
1317.07891	0.00047
1315.15054	0.00116
1313.22216	0.00116
1311.29379	0.00050
1309.36542	0.00060
1307.43704	0.00089
1305.50867	0.00104
1303.58030	0.00146
1301.65192	0.00152
1299.72355	0.00115
1297.79518	0.00073
1295.86680	0.00028
1293.93843	0.00044
1292.01006	0.00086
1290.08168	0.00132
1288.15331	0.00160
1286.22494	0.00149
1284.29657	0.00115
1282.36819	0.00118
1280.43982	0.00171
1278.51145	0.00198
1276.58307	0.00174
1274.65470	0.00114
1272.72633	0.00082
1270.79795	0.00118
1268.86958	0.00167
1266.94121	0.00156
1265.01283	0.00109
1263.08446	0.00079
1261.15609	0.00090
1259.22771	0.00054
1257.29934	0.00039
1255.37097	0.00068
1253.44259	0.00108
1251.51422	0.00125
1249.58585	0.00147
1247.65747	0.00149
1245.72910	0.00116
1243.80073	0.00139
1241.87235	0.00152
1239.94398	0.00161
1238.01561	0.00175
1236.08723	0.00182
1234.15886	0.00182
1232.23049	0.00152
1230.30212	0.00112
1228.37374	0.00152
1226.44537	0.00228
1224.51700	0.00236
1222.58862	0.00234
1220.66025	0.00265
1218.73188	0.00320
1216.80350	0.00342
1214.87513	0.00339
1212.94676	0.00287
1211.01838	0.00179
1209.09001	0.00099
1207.16164	0.00101
1205.23326	0.00148
1203.30489	0.00251
1201.37652	0.00325
1199.44814	0.00312
1197.51977	0.00323
1195.59140	0.00421
1193.66302	0.00504
1191.73465	0.00510
1189.80628	0.00483
1187.87790	0.00448
1185.94953	0.00413
1184.02116	0.00361
1182.09278	0.00345
1180.16441	0.00364
1178.23604	0.00368
1176.30766	0.00375
1174.37929	0.00342
1172.45092	0.00203
1170.52255	0.00134
1168.59417	0.00180
1166.66580	0.00228
1164.73743	0.00191
1162.80905	0.00104
1160.88068	0.00094
1158.95231	0.00098
1157.02393	0.00055
1155.09556	0.00051
1153.16719	0.00130
1151.23881	0.00219
1149.31044	0.00285
1147.38207	0.00296
1145.45369	0.00246
1143.52532	0.00217
1141.59695	0.00232
1139.66857	0.00231
1137.74020	0.00261
1135.81183	0.00233
1133.88345	0.00156
1131.95508	0.00144
1130.02671	0.00093
1128.09833	0.00052
1126.16996	0.00052
1124.24159	0.00099
1122.31321	0.00115
1120.38484	0.00120
1118.45647	0.00144
1116.52809	0.00177
1114.59972	0.00137
1112.67135	0.00143
1110.74298	0.00118
1108.81460	0.00114
1106.88623	0.00159
1104.95786	0.00167
1103.02948	0.00140
1101.10111	0.00123
1099.17274	0.00174
1097.24436	0.00260
1095.31599	0.00255
1093.38762	0.00198
1091.45924	0.00152
1089.53087	0.00129
1087.60250	0.00178
1085.67412	0.00233
1083.74575	0.00200
1081.81738	0.00110
1079.88900	0.00135
1077.96063	0.00152
1076.03226	0.00164
1074.10388	0.00159
1072.17551	0.00165
1070.24714	0.00185
1068.31876	0.00147
1066.39039	0.00153
1064.46202	0.00153
1062.53364	0.00105
1060.60527	0.00155
1058.67690	0.00232
1056.74853	0.00206
1054.82015	0.00150
1052.89178	0.00167
1050.96341	0.00216
1049.03503	0.00152
1047.10666	0.00115
1045.17829	0.00145
1043.24991	0.00098
1041.32154	0.00052
1039.39317	0.00020
1037.46479	0.00067
1035.53642	0.00117
1033.60805	0.00159
1031.67967	0.00162
1029.75130	0.00178
1027.82293	0.00168
1025.89455	0.00177
1023.96618	0.00121
1022.03781	0.00059
1020.10943	0.00054
1018.18106	0.00086
1016.25269	0.00068
1014.32431	0.00094
1012.39594	0.00103
1010.46757	0.00110
1008.53919	0.00138
1006.61082	0.00125
1004.68245	0.00171
1002.75407	0.00226
1000.82570	0.00246
998.89733	0.00264
996.96896	0.00294
995.04058	0.00327
993.11221	0.00365
991.18384	0.00416
989.25546	0.00515
987.32709	0.00619
985.39872	0.00649
983.47034	0.00632
981.54197	0.00648
979.61360	0.00688
977.68522	0.00717
975.75685	0.00747
973.82848	0.00807
971.90010	0.00916
969.97173	0.01066
968.04336	0.01225
966.11498	0.01395
964.18661	0.01537
962.25824	0.01571
960.32986	0.01448
958.40149	0.01183
956.47312	0.00902
954.54474	0.00782
952.61637	0.00849
950.68800	0.00993
948.75962	0.01183
946.83125	0.01416
944.90288	0.01604
942.97451	0.01698
941.04613	0.01770
939.11776	0.01906
937.18939	0.02083
935.26101	0.02181
933.33264	0.02173
931.40427	0.02126
929.47589	0.02078
927.54752	0.02060
925.61915	0.02024
923.69077	0.01911
921.76240	0.01819
919.83403	0.01803
917.90565	0.01791
915.97728	0.01766
914.04891	0.01759
912.12053	0.01768
910.19216	0.01731
908.26379	0.01589
906.33541	0.01386
904.40704	0.01232
902.47867	0.01148
900.55029	0.01069
898.62192	0.00995
896.69355	0.00965
894.76517	0.00926
892.83680	0.00858
890.90843	0.00784
888.98005	0.00755
887.05168	0.00763
885.12331	0.00763
883.19494	0.00751
881.26656	0.00713
879.33819	0.00701
877.40982	0.00791
875.48144	0.00919
873.55307	0.00996
871.62470	0.01007
869.69632	0.00974
867.76795	0.00909
865.83958	0.00794
863.91120	0.00640
861.98283	0.00539
860.05446	0.00547
858.12608	0.00623
856.19771	0.00669
854.26934	0.00655
852.34096	0.00636
850.41259	0.00654
848.48422	0.00708
846.55584	0.00760
844.62747	0.00714
842.69910	0.00553
840.77072	0.00448
838.84235	0.00472
836.91398	0.00500
834.98560	0.00436
833.05723	0.00322
831.12886	0.00259
829.20049	0.00243
827.27211	0.00283
825.34374	0.00331
823.41537	0.00345
821.48699	0.00349
819.55862	0.00381
817.63025	0.00403
815.70187	0.00393
813.77350	0.00410
811.84513	0.00467
809.91675	0.00454
807.98838	0.00325
806.06001	0.00215
804.13163	0.00226
802.20326	0.00272
800.27489	0.00343
798.34651	0.00342
796.41814	0.00359
794.48977	0.00417
792.56139	0.00439
790.63302	0.00400
788.70465	0.00345
786.77627	0.00273
784.84790	0.00204
782.91953	0.00132
780.99115	0.00140
779.06278	0.00205
777.13441	0.00318
775.20603	0.00335
773.27766	0.00240
771.34929	0.00175
769.42092	0.00222
767.49254	0.00298
765.56417	0.00313
763.63580	0.00326
761.70742	0.00287
759.77905	0.00184
757.85068	0.00240
755.92230	0.00348
753.99393	0.00254
752.06556	0.00121
750.13718	0.00191
748.20881	0.00246
746.28044	0.00166
744.35206	0.00175
742.42369	0.00268
740.49532	0.00243
738.56694	0.00172
736.63857	0.00194
734.71020	0.00209
732.78182	0.00173
730.85345	0.00076
728.92508	0.00042
726.99670	0.00109
725.06833	0.00172
723.13996	0.00138
721.21158	0.00070
719.28321	0.00194
717.35484	0.00184
715.42647	0.00118
713.49809	0.00194
711.56972	0.00255
709.64135	0.00187
707.71297	0.00174
705.78460	0.00144
703.85623	0.00174
701.92785	0.00212
699.99948	0.00153
698.07111	0.00130
696.14273	0.00216
694.21436	0.00135
692.28599	0.00073
690.35761	0.00214
688.42924	0.00322
686.50087	0.00245
684.57249	0.00132
682.64412	0.00163
680.71575	0.00289
678.78737	0.00424
676.85900	0.00493
674.93063	0.00471
673.00225	0.00452
671.07388	0.00420
669.14551	0.00337
667.21713	0.00317
665.28876	0.00219
663.36039	0.00168
661.43201	0.00278
659.50364	0.00488
657.57527	0.00636
655.64690	0.00525
653.71852	0.00213
651.79015	0.00321
649.86178	0.00404
647.93340	0.00347
646.00503	0.00466
644.07666	0.00433
642.14828	0.00494
640.21991	0.00767
638.29154	0.00556
636.36316	0.00272
634.43479	0.00239
632.50642	0.00457
630.57804	0.00611
628.64967	0.00403
626.72130	0.00261
624.79292	0.00494
622.86455	0.00392
620.93618	0.00275
619.00780	0.00764
617.07943	0.00808
615.15106	0.00624
613.22268	0.00511
611.29431	0.00389
609.36594	0.00798
607.43756	0.01253
605.50919	0.01438
603.58082	0.01376
601.65244	0.01096
599.72407	0.01076
