3997.51769	0.78803
3995.58931	0.78801
3993.66094	0.78780
3991.73257	0.78745
3989.80419	0.78762
3987.87582	0.78862
3985.94745	0.78949
3984.01907	0.78951
3982.09070	0.78921
3980.16233	0.78904
3978.23396	0.78872
3976.30558	0.78792
3974.37721	0.78733
3972.44884	0.78766
3970.52046	0.78866
3968.59209	0.79020
3966.66372	0.79185
3964.73534	0.79213
3962.80697	0.79080
3960.87860	0.79029
3958.95022	0.79171
3957.02185	0.79347
3955.09348	0.79457
3953.16510	0.79407
3951.23673	0.79101
3949.30836	0.78792
3947.37998	0.78871
3945.45161	0.79037
3943.52324	0.78929
3941.59486	0.79080
3939.66649	0.79662
3937.73812	0.80042
3935.80974	0.79888
3933.88137	0.79280
3931.95300	0.78756
3930.02462	0.78933
3928.09625	0.79395
3926.16788	0.79399
3924.23950	0.79236
3922.31113	0.79373
3920.38276	0.79374
3918.45439	0.79102
3916.52601	0.79273
3914.59764	0.80103
3912.66927	0.80886
3910.74089	0.81185
3908.81252	0.80915
3906.88415	0.79827
3904.95577	0.78177
3903.02740	0.77080
3901.09903	0.77133
3899.17065	0.78149
3897.24228	0.79683
3895.31391	0.80566
3893.38553	0.80189
3891.45716	0.79690
3889.52879	0.80108
3887.60041	0.80233
3885.67204	0.79635
3883.74367	0.79331
3881.81529	0.79189
3879.88692	0.79492
3877.95855	0.80573
3876.03017	0.80781
3874.10180	0.79832
3872.17343	0.78874
3870.24505	0.78477
3868.31668	0.79002
3866.38831	0.79486
3864.45994	0.79291
3862.53156	0.79694
3860.60319	0.80812
3858.67482	0.81158
3856.74644	0.80131
3854.81807	0.78047
3852.88970	0.76929
3850.96132	0.78850
3849.03295	0.81152
3847.10458	0.82122
3845.17620	0.81683
3843.24783	0.80448
3841.31946	0.79089
3839.39108	0.78039
3837.46271	0.78050
3835.53434	0.79085
3833.60596	0.80063
3831.67759	0.80823
3829.74922	0.81410
3827.82084	0.81476
3825.89247	0.81201
3823.96410	0.80489
3822.03572	0.78948
3820.10735	0.78243
3818.17898	0.79076
3816.25060	0.79968
3814.32223	0.81303
3812.39386	0.82696
3810.46548	0.82914
3808.53711	0.81886
3806.60874	0.80791
3804.68037	0.80260
3802.75199	0.79347
3800.82362	0.78897
3798.89525	0.79781
3796.96687	0.80702
3795.03850	0.81739
3793.11013	0.82897
3791.18175	0.83449
3789.25338	0.83407
3787.32501	0.82967
3785.39663	0.82401
3783.46826	0.82184
3781.53989	0.81898
3779.61151	0.81404
3777.68314	0.81741
3775.75477	0.82607
3773.82639	0.82730
3771.89802	0.81803
3769.96965	0.80671
3768.04127	0.80338
3766.11290	0.80561
3764.18453	0.80952
3762.25615	0.80934
3760.32778	0.80000
3758.39941	0.79188
3756.47103	0.79170
3754.54266	0.78651
3752.61429	0.76834
3750.68591	0.75150
3748.75754	0.75423
3746.82917	0.75935
3744.90080	0.75837
3742.97242	0.76557
3741.04405	0.77554
3739.11568	0.77276
3737.18730	0.75523
3735.25893	0.73777
3733.33056	0.74306
3731.40218	0.76525
3729.47381	0.78092
3727.54544	0.78087
3725.61706	0.77275
3723.68869	0.76802
3721.76032	0.76935
3719.83194	0.77455
3717.90357	0.77948
3715.97520	0.77784
3714.04682	0.76439
3712.11845	0.74348
3710.19008	0.73642
3708.26170	0.74938
3706.33333	0.76191
3704.40496	0.76152
3702.47658	0.75231
3700.54821	0.74787
3698.61984	0.74961
3696.69146	0.74773
3694.76309	0.73870
3692.83472	0.72095
3690.90635	0.69647
3688.97797	0.68137
3687.04960	0.68605
3685.12123	0.69334
3683.19285	0.69048
3681.26448	0.67648
3679.33611	0.65437
3677.40773	0.62600
3675.47936	0.59883
3673.55099	0.58883
3671.62261	0.58255
3669.69424	0.56938
3667.76587	0.56391
3665.83749	0.56290
3663.90912	0.55377
3661.98075	0.53752
3660.05237	0.51826
3658.12400	0.49610
3656.19563	0.47241
3654.26725	0.45196
3652.33888	0.42955
3650.41051	0.39798
3648.48213	0.37013
3646.55376	0.36115
3644.62539	0.35830
3642.69701	0.34984
3640.76864	0.33563
3638.84027	0.31948
3636.91189	0.30282
3634.98352	0.28539
3633.05515	0.26797
3631.12678	0.25037
3629.19840	0.23063
3627.27003	0.21573
3625.34166	0.20849
3623.41328	0.20007
3621.48491	0.18737
3619.55654	0.17231
3617.62816	0.15975
3615.69979	0.15067
3613.77142	0.14172
3611.84304	0.13282
3609.91467	0.12441
3607.98630	0.11618
3606.05792	0.10946
3604.12955	0.10389
3602.20118	0.09722
3600.27280	0.08979
3598.34443	0.08311
3596.41606	0.07704
3594.48768	0.07146
3592.55931	0.06665
3590.63094	0.06206
3588.70256	0.05658
3586.77419	0.05141
3584.84582	0.04817
3582.91744	0.04542
3580.98907	0.04222
3579.06070	0.03889
3577.13233	0.03589
3575.20395	0.03304
3573.27558	0.03028
3571.34721	0.02771
3569.41883	0.02515
3567.49046	0.02256
3565.56209	0.02040
3563.63371	0.01889
3561.70534	0.01753
3559.77697	0.01630
3557.84859	0.01513
3555.92022	0.01365
3553.99185	0.01203
3552.06347	0.01070
3550.13510	0.00975
3548.20673	0.00864
3546.27835	0.00744
3544.34998	0.00658
3542.42161	0.00602
3540.49323	0.00563
3538.56486	0.00522
3536.63649	0.00474
3534.70811	0.00422
3532.77974	0.00366
3530.85137	0.00301
3528.92299	0.00238
3526.99462	0.00192
3525.06625	0.00154
3523.13787	0.00101
3521.20950	0.00045
3519.28113	0.00035
3517.35276	0.00035
3515.42438	0.00038
3513.49601	0.00037
3511.56764	0.00057
3509.63926	0.00094
3507.71089	0.00116
3505.78252	0.00095
3503.85414	0.00082
3501.92577	0.00094
3499.99740	0.00116
3498.06902	0.00125
3496.14065	0.00111
3494.21228	0.00104
3492.28390	0.00110
3490.35553	0.00127
3488.42716	0.00151
3486.49878	0.00154
3484.57041	0.00150
3482.64204	0.00148
3480.71366	0.00122
3478.78529	0.00082
3476.85692	0.00078
3474.92854	0.00097
3473.00017	0.00111
3471.07180	0.00111
3469.14342	0.00103
3467.21505	0.00096
3465.28668	0.00098
3463.35831	0.00103
3461.42993	0.00104
3459.50156	0.00117
3457.57319	0.00133
3455.64481	0.00131
3453.71644	0.00117
3451.78807	0.00110
3449.85969	0.00124
3447.93132	0.00148
3446.00295	0.00158
3444.07457	0.00149
3442.14620	0.00137
3440.21783	0.00116
3438.28945	0.00098
3436.36108	0.00096
3434.43271	0.00093
3432.50433	0.00090
3430.57596	0.00095
3428.64759	0.00102
3426.71921	0.00102
3424.79084	0.00098
3422.86247	0.00089
3420.93409	0.00076
3419.00572	0.00086
3417.07735	0.00117
3415.14897	0.00149
3413.22060	0.00167
3411.29223	0.00158
3409.36385	0.00134
3407.43548	0.00122
3405.50711	0.00112
3403.57874	0.00096
3401.65036	0.00089
3399.72199	0.00097
3397.79362	0.00107
3395.86524	0.00106
3393.93687	0.00109
3392.00850	0.00124
3390.08012	0.00136
3388.15175	0.00140
3386.22338	0.00135
3384.29500	0.00119
3382.36663	0.00122
3380.43826	0.00142
3378.50988	0.00153
3376.58151	0.00140
3374.65314	0.00119
3372.72476	0.00102
3370.79639	0.00106
3368.86802	0.00114
3366.93964	0.00105
3365.01127	0.00099
3363.08290	0.00108
3361.15452	0.00110
3359.22615	0.00108
3357.29778	0.00110
3355.36940	0.00120
3353.44103	0.00141
3351.51266	0.00145
3349.58428	0.00126
3347.65591	0.00115
3345.72754	0.00124
3343.79917	0.00124
3341.87079	0.00122
3339.94242	0.00115
3338.01405	0.00102
3336.08567	0.00091
3334.15730	0.00107
3332.22893	0.00123
3330.30055	0.00117
3328.37218	0.00100
3326.44381	0.00090
3324.51543	0.00083
3322.58706	0.00098
3320.65869	0.00116
3318.73031	0.00114
3316.80194	0.00099
3314.87357	0.00081
3312.94519	0.00076
3311.01682	0.00084
3309.08845	0.00094
3307.16007	0.00110
3305.23170	0.00111
3303.30333	0.00100
3301.37495	0.00102
3299.44658	0.00117
3297.51821	0.00119
3295.58983	0.00111
3293.66146	0.00106
3291.73309	0.00103
3289.80472	0.00093
3287.87634	0.00088
3285.94797	0.00085
3284.01960	0.00086
3282.09122	0.00103
3280.16285	0.00111
3278.23448	0.00114
3276.30610	0.00119
3274.37773	0.00111
3272.44936	0.00100
3270.52098	0.00110
3268.59261	0.00122
3266.66424	0.00117
3264.73586	0.00111
3262.80749	0.00103
3260.87912	0.00096
3258.95074	0.00094
3257.02237	0.00081
3255.09400	0.00075
3253.16562	0.00085
3251.23725	0.00103
3249.30888	0.00119
3247.38050	0.00127
3245.45213	0.00117
3243.52376	0.00094
3241.59538	0.00081
3239.66701	0.00092
3237.73864	0.00101
3235.81026	0.00093
3233.88189	0.00099
3231.95352	0.00136
3230.02515	0.00159
3228.09677	0.00153
3226.16840	0.00145
3224.24003	0.00130
3222.31165	0.00102
3220.38328	0.00092
3218.45491	0.00086
3216.52653	0.00072
3214.59816	0.00074
3212.66979	0.00088
3210.74141	0.00097
3208.81304	0.00092
3206.88467	0.00082
3204.95629	0.00092
3203.02792	0.00114
3201.09955	0.00119
3199.17117	0.00111
3197.24280	0.00114
3195.31443	0.00120
3193.38605	0.00117
3191.45768	0.00112
3189.52931	0.00103
3187.60093	0.00098
3185.67256	0.00107
3183.74419	0.00101
3181.81581	0.00076
3179.88744	0.00065
3177.95907	0.00079
3176.03070	0.00093
3174.10232	0.00096
3172.17395	0.00103
3170.24558	0.00106
3168.31720	0.00100
3166.38883	0.00094
3164.46046	0.00096
3162.53208	0.00094
3160.60371	0.00102
3158.67534	0.00115
3156.74696	0.00111
3154.81859	0.00090
3152.89022	0.00068
3150.96184	0.00071
3149.03347	0.00101
3147.10510	0.00127
3145.17672	0.00130
3143.24835	0.00119
3141.31998	0.00110
3139.39160	0.00113
3137.46323	0.00105
3135.53486	0.00096
3133.60648	0.00117
3131.67811	0.00135
3129.74974	0.00123
3127.82136	0.00112
3125.89299	0.00120
3123.96462	0.00136
3122.03624	0.00142
3120.10787	0.00131
3118.17950	0.00115
3116.25113	0.00107
3114.32275	0.00094
3112.39438	0.00074
3110.46601	0.00071
3108.53763	0.00089
3106.60926	0.00109
3104.68089	0.00122
3102.75251	0.00126
3100.82414	0.00126
3098.89577	0.00123
3096.96739	0.00115
3095.03902	0.00101
3093.11065	0.00089
3091.18227	0.00096
3089.25390	0.00114
3087.32553	0.00121
3085.39715	0.00116
3083.46878	0.00117
3081.54041	0.00132
3079.61203	0.00145
3077.68366	0.00131
3075.75529	0.00107
3073.82691	0.00093
3071.89854	0.00087
3069.97017	0.00085
3068.04179	0.00087
3066.11342	0.00089
3064.18505	0.00089
3062.25668	0.00086
3060.32830	0.00089
3058.39993	0.00094
3056.47156	0.00099
3054.54318	0.00107
3052.61481	0.00121
3050.68644	0.00126
3048.75806	0.00114
3046.82969	0.00094
3044.90132	0.00086
3042.97294	0.00086
3041.04457	0.00093
3039.11620	0.00112
3037.18782	0.00109
3035.25945	0.00085
3033.33108	0.00078
3031.40270	0.00087
3029.47433	0.00092
3027.54596	0.00086
3025.61758	0.00075
3023.68921	0.00072
3021.76084	0.00079
3019.83246	0.00089
3017.90409	0.00094
3015.97572	0.00095
3014.04734	0.00106
3012.11897	0.00112
3010.19060	0.00110
3008.26222	0.00101
3006.33385	0.00094
3004.40548	0.00094
3002.47711	0.00096
3000.54873	0.00096
2998.62036	0.00089
2996.69199	0.00081
2994.76361	0.00077
2992.83524	0.00086
2990.90687	0.00100
2988.97849	0.00087
2987.05012	0.00065
2985.12175	0.00066
2983.19337	0.00088
2981.26500	0.00115
2979.33663	0.00125
2977.40825	0.00132
2975.47988	0.00147
2973.55151	0.00154
2971.62313	0.00162
2969.69476	0.00171
2967.76639	0.00155
2965.83801	0.00140
2963.90964	0.00154
2961.98127	0.00159
2960.05289	0.00158
2958.12452	0.00175
2956.19615	0.00179
2954.26777	0.00153
2952.33940	0.00126
2950.41103	0.00123
2948.48266	0.00146
2946.55428	0.00163
2944.62591	0.00155
2942.69754	0.00151
2940.76916	0.00153
2938.84079	0.00148
2936.91242	0.00147
2934.98404	0.00153
2933.05567	0.00151
2931.12730	0.00142
2929.19892	0.00127
2927.27055	0.00115
2925.34218	0.00108
2923.41380	0.00100
2921.48543	0.00098
2919.55706	0.00105
2917.62868	0.00117
2915.70031	0.00115
2913.77194	0.00108
2911.84356	0.00125
2909.91519	0.00135
2907.98682	0.00128
2906.05844	0.00119
2904.13007	0.00096
2902.20170	0.00061
2900.27332	0.00053
2898.34495	0.00064
2896.41658	0.00087
2894.48820	0.00108
2892.55983	0.00108
2890.63146	0.00099
2888.70309	0.00087
2886.77471	0.00095
2884.84634	0.00124
2882.91797	0.00146
2880.98959	0.00142
2879.06122	0.00108
2877.13285	0.00081
2875.20447	0.00080
2873.27610	0.00086
2871.34773	0.00086
2869.41935	0.00083
2867.49098	0.00082
2865.56261	0.00085
2863.63423	0.00084
2861.70586	0.00073
2859.77749	0.00055
2857.84911	0.00062
2855.92074	0.00071
2853.99237	0.00067
2852.06399	0.00057
2850.13562	0.00039
2848.20725	0.00046
2846.27887	0.00050
2844.35050	0.00031
2842.42213	0.00015
2840.49375	0.00022
2838.56538	0.00017
2836.63701	0.00021
2834.70863	0.00034
2832.78026	0.00040
2830.85189	0.00023
2828.92352	0.00020
2826.99514	0.00033
2825.06677	0.00019
2823.13840	0.00027
2821.21002	0.00024
2819.28165	0.00024
2817.35328	0.00030
2815.42490	0.00050
2813.49653	0.00052
2811.56816	0.00037
2809.63978	0.00022
2807.71141	0.00039
2805.78304	0.00055
2803.85466	0.00057
2801.92629	0.00050
2799.99792	0.00038
2798.06954	0.00026
2796.14117	0.00041
2794.21280	0.00051
2792.28442	0.00049
2790.35605	0.00048
2788.42768	0.00050
2786.49930	0.00058
2784.57093	0.00068
2782.64256	0.00057
2780.71418	0.00037
2778.78581	0.00042
2776.85744	0.00063
2774.92907	0.00075
2773.00069	0.00077
2771.07232	0.00080
2769.14395	0.00088
2767.21557	0.00099
2765.28720	0.00109
2763.35883	0.00111
2761.43045	0.00106
2759.50208	0.00104
2757.57371	0.00115
2755.64533	0.00135
2753.71696	0.00152
2751.78859	0.00159
2749.86021	0.00163
2747.93184	0.00177
2746.00347	0.00196
2744.07509	0.00217
2742.14672	0.00240
2740.21835	0.00263
2738.28997	0.00280
2736.36160	0.00286
2734.43323	0.00288
2732.50485	0.00302
2730.57648	0.00321
2728.64811	0.00343
2726.71973	0.00376
2724.79136	0.00408
2722.86299	0.00421
2720.93461	0.00420
2719.00624	0.00417
2717.07787	0.00415
2715.14950	0.00415
2713.22112	0.00427
2711.29275	0.00451
2709.36438	0.00470
2707.43600	0.00477
2705.50763	0.00486
2703.57926	0.00510
2701.65088	0.00531
2699.72251	0.00532
2697.79414	0.00532
2695.86576	0.00543
2693.93739	0.00546
2692.00902	0.00544
2690.08064	0.00558
2688.15227	0.00582
2686.22390	0.00600
2684.29552	0.00612
2682.36715	0.00628
2680.43878	0.00646
2678.51040	0.00655
2676.58203	0.00658
2674.65366	0.00661
2672.72528	0.00678
2670.79691	0.00721
2668.86854	0.00771
2666.94016	0.00801
2665.01179	0.00814
2663.08342	0.00823
2661.15505	0.00832
2659.22667	0.00854
2657.29830	0.00888
2655.36993	0.00924
2653.44155	0.00956
2651.51318	0.00992
2649.58481	0.01025
2647.65643	0.01047
2645.72806	0.01065
2643.79969	0.01090
2641.87131	0.01120
2639.94294	0.01149
2638.01457	0.01178
2636.08619	0.01221
2634.15782	0.01267
2632.22945	0.01302
2630.30107	0.01330
2628.37270	0.01366
2626.44433	0.01415
2624.51595	0.01466
2622.58758	0.01517
2620.65921	0.01576
2618.73083	0.01625
2616.80246	0.01659
2614.87409	0.01703
2612.94571	0.01762
2611.01734	0.01822
2609.08897	0.01879
2607.16059	0.01940
2605.23222	0.02008
2603.30385	0.02074
2601.37548	0.02139
2599.44710	0.02207
2597.51873	0.02269
2595.59036	0.02326
2593.66198	0.02387
2591.73361	0.02454
2589.80524	0.02523
2587.87686	0.02595
2585.94849	0.02666
2584.02012	0.02730
2582.09174	0.02796
2580.16337	0.02871
2578.23500	0.02941
2576.30662	0.03008
2574.37825	0.03084
2572.44988	0.03158
2570.52150	0.03221
2568.59313	0.03289
2566.66476	0.03367
2564.73638	0.03449
2562.80801	0.03534
2560.87964	0.03624
2558.95126	0.03712
2557.02289	0.03799
2555.09452	0.03889
2553.16614	0.03980
2551.23777	0.04063
2549.30940	0.04133
2547.38103	0.04199
2545.45265	0.04270
2543.52428	0.04342
2541.59591	0.04413
2539.66753	0.04485
2537.73916	0.04559
2535.81079	0.04638
2533.88241	0.04718
2531.95404	0.04797
2530.02567	0.04882
2528.09729	0.04974
2526.16892	0.05059
2524.24055	0.05143
2522.31217	0.05233
2520.38380	0.05324
2518.45543	0.05416
2516.52705	0.05508
2514.59868	0.05597
2512.67031	0.05685
2510.74193	0.05777
2508.81356	0.05875
2506.88519	0.05982
2504.95681	0.06089
2503.02844	0.06179
2501.10007	0.06259
2499.17169	0.06345
2497.24332	0.06444
2495.31495	0.06541
2493.38657	0.06625
2491.45820	0.06702
2489.52983	0.06786
2487.60146	0.06886
2485.67308	0.07001
2483.74471	0.07109
2481.81634	0.07207
2479.88796	0.07305
2477.95959	0.07405
2476.03122	0.07511
2474.10284	0.07623
2472.17447	0.07738
2470.24610	0.07861
2468.31772	0.07989
2466.38935	0.08122
2464.46098	0.08259
2462.53260	0.08401
2460.60423	0.08543
2458.67586	0.08692
2456.74748	0.08857
2454.81911	0.09031
2452.89074	0.09196
2450.96236	0.09349
2449.03399	0.09495
2447.10562	0.09633
2445.17724	0.09774
2443.24887	0.09926
2441.32050	0.10082
2439.39212	0.10236
2437.46375	0.10390
2435.53538	0.10548
2433.60700	0.10708
2431.67863	0.10873
2429.75026	0.11033
2427.82189	0.11186
2425.89351	0.11341
2423.96514	0.11506
2422.03677	0.11668
2420.10839	0.11825
2418.18002	0.11983
2416.25165	0.12148
2414.32327	0.12320
2412.39490	0.12485
2410.46653	0.12642
2408.53815	0.12811
2406.60978	0.12999
2404.68141	0.13193
2402.75303	0.13388
2400.82466	0.13578
2398.89629	0.13770
2396.96791	0.13974
2395.03954	0.14190
2393.11117	0.14401
2391.18279	0.14600
2389.25442	0.14788
2387.32605	0.14961
2385.39767	0.15126
2383.46930	0.15282
2381.54093	0.15417
2379.61255	0.15525
2377.68418	0.15613
2375.75581	0.15687
2373.82744	0.15749
2371.89906	0.15822
2369.97069	0.15920
2368.04232	0.16014
2366.11394	0.16090
2364.18557	0.16179
2362.25720	0.16309
2360.32882	0.16482
2358.40045	0.16698
2356.47208	0.16988
2354.54370	0.17344
2352.61533	0.17696
2350.68696	0.17975
2348.75858	0.18139
2346.83021	0.18194
2344.90184	0.18195
2342.97346	0.18248
2341.04509	0.18395
2339.11672	0.18590
2337.18834	0.18794
2335.25997	0.18965
2333.33160	0.19103
2331.40322	0.19256
2329.47485	0.19431
2327.54648	0.19622
2325.61810	0.19824
2323.68973	0.20023
2321.76136	0.20243
2319.83298	0.20503
2317.90461	0.20783
2315.97624	0.21052
2314.04787	0.21304
2312.11949	0.21553
2310.19112	0.21804
2308.26275	0.22055
2306.33437	0.22330
2304.40600	0.22629
2302.47763	0.22913
2300.54925	0.23174
2298.62088	0.23428
2296.69251	0.23680
2294.76413	0.23921
2292.83576	0.24158
2290.90739	0.24401
2288.97901	0.24644
2287.05064	0.24874
2285.12227	0.25091
2283.19389	0.25303
2281.26552	0.25513
2279.33715	0.25706
2277.40877	0.25873
2275.48040	0.26037
2273.55203	0.26210
2271.62365	0.26388
2269.69528	0.26573
2267.76691	0.26758
2265.83853	0.26925
2263.91016	0.27090
2261.98179	0.27266
2260.05342	0.27445
2258.12504	0.27629
2256.19667	0.27819
2254.26830	0.28013
2252.33992	0.28210
2250.41155	0.28399
2248.48318	0.28571
2246.55480	0.28740
2244.62643	0.28911
2242.69806	0.29080
2240.76968	0.29238
2238.84131	0.29378
2236.91294	0.29507
2234.98456	0.29633
2233.05619	0.29757
2231.12782	0.29878
2229.19944	0.29999
2227.27107	0.30133
2225.34270	0.30273
2223.41432	0.30396
2221.48595	0.30509
2219.55758	0.30629
2217.62920	0.30755
2215.70083	0.30883
2213.77246	0.31017
2211.84408	0.31157
2209.91571	0.31303
2207.98734	0.31445
2206.05896	0.31577
2204.13059	0.31698
2202.20222	0.31821
2200.27385	0.31952
2198.34547	0.32080
2196.41710	0.32197
2194.48873	0.32312
2192.56035	0.32425
2190.63198	0.32531
2188.70361	0.32635
2186.77523	0.32740
2184.84686	0.32842
2182.91849	0.32931
2180.99011	0.33006
2179.06174	0.33070
2177.13337	0.33126
2175.20499	0.33177
2173.27662	0.33223
2171.34825	0.33270
2169.41987	0.33321
2167.49150	0.33365
2165.56313	0.33394
2163.63475	0.33424
2161.70638	0.33468
2159.77801	0.33521
2157.84963	0.33574
2155.92126	0.33630
2153.99289	0.33698
2152.06451	0.33766
2150.13614	0.33828
2148.20777	0.33888
2146.27940	0.33953
2144.35102	0.34032
2142.42265	0.34123
2140.49428	0.34217
2138.56590	0.34311
2136.63753	0.34402
2134.70916	0.34490
2132.78078	0.34590
2130.85241	0.34710
2128.92404	0.34844
2126.99566	0.34983
2125.06729	0.35128
2123.13892	0.35280
2121.21054	0.35443
2119.28217	0.35616
2117.35380	0.35787
2115.42542	0.35944
2113.49705	0.36093
2111.56868	0.36248
2109.64030	0.36412
2107.71193	0.36577
2105.78356	0.36738
2103.85518	0.36890
2101.92681	0.37037
2099.99844	0.37179
2098.07006	0.37308
2096.14169	0.37426
2094.21332	0.37540
2092.28494	0.37641
2090.35657	0.37728
2088.42820	0.37825
2086.49983	0.37928
2084.57145	0.38014
2082.64308	0.38077
2080.71471	0.38124
2078.78633	0.38164
2076.85796	0.38201
2074.92959	0.38228
2073.00121	0.38249
2071.07284	0.38273
2069.14447	0.38284
2067.21609	0.38272
2065.28772	0.38265
2063.35935	0.38309
2061.43097	0.38389
2059.50260	0.38468
2057.57423	0.38544
2055.64585	0.38624
2053.71748	0.38717
2051.78911	0.38821
2049.86073	0.38927
2047.93236	0.39038
2046.00399	0.39155
2044.07561	0.39247
2042.14724	0.39322
2040.21887	0.39425
2038.29049	0.39552
2036.36212	0.39660
2034.43375	0.39741
2032.50538	0.39798
2030.57700	0.39840
2028.64863	0.39879
2026.72026	0.39907
2024.79188	0.39919
2022.86351	0.39916
2020.93514	0.39876
2019.00676	0.39790
2017.07839	0.39745
2015.15002	0.39814
2013.22164	0.39918
2011.29327	0.39974
2009.36490	0.40000
2007.43652	0.40039
2005.50815	0.40097
2003.57978	0.40155
2001.65140	0.40202
1999.72303	0.40255
1997.79466	0.40312
1995.86628	0.40315
1993.93791	0.40199
1992.00954	0.40105
1990.08116	0.40199
1988.15279	0.40385
1986.22442	0.40540
1984.29604	0.40649
1982.36767	0.40701
1980.43930	0.40723
1978.51092	0.40749
1976.58255	0.40783
1974.65418	0.40819
1972.72581	0.40849
1970.79743	0.40820
1968.86906	0.40695
1966.94069	0.40624
1965.01231	0.40746
1963.08394	0.40908
1961.15557	0.40975
1959.22719	0.40999
1957.29882	0.41010
1955.37045	0.41017
1953.44207	0.41055
1951.51370	0.41103
1949.58533	0.41099
1947.65695	0.41016
1945.72858	0.40823
1943.80021	0.40569
1941.87183	0.40536
1939.94346	0.40804
1938.01509	0.41028
1936.08671	0.41055
1934.15834	0.41004
1932.22997	0.40961
1930.30159	0.40940
1928.37322	0.40917
1926.44485	0.40803
1924.51647	0.40549
1922.58810	0.40352
1920.65973	0.40291
1918.73135	0.40217
1916.80298	0.40308
1914.87461	0.40595
1912.94624	0.40709
1911.01786	0.40576
1909.08949	0.40469
1907.16112	0.40545
1905.23274	0.40674
1903.30437	0.40731
1901.37600	0.40726
1899.44762	0.40657
1897.51925	0.40487
1895.59088	0.40301
1893.66250	0.40204
1891.73413	0.40021
1889.80576	0.39758
1887.87738	0.39740
1885.94901	0.39856
1884.02064	0.39851
1882.09226	0.39773
1880.16389	0.39664
1878.23552	0.39517
1876.30714	0.39359
1874.37877	0.39162
1872.45040	0.38737
1870.52202	0.37948
1868.59365	0.37272
1866.66528	0.37345
1864.73690	0.37755
1862.80853	0.37886
1860.88016	0.37746
1858.95179	0.37550
1857.02341	0.37391
1855.09504	0.37244
1853.16667	0.37077
1851.23829	0.36851
1849.30992	0.36493
1847.38155	0.35960
1845.45317	0.35344
1843.52480	0.35148
1841.59643	0.35519
1839.66805	0.35783
1837.73968	0.35705
1835.81131	0.35564
1833.88293	0.35353
1831.95456	0.34781
1830.02619	0.34098
1828.09781	0.33858
1826.16944	0.33822
1824.24107	0.33765
1822.31269	0.33806
1820.38432	0.33714
1818.45595	0.33357
1816.52757	0.32900
1814.59920	0.32362
1812.67083	0.31643
1810.74245	0.30890
1808.81408	0.30339
1806.88571	0.29847
1804.95733	0.29147
1803.02896	0.28162
1801.10059	0.27061
1799.17222	0.26145
1797.24384	0.25357
1795.31547	0.24379
1793.38710	0.23105
1791.45872	0.21960
1789.53035	0.21315
1787.60198	0.20709
1785.67360	0.19809
1783.74523	0.18797
1781.81686	0.17846
1779.88848	0.16986
1777.96011	0.16226
1776.03174	0.15409
1774.10336	0.14383
1772.17499	0.13308
1770.24662	0.12553
1768.31824	0.12008
1766.38987	0.11379
1764.46150	0.10596
1762.53312	0.09579
1760.60475	0.08469
1758.67638	0.07447
1756.74800	0.06369
1754.81963	0.05297
1752.89126	0.04275
1750.96288	0.03176
1749.03451	0.02168
1747.10614	0.01460
1745.17777	0.00952
1743.24939	0.00562
1741.32102	0.00287
1739.39265	0.00105
1737.46427	0.00043
1735.53590	0.00106
1733.60753	0.00157
1731.67915	0.00148
1729.75078	0.00131
1727.82241	0.00120
1725.89403	0.00116
1723.96566	0.00113
1722.03729	0.00114
1720.10891	0.00123
1718.18054	0.00145
1716.25217	0.00169
1714.32379	0.00151
1712.39542	0.00110
1710.46705	0.00086
1708.53867	0.00103
1706.61030	0.00137
1704.68193	0.00154
1702.75355	0.00159
1700.82518	0.00158
1698.89681	0.00156
1696.96843	0.00159
1695.04006	0.00156
1693.11169	0.00135
1691.18331	0.00115
1689.25494	0.00113
1687.32657	0.00135
1685.39820	0.00183
1683.46982	0.00203
1681.54145	0.00176
1679.61308	0.00149
1677.68470	0.00139
1675.75633	0.00137
1673.82796	0.00131
1671.89958	0.00116
1669.97121	0.00102
1668.04284	0.00100
1666.11446	0.00107
1664.18609	0.00114
1662.25772	0.00107
1660.32934	0.00089
1658.40097	0.00088
1656.47260	0.00104
1654.54422	0.00135
1652.61585	0.00147
1650.68748	0.00114
1648.75910	0.00089
1646.83073	0.00083
1644.90236	0.00081
1642.97398	0.00077
1641.04561	0.00081
1639.11724	0.00094
1637.18886	0.00113
1635.26049	0.00116
1633.33212	0.00094
1631.40375	0.00078
1629.47537	0.00074
1627.54700	0.00083
1625.61863	0.00095
1623.69025	0.00101
1621.76188	0.00092
1619.83351	0.00086
1617.90513	0.00094
1615.97676	0.00098
1614.04839	0.00092
1612.12001	0.00095
1610.19164	0.00111
1608.26327	0.00122
1606.33489	0.00115
1604.40652	0.00100
1602.47815	0.00092
1600.54977	0.00093
1598.62140	0.00093
1596.69303	0.00084
1594.76465	0.00075
1592.83628	0.00077
1590.90791	0.00083
1588.97953	0.00084
1587.05116	0.00086
1585.12279	0.00086
1583.19441	0.00078
1581.26604	0.00072
1579.33767	0.00077
1577.40929	0.00099
1575.48092	0.00119
1573.55255	0.00118
1571.62418	0.00116
1569.69580	0.00117
1567.76743	0.00103
1565.83906	0.00084
1563.91068	0.00083
1561.98231	0.00104
1560.05394	0.00136
1558.12556	0.00131
1556.19719	0.00098
1554.26882	0.00089
1552.34044	0.00090
1550.41207	0.00082
1548.48370	0.00079
1546.55532	0.00092
1544.62695	0.00114
1542.69858	0.00143
1540.77020	0.00156
1538.84183	0.00142
1536.91346	0.00127
1534.98508	0.00120
1533.05671	0.00109
1531.12834	0.00095
1529.19996	0.00090
1527.27159	0.00092
1525.34322	0.00094
1523.41484	0.00106
1521.48647	0.00126
1519.55810	0.00136
1517.62972	0.00128
1515.70135	0.00107
1513.77298	0.00078
1511.84461	0.00059
1509.91623	0.00059
1507.98786	0.00083
1506.05949	0.00107
1504.13111	0.00096
1502.20274	0.00077
1500.27437	0.00072
1498.34599	0.00079
1496.41762	0.00091
1494.48925	0.00096
1492.56087	0.00097
1490.63250	0.00096
1488.70413	0.00088
1486.77575	0.00079
1484.84738	0.00075
1482.91901	0.00078
1480.99063	0.00093
1479.06226	0.00105
1477.13389	0.00101
1475.20551	0.00093
1473.27714	0.00094
1471.34877	0.00085
1469.42039	0.00080
1467.49202	0.00091
1465.56365	0.00101
1463.63527	0.00101
1461.70690	0.00107
1459.77853	0.00126
1457.85016	0.00147
1455.92178	0.00134
1453.99341	0.00113
1452.06504	0.00116
1450.13666	0.00125
1448.20829	0.00121
1446.27992	0.00101
1444.35154	0.00086
1442.42317	0.00086
1440.49480	0.00099
1438.56642	0.00122
1436.63805	0.00125
1434.70968	0.00100
1432.78130	0.00092
1430.85293	0.00098
1428.92456	0.00089
1426.99618	0.00075
1425.06781	0.00078
1423.13944	0.00097
1421.21106	0.00120
1419.28269	0.00131
1417.35432	0.00124
1415.42594	0.00108
1413.49757	0.00105
1411.56920	0.00124
1409.64082	0.00137
1407.71245	0.00133
1405.78408	0.00129
1403.85570	0.00133
1401.92733	0.00134
1399.99896	0.00129
1398.07059	0.00122
1396.14221	0.00118
1394.21384	0.00126
1392.28547	0.00142
1390.35709	0.00148
1388.42872	0.00148
1386.50035	0.00155
1384.57197	0.00156
1382.64360	0.00149
1380.71523	0.00149
1378.78685	0.00151
1376.85848	0.00148
1374.93011	0.00133
1373.00173	0.00114
1371.07336	0.00110
1369.14499	0.00117
1367.21661	0.00129
1365.28824	0.00147
1363.35987	0.00166
1361.43149	0.00161
1359.50312	0.00139
1357.57475	0.00121
1355.64637	0.00108
1353.71800	0.00102
1351.78963	0.00098
1349.86125	0.00099
1347.93288	0.00112
1346.00451	0.00133
1344.07614	0.00147
1342.14776	0.00144
1340.21939	0.00134
1338.29102	0.00127
1336.36264	0.00126
1334.43427	0.00123
1332.50590	0.00113
1330.57752	0.00116
1328.64915	0.00131
1326.72078	0.00135
1324.79240	0.00134
1322.86403	0.00142
1320.93566	0.00156
1319.00728	0.00163
1317.07891	0.00157
1315.15054	0.00145
1313.22216	0.00140
1311.29379	0.00143
1309.36542	0.00143
1307.43704	0.00138
1305.50867	0.00133
1303.58030	0.00128
1301.65192	0.00126
1299.72355	0.00129
1297.79518	0.00135
1295.86680	0.00139
1293.93843	0.00139
1292.01006	0.00147
1290.08168	0.00161
1288.15331	0.00166
1286.22494	0.00170
1284.29657	0.00179
1282.36819	0.00178
1280.43982	0.00170
1278.51145	0.00170
1276.58307	0.00172
1274.65470	0.00176
1272.72633	0.00185
1270.79795	0.00187
1268.86958	0.00192
1266.94121	0.00205
1265.01283	0.00210
1263.08446	0.00205
1261.15609	0.00190
1259.22771	0.00165
1257.29934	0.00157
1255.37097	0.00186
1253.44259	0.00216
1251.51422	0.00228
1249.58585	0.00228
1247.65747	0.00230
1245.72910	0.00237
1243.80073	0.00239
1241.87235	0.00230
1239.94398	0.00223
1238.01561	0.00241
1236.08723	0.00273
1234.15886	0.00289
1232.23049	0.00286
1230.30212	0.00298
1228.37374	0.00329
1226.44537	0.00352
1224.51700	0.00362
1222.58862	0.00385
1220.66025	0.00426
1218.73188	0.00452
1216.80350	0.00457
1214.87513	0.00478
1212.94676	0.00511
1211.01838	0.00499
1209.09001	0.00440
1207.16164	0.00390
1205.23326	0.00384
1203.30489	0.00419
1201.37652	0.00489
1199.44814	0.00591
1197.51977	0.00707
1195.59140	0.00827
1193.66302	0.00935
1191.73465	0.01003
1189.80628	0.01042
1187.87790	0.01070
1185.94953	0.01056
1184.02116	0.00987
1182.09278	0.00894
1180.16441	0.00807
1178.23604	0.00725
1176.30766	0.00636
1174.37929	0.00544
1172.45092	0.00462
1170.52255	0.00390
1168.59417	0.00318
1166.66580	0.00254
1164.73743	0.00235
1162.80905	0.00270
1160.88068	0.00317
1158.95231	0.00344
1157.02393	0.00334
1155.09556	0.00303
1153.16719	0.00285
1151.23881	0.00286
1149.31044	0.00306
1147.38207	0.00365
1145.45369	0.00438
1143.52532	0.00490
1141.59695	0.00526
1139.66857	0.00529
1137.74020	0.00479
1135.81183	0.00421
1133.88345	0.00385
1131.95508	0.00345
1130.02671	0.00308
1128.09833	0.00309
1126.16996	0.00332
1124.24159	0.00358
1122.31321	0.00371
1120.38484	0.00357
1118.45647	0.00320
1116.52809	0.00289
1114.59972	0.00285
1112.67135	0.00290
1110.74298	0.00280
1108.81460	0.00279
1106.88623	0.00302
1104.95786	0.00319
1103.02948	0.00317
1101.10111	0.00345
1099.17274	0.00378
1097.24436	0.00372
1095.31599	0.00347
1093.38762	0.00324
1091.45924	0.00315
1089.53087	0.00312
1087.60250	0.00296
1085.67412	0.00286
1083.74575	0.00312
1081.81738	0.00352
1079.88900	0.00371
1077.96063	0.00351
1076.03226	0.00316
1074.10388	0.00296
1072.17551	0.00290
1070.24714	0.00287
1068.31876	0.00279
1066.39039	0.00262
1064.46202	0.00268
1062.53364	0.00296
1060.60527	0.00308
1058.67690	0.00299
1056.74853	0.00300
1054.82015	0.00309
1052.89178	0.00306
1050.96341	0.00303
1049.03503	0.00312
1047.10666	0.00315
1045.17829	0.00313
1043.24991	0.00323
1041.32154	0.00351
1039.39317	0.00374
1037.46479	0.00351
1035.53642	0.00304
1033.60805	0.00292
1031.67967	0.00291
1029.75130	0.00279
1027.82293	0.00280
1025.89455	0.00283
1023.96618	0.00282
1022.03781	0.00281
1020.10943	0.00289
1018.18106	0.00300
1016.25269	0.00294
1014.32431	0.00277
1012.39594	0.00273
1010.46757	0.00276
1008.53919	0.00265
1006.61082	0.00273
1004.68245	0.00353
1002.75407	0.00485
1000.82570	0.00629
998.89733	0.00758
996.96896	0.00877
995.04058	0.01007
993.11221	0.01154
991.18384	0.01305
989.25546	0.01450
987.32709	0.01578
985.39872	0.01680
983.47034	0.01747
981.54197	0.01764
979.61360	0.01740
977.68522	0.01712
975.75685	0.01723
973.82848	0.01846
971.90010	0.02143
969.97173	0.02577
968.04336	0.03054
966.11498	0.03488
964.18661	0.03749
962.25824	0.03687
960.32986	0.03251
958.40149	0.02573
956.47312	0.01956
954.54474	0.01680
952.61637	0.01795
950.68800	0.02177
948.75962	0.02693
946.83125	0.03251
944.90288	0.03778
942.97451	0.04223
941.04613	0.04583
939.11776	0.04887
937.18939	0.05150
935.26101	0.05355
933.33264	0.05487
931.40427	0.05553
929.47589	0.05558
927.54752	0.05485
925.61915	0.05329
923.69077	0.05129
921.76240	0.04953
919.83403	0.04859
917.90565	0.04866
915.97728	0.04938
914.04891	0.04988
912.12053	0.04931
910.19216	0.04734
908.26379	0.04434
906.33541	0.04062
904.40704	0.03621
902.47867	0.03189
900.55029	0.02855
898.62192	0.02611
896.69355	0.02428
894.76517	0.02309
892.83680	0.02250
890.90843	0.02219
888.98005	0.02211
887.05168	0.02225
885.12331	0.02202
883.19494	0.02126
881.26656	0.02060
879.33819	0.02021
877.40982	0.01970
875.48144	0.01916
873.55307	0.01915
871.62470	0.01966
869.69632	0.02013
867.76795	0.02044
865.83958	0.02049
863.91120	0.01981
861.98283	0.01882
860.05446	0.01832
858.12608	0.01810
856.19771	0.01765
854.26934	0.01696
852.34096	0.01625
850.41259	0.01545
848.48422	0.01448
846.55584	0.01382
844.62747	0.01370
842.69910	0.01378
840.77072	0.01377
838.84235	0.01343
836.91398	0.01290
834.98560	0.01243
833.05723	0.01198
831.12886	0.01153
829.20049	0.01117
827.27211	0.01083
825.34374	0.01044
823.41537	0.01002
821.48699	0.00978
819.55862	0.00971
817.63025	0.00966
815.70187	0.00943
813.77350	0.00903
811.84513	0.00887
809.91675	0.00877
807.98838	0.00814
806.06001	0.00713
804.13163	0.00630
802.20326	0.00577
800.27489	0.00544
798.34651	0.00511
796.41814	0.00476
794.48977	0.00479
792.56139	0.00549
790.63302	0.00606
788.70465	0.00605
786.77627	0.00584
784.84790	0.00548
782.91953	0.00515
780.99115	0.00519
779.06278	0.00520
777.13441	0.00483
775.20603	0.00446
773.27766	0.00457
771.34929	0.00495
769.42092	0.00520
767.49254	0.00547
765.56417	0.00567
763.63580	0.00552
761.70742	0.00506
759.77905	0.00463
757.85068	0.00438
755.92230	0.00437
753.99393	0.00467
752.06556	0.00510
750.13718	0.00543
748.20881	0.00555
746.28044	0.00545
744.35206	0.00520
742.42369	0.00510
740.49532	0.00523
738.56694	0.00518
736.63857	0.00517
734.71020	0.00535
732.78182	0.00545
730.85345	0.00560
728.92508	0.00583
726.99670	0.00581
725.06833	0.00558
723.13996	0.00567
721.21158	0.00636
719.28321	0.00695
717.35484	0.00663
715.42647	0.00601
713.49809	0.00579
711.56972	0.00570
709.64135	0.00577
707.71297	0.00601
705.78460	0.00602
703.85623	0.00569
701.92785	0.00539
699.99948	0.00571
698.07111	0.00653
696.14273	0.00697
694.21436	0.00704
692.28599	0.00718
690.35761	0.00789
688.42924	0.00871
686.50087	0.00874
684.57249	0.00845
682.64412	0.00843
680.71575	0.00854
678.78737	0.00898
676.85900	0.00960
674.93063	0.00976
673.00225	0.00979
671.07388	0.01049
669.14551	0.01191
667.21713	0.01193
665.28876	0.01071
663.36039	0.01005
661.43201	0.01001
659.50364	0.01023
657.57527	0.01049
655.64690	0.01064
653.71852	0.01093
651.79015	0.01182
649.86178	0.01279
647.93340	0.01241
646.00503	0.01120
644.07666	0.01090
642.14828	0.01175
640.21991	0.01268
638.29154	0.01304
636.36316	0.01348
634.43479	0.01378
632.50642	0.01322
630.57804	0.01291
628.64967	0.01404
626.72130	0.01566
624.79292	0.01679
622.86455	0.01747
620.93618	0.01780
619.00780	0.01835
617.07943	0.01939
615.15106	0.01997
613.22268	0.02034
611.29431	0.02205
609.36594	0.02538
607.43756	0.02767
605.50919	0.02633
603.58082	0.02409
601.65244	0.02531
599.72407	0.02922
