3997.51769	0.68633
3995.58931	0.68586
3993.66094	0.68559
3991.73257	0.68540
3989.80419	0.68548
3987.87582	0.68624
3985.94745	0.68715
3984.01907	0.68747
3982.09070	0.68729
3980.16233	0.68715
3978.23396	0.68712
3976.30558	0.68674
3974.37721	0.68615
3972.44884	0.68608
3970.52046	0.68676
3968.59209	0.68812
3966.66372	0.68970
3964.73534	0.69016
3962.80697	0.68906
3960.87860	0.68843
3958.95022	0.68931
3957.02185	0.69047
3955.09348	0.69126
3953.16510	0.69101
3951.23673	0.68874
3949.30836	0.68630
3947.37998	0.68702
3945.45161	0.68867
3943.52324	0.68800
3941.59486	0.68906
3939.66649	0.69359
3937.73812	0.69677
3935.80974	0.69577
3933.88137	0.69086
3931.95300	0.68631
3930.02462	0.68766
3928.09625	0.69162
3926.16788	0.69154
3924.23950	0.68982
3922.31113	0.69102
3920.38276	0.69137
3918.45439	0.68925
3916.52601	0.69083
3914.59764	0.69809
3912.66927	0.70489
3910.74089	0.70754
3908.81252	0.70559
3906.88415	0.69686
3904.95577	0.68295
3903.02740	0.67344
3901.09903	0.67393
3899.17065	0.68226
3897.24228	0.69474
3895.31391	0.70239
3893.38553	0.69968
3891.45716	0.69523
3889.52879	0.69854
3887.60041	0.70004
3885.67204	0.69488
3883.74367	0.69179
3881.81529	0.69086
3879.88692	0.69369
3877.95855	0.70302
3876.03017	0.70542
3874.10180	0.69775
3872.17343	0.68967
3870.24505	0.68610
3868.31668	0.69008
3866.38831	0.69417
3864.45994	0.69249
3862.53156	0.69556
3860.60319	0.70511
3858.67482	0.70870
3856.74644	0.70103
3854.81807	0.68384
3852.88970	0.67264
3850.96132	0.68734
3849.03295	0.70736
3847.10458	0.71666
3845.17620	0.71363
3843.24783	0.70320
3841.31946	0.69166
3839.39108	0.68307
3837.46271	0.68299
3835.53434	0.69138
3833.60596	0.69981
3831.67759	0.70627
3829.74922	0.71121
3827.82084	0.71218
3825.89247	0.71044
3823.96410	0.70519
3822.03572	0.69230
3820.10735	0.68507
3818.17898	0.69150
3816.25060	0.69911
3814.32223	0.71024
3812.39386	0.72247
3810.46548	0.72520
3808.53711	0.71693
3806.60874	0.70713
3804.68037	0.70234
3802.75199	0.69496
3800.82362	0.69069
3798.89525	0.69752
3796.96687	0.70551
3795.03850	0.71473
3793.11013	0.72500
3791.18175	0.73000
3789.25338	0.72968
3787.32501	0.72586
3785.39663	0.72082
3783.46826	0.71876
3781.53989	0.71641
3779.61151	0.71217
3777.68314	0.71476
3775.75477	0.72231
3773.82639	0.72395
3771.89802	0.71653
3769.96965	0.70674
3768.04127	0.70337
3766.11290	0.70513
3764.18453	0.70886
3762.25615	0.70945
3760.32778	0.70184
3758.39941	0.69435
3756.47103	0.69386
3754.54266	0.69004
3752.61429	0.67523
3750.68591	0.66038
3748.75754	0.66199
3746.82917	0.66676
3744.90080	0.66594
3742.97242	0.67110
3741.04405	0.67981
3739.11568	0.67873
3737.18730	0.66477
3735.25893	0.64976
3733.33056	0.65332
3731.40218	0.67148
3729.47381	0.68500
3727.54544	0.68574
3725.61706	0.67943
3723.68869	0.67541
3721.76032	0.67615
3719.83194	0.68009
3717.90357	0.68404
3715.97520	0.68277
3714.04682	0.67165
3712.11845	0.65385
3710.19008	0.64744
3708.26170	0.65841
3706.33333	0.66933
3704.40496	0.66919
3702.47658	0.66119
3700.54821	0.65701
3698.61984	0.65852
3696.69146	0.65729
3694.76309	0.64976
3692.83472	0.63472
3690.90635	0.61387
3688.97797	0.60034
3687.04960	0.60359
3685.12123	0.60980
3683.19285	0.60764
3681.26448	0.59604
3679.33611	0.57771
3677.40773	0.55399
3675.47936	0.53044
3673.55099	0.52110
3671.62261	0.51551
3669.69424	0.50392
3667.76587	0.49859
3665.83749	0.49758
3663.90912	0.49013
3661.98075	0.47652
3660.05237	0.45989
3658.12400	0.44044
3656.19563	0.41963
3654.26725	0.40188
3652.33888	0.38261
3650.41051	0.35506
3648.48213	0.33027
3646.55376	0.32218
3644.62539	0.31984
3642.69701	0.31254
3640.76864	0.29997
3638.84027	0.28570
3636.91189	0.27122
3634.98352	0.25613
3633.05515	0.24082
3631.12678	0.22512
3629.19840	0.20739
3627.27003	0.19408
3625.34166	0.18774
3623.41328	0.18031
3621.48491	0.16919
3619.55654	0.15606
3617.62816	0.14478
3615.69979	0.13627
3613.77142	0.12812
3611.84304	0.12042
3609.91467	0.11329
3607.98630	0.10600
3606.05792	0.09961
3604.12955	0.09422
3602.20118	0.08817
3600.27280	0.08178
3598.34443	0.07608
3596.41606	0.07059
3594.48768	0.06521
3592.55931	0.06055
3590.63094	0.05635
3588.70256	0.05157
3586.77419	0.04713
3584.84582	0.04430
3582.91744	0.04184
3580.98907	0.03897
3579.06070	0.03602
3577.13233	0.03326
3575.20395	0.03061
3573.27558	0.02817
3571.34721	0.02587
3569.41883	0.02350
3567.49046	0.02106
3565.56209	0.01909
3563.63371	0.01789
3561.70534	0.01669
3559.77697	0.01521
3557.84859	0.01379
3555.92022	0.01260
3553.99185	0.01157
3552.06347	0.01056
3550.13510	0.00963
3548.20673	0.00872
3546.27835	0.00780
3544.34998	0.00699
3542.42161	0.00638
3540.49323	0.00589
3538.56486	0.00531
3536.63649	0.00479
3534.70811	0.00429
3532.77974	0.00369
3530.85137	0.00304
3528.92299	0.00260
3526.99462	0.00242
3525.06625	0.00220
3523.13787	0.00207
3521.20950	0.00187
3519.28113	0.00150
3517.35276	0.00120
3515.42438	0.00113
3513.49601	0.00096
3511.56764	0.00062
3509.63926	0.00048
3507.71089	0.00054
3505.78252	0.00045
3503.85414	0.00028
3501.92577	0.00034
3499.99740	0.00057
3498.06902	0.00076
3496.14065	0.00086
3494.21228	0.00090
3492.28390	0.00089
3490.35553	0.00083
3488.42716	0.00061
3486.49878	0.00041
3484.57041	0.00060
3482.64204	0.00086
3480.71366	0.00077
3478.78529	0.00058
3476.85692	0.00051
3474.92854	0.00045
3473.00017	0.00051
3471.07180	0.00039
3469.14342	0.00045
3467.21505	0.00067
3465.28668	0.00089
3463.35831	0.00080
3461.42993	0.00052
3459.50156	0.00051
3457.57319	0.00052
3455.64481	0.00060
3453.71644	0.00065
3451.78807	0.00064
3449.85969	0.00057
3447.93132	0.00054
3446.00295	0.00058
3444.07457	0.00071
3442.14620	0.00080
3440.21783	0.00084
3438.28945	0.00068
3436.36108	0.00042
3434.43271	0.00036
3432.50433	0.00051
3430.57596	0.00064
3428.64759	0.00068
3426.71921	0.00061
3424.79084	0.00052
3422.86247	0.00042
3420.93409	0.00054
3419.00572	0.00081
3417.07735	0.00092
3415.14897	0.00095
3413.22060	0.00092
3411.29223	0.00088
3409.36385	0.00096
3407.43548	0.00089
3405.50711	0.00064
3403.57874	0.00048
3401.65036	0.00042
3399.72199	0.00053
3397.79362	0.00060
3395.86524	0.00055
3393.93687	0.00052
3392.00850	0.00046
3390.08012	0.00042
3388.15175	0.00049
3386.22338	0.00046
3384.29500	0.00032
3382.36663	0.00025
3380.43826	0.00040
3378.50988	0.00055
3376.58151	0.00072
3374.65314	0.00079
3372.72476	0.00069
3370.79639	0.00061
3368.86802	0.00074
3366.93964	0.00091
3365.01127	0.00096
3363.08290	0.00097
3361.15452	0.00093
3359.22615	0.00087
3357.29778	0.00090
3355.36940	0.00092
3353.44103	0.00085
3351.51266	0.00077
3349.58428	0.00085
3347.65591	0.00093
3345.72754	0.00082
3343.79917	0.00065
3341.87079	0.00053
3339.94242	0.00043
3338.01405	0.00036
3336.08567	0.00034
3334.15730	0.00039
3332.22893	0.00049
3330.30055	0.00065
3328.37218	0.00067
3326.44381	0.00068
3324.51543	0.00068
3322.58706	0.00054
3320.65869	0.00040
3318.73031	0.00027
3316.80194	0.00037
3314.87357	0.00066
3312.94519	0.00085
3311.01682	0.00078
3309.08845	0.00067
3307.16007	0.00071
3305.23170	0.00065
3303.30333	0.00044
3301.37495	0.00050
3299.44658	0.00064
3297.51821	0.00056
3295.58983	0.00056
3293.66146	0.00066
3291.73309	0.00055
3289.80472	0.00040
3287.87634	0.00055
3285.94797	0.00075
3284.01960	0.00078
3282.09122	0.00064
3280.16285	0.00051
3278.23448	0.00058
3276.30610	0.00074
3274.37773	0.00078
3272.44936	0.00068
3270.52098	0.00058
3268.59261	0.00065
3266.66424	0.00075
3264.73586	0.00067
3262.80749	0.00058
3260.87912	0.00052
3258.95074	0.00062
3257.02237	0.00071
3255.09400	0.00054
3253.16562	0.00045
3251.23725	0.00068
3249.30888	0.00085
3247.38050	0.00072
3245.45213	0.00060
3243.52376	0.00064
3241.59538	0.00079
3239.66701	0.00089
3237.73864	0.00085
3235.81026	0.00066
3233.88189	0.00052
3231.95352	0.00040
3230.02515	0.00045
3228.09677	0.00074
3226.16840	0.00092
3224.24003	0.00074
3222.31165	0.00050
3220.38328	0.00048
3218.45491	0.00070
3216.52653	0.00096
3214.59816	0.00102
3212.66979	0.00091
3210.74141	0.00078
3208.81304	0.00083
3206.88467	0.00088
3204.95629	0.00079
3203.02792	0.00063
3201.09955	0.00057
3199.17117	0.00049
3197.24280	0.00046
3195.31443	0.00061
3193.38605	0.00077
3191.45768	0.00081
3189.52931	0.00071
3187.60093	0.00043
3185.67256	0.00038
3183.74419	0.00048
3181.81581	0.00057
3179.88744	0.00062
3177.95907	0.00064
3176.03070	0.00066
3174.10232	0.00066
3172.17395	0.00067
3170.24558	0.00068
3168.31720	0.00065
3166.38883	0.00063
3164.46046	0.00062
3162.53208	0.00075
3160.60371	0.00088
3158.67534	0.00094
3156.74696	0.00095
3154.81859	0.00091
3152.89022	0.00091
3150.96184	0.00095
3149.03347	0.00090
3147.10510	0.00077
3145.17672	0.00069
3143.24835	0.00074
3141.31998	0.00086
3139.39160	0.00101
3137.46323	0.00107
3135.53486	0.00092
3133.60648	0.00072
3131.67811	0.00059
3129.74974	0.00055
3127.82136	0.00053
3125.89299	0.00040
3123.96462	0.00034
3122.03624	0.00037
3120.10787	0.00055
3118.17950	0.00073
3116.25113	0.00074
3114.32275	0.00060
3112.39438	0.00047
3110.46601	0.00048
3108.53763	0.00053
3106.60926	0.00056
3104.68089	0.00051
3102.75251	0.00052
3100.82414	0.00063
3098.89577	0.00070
3096.96739	0.00062
3095.03902	0.00052
3093.11065	0.00046
3091.18227	0.00046
3089.25390	0.00061
3087.32553	0.00063
3085.39715	0.00039
3083.46878	0.00019
3081.54041	0.00028
3079.61203	0.00042
3077.68366	0.00054
3075.75529	0.00069
3073.82691	0.00066
3071.89854	0.00045
3069.97017	0.00043
3068.04179	0.00074
3066.11342	0.00090
3064.18505	0.00094
3062.25668	0.00090
3060.32830	0.00081
3058.39993	0.00072
3056.47156	0.00077
3054.54318	0.00084
3052.61481	0.00074
3050.68644	0.00068
3048.75806	0.00085
3046.82969	0.00090
3044.90132	0.00093
3042.97294	0.00094
3041.04457	0.00087
3039.11620	0.00077
3037.18782	0.00074
3035.25945	0.00079
3033.33108	0.00079
3031.40270	0.00072
3029.47433	0.00048
3027.54596	0.00047
3025.61758	0.00059
3023.68921	0.00052
3021.76084	0.00045
3019.83246	0.00054
3017.90409	0.00067
3015.97572	0.00069
3014.04734	0.00076
3012.11897	0.00081
3010.19060	0.00079
3008.26222	0.00081
3006.33385	0.00071
3004.40548	0.00059
3002.47711	0.00058
3000.54873	0.00055
2998.62036	0.00043
2996.69199	0.00044
2994.76361	0.00065
2992.83524	0.00094
2990.90687	0.00108
2988.97849	0.00091
2987.05012	0.00066
2985.12175	0.00066
2983.19337	0.00073
2981.26500	0.00063
2979.33663	0.00060
2977.40825	0.00078
2975.47988	0.00090
2973.55151	0.00099
2971.62313	0.00101
2969.69476	0.00118
2967.76639	0.00142
2965.83801	0.00135
2963.90964	0.00118
2961.98127	0.00101
2960.05289	0.00090
2958.12452	0.00090
2956.19615	0.00086
2954.26777	0.00061
2952.33940	0.00062
2950.41103	0.00094
2948.48266	0.00107
2946.55428	0.00108
2944.62591	0.00106
2942.69754	0.00103
2940.76916	0.00101
2938.84079	0.00105
2936.91242	0.00110
2934.98404	0.00105
2933.05567	0.00098
2931.12730	0.00101
2929.19892	0.00111
2927.27055	0.00119
2925.34218	0.00112
2923.41380	0.00098
2921.48543	0.00090
2919.55706	0.00093
2917.62868	0.00108
2915.70031	0.00114
2913.77194	0.00091
2911.84356	0.00072
2909.91519	0.00058
2907.98682	0.00063
2906.05844	0.00078
2904.13007	0.00083
2902.20170	0.00080
2900.27332	0.00069
2898.34495	0.00066
2896.41658	0.00081
2894.48820	0.00083
2892.55983	0.00076
2890.63146	0.00070
2888.70309	0.00056
2886.77471	0.00038
2884.84634	0.00037
2882.91797	0.00051
2880.98959	0.00066
2879.06122	0.00070
2877.13285	0.00071
2875.20447	0.00086
2873.27610	0.00106
2871.34773	0.00109
2869.41935	0.00091
2867.49098	0.00069
2865.56261	0.00053
2863.63423	0.00055
2861.70586	0.00057
2859.77749	0.00053
2857.84911	0.00051
2855.92074	0.00060
2853.99237	0.00060
2852.06399	0.00045
2850.13562	0.00038
2848.20725	0.00040
2846.27887	0.00043
2844.35050	0.00040
2842.42213	0.00024
2840.49375	0.00024
2838.56538	0.00025
2836.63701	0.00012
2834.70863	0.00038
2832.78026	0.00042
2830.85189	0.00043
2828.92352	0.00043
2826.99514	0.00038
2825.06677	0.00031
2823.13840	0.00029
2821.21002	0.00039
2819.28165	0.00049
2817.35328	0.00038
2815.42490	0.00022
2813.49653	0.00026
2811.56816	0.00033
2809.63978	0.00031
2807.71141	0.00027
2805.78304	0.00030
2803.85466	0.00037
2801.92629	0.00029
2799.99792	0.00026
2798.06954	0.00031
2796.14117	0.00039
2794.21280	0.00034
2792.28442	0.00050
2790.35605	0.00051
2788.42768	0.00043
2786.49930	0.00041
2784.57093	0.00040
2782.64256	0.00033
2780.71418	0.00035
2778.78581	0.00036
2776.85744	0.00046
2774.92907	0.00061
2773.00069	0.00079
2771.07232	0.00085
2769.14395	0.00087
2767.21557	0.00081
2765.28720	0.00077
2763.35883	0.00070
2761.43045	0.00065
2759.50208	0.00079
2757.57371	0.00089
2755.64533	0.00097
2753.71696	0.00095
2751.78859	0.00089
2749.86021	0.00092
2747.93184	0.00099
2746.00347	0.00114
2744.07509	0.00134
2742.14672	0.00152
2740.21835	0.00168
2738.28997	0.00176
2736.36160	0.00173
2734.43323	0.00174
2732.50485	0.00183
2730.57648	0.00205
2728.64811	0.00237
2726.71973	0.00258
2724.79136	0.00264
2722.86299	0.00268
2720.93461	0.00273
2719.00624	0.00280
2717.07787	0.00287
2715.14950	0.00295
2713.22112	0.00304
2711.29275	0.00304
2709.36438	0.00300
2707.43600	0.00302
2705.50763	0.00308
2703.57926	0.00315
2701.65088	0.00329
2699.72251	0.00350
2697.79414	0.00366
2695.86576	0.00368
2693.93739	0.00363
2692.00902	0.00366
2690.08064	0.00384
2688.15227	0.00407
2686.22390	0.00420
2684.29552	0.00426
2682.36715	0.00441
2680.43878	0.00465
2678.51040	0.00482
2676.58203	0.00489
2674.65366	0.00491
2672.72528	0.00500
2670.79691	0.00525
2668.86854	0.00554
2666.94016	0.00568
2665.01179	0.00573
2663.08342	0.00592
2661.15505	0.00628
2659.22667	0.00655
2657.29830	0.00668
2655.36993	0.00671
2653.44155	0.00666
2651.51318	0.00672
2649.58481	0.00698
2647.65643	0.00726
2645.72806	0.00745
2643.79969	0.00763
2641.87131	0.00782
2639.94294	0.00811
2638.01457	0.00853
2636.08619	0.00893
2634.15782	0.00919
2632.22945	0.00936
2630.30107	0.00959
2628.37270	0.00993
2626.44433	0.01027
2624.51595	0.01058
2622.58758	0.01090
2620.65921	0.01119
2618.73083	0.01148
2616.80246	0.01177
2614.87409	0.01210
2612.94571	0.01253
2611.01734	0.01302
2609.08897	0.01354
2607.16059	0.01405
2605.23222	0.01447
2603.30385	0.01485
2601.37548	0.01530
2599.44710	0.01584
2597.51873	0.01637
2595.59036	0.01683
2593.66198	0.01724
2591.73361	0.01767
2589.80524	0.01817
2587.87686	0.01876
2585.94849	0.01937
2584.02012	0.01994
2582.09174	0.02045
2580.16337	0.02089
2578.23500	0.02139
2576.30662	0.02203
2574.37825	0.02263
2572.44988	0.02311
2570.52150	0.02362
2568.59313	0.02418
2566.66476	0.02477
2564.73638	0.02539
2562.80801	0.02605
2560.87964	0.02663
2558.95126	0.02715
2557.02289	0.02781
2555.09452	0.02861
2553.16614	0.02926
2551.23777	0.02974
2549.30940	0.03031
2547.38103	0.03098
2545.45265	0.03164
2543.52428	0.03226
2541.59591	0.03280
2539.66753	0.03329
2537.73916	0.03386
2535.81079	0.03448
2533.88241	0.03499
2531.95404	0.03544
2530.02567	0.03603
2528.09729	0.03676
2526.16892	0.03751
2524.24055	0.03823
2522.31217	0.03892
2520.38380	0.03968
2518.45543	0.04053
2516.52705	0.04132
2514.59868	0.04196
2512.67031	0.04261
2510.74193	0.04333
2508.81356	0.04403
2506.88519	0.04471
2504.95681	0.04537
2503.02844	0.04601
2501.10007	0.04670
2499.17169	0.04750
2497.24332	0.04831
2495.31495	0.04906
2493.38657	0.04980
2491.45820	0.05052
2489.52983	0.05121
2487.60146	0.05189
2485.67308	0.05266
2483.74471	0.05352
2481.81634	0.05431
2479.88796	0.05499
2477.95959	0.05569
2476.03122	0.05653
2474.10284	0.05750
2472.17447	0.05851
2470.24610	0.05951
2468.31772	0.06052
2466.38935	0.06154
2464.46098	0.06252
2462.53260	0.06355
2460.60423	0.06472
2458.67586	0.06599
2456.74748	0.06721
2454.81911	0.06838
2452.89074	0.06955
2450.96236	0.07070
2449.03399	0.07180
2447.10562	0.07294
2445.17724	0.07419
2443.24887	0.07551
2441.32050	0.07681
2439.39212	0.07814
2437.46375	0.07946
2435.53538	0.08069
2433.60700	0.08185
2431.67863	0.08301
2429.75026	0.08419
2427.82189	0.08537
2425.89351	0.08654
2423.96514	0.08772
2422.03677	0.08891
2420.10839	0.09015
2418.18002	0.09150
2416.25165	0.09282
2414.32327	0.09404
2412.39490	0.09534
2410.46653	0.09681
2408.53815	0.09828
2406.60978	0.09967
2404.68141	0.10116
2402.75303	0.10278
2400.82466	0.10433
2398.89629	0.10578
2396.96791	0.10735
2395.03954	0.10912
2393.11117	0.11082
2391.18279	0.11233
2389.25442	0.11376
2387.32605	0.11519
2385.39767	0.11654
2383.46930	0.11774
2381.54093	0.11882
2379.61255	0.11985
2377.68418	0.12076
2375.75581	0.12152
2373.82744	0.12227
2371.89906	0.12339
2369.97069	0.12487
2368.04232	0.12606
2366.11394	0.12654
2364.18557	0.12675
2362.25720	0.12756
2360.32882	0.12909
2358.40045	0.13084
2356.47208	0.13264
2354.54370	0.13486
2352.61533	0.13758
2350.68696	0.13998
2348.75858	0.14152
2346.83021	0.14235
2344.90184	0.14294
2342.97346	0.14384
2341.04509	0.14490
2339.11672	0.14582
2337.18834	0.14691
2335.25997	0.14831
2333.33160	0.14961
2331.40322	0.15071
2329.47485	0.15210
2327.54648	0.15391
2325.61810	0.15566
2323.68973	0.15728
2321.76136	0.15907
2319.83298	0.16107
2317.90461	0.16304
2315.97624	0.16493
2314.04787	0.16685
2312.11949	0.16880
2310.19112	0.17081
2308.26275	0.17291
2306.33437	0.17504
2304.40600	0.17717
2302.47763	0.17928
2300.54925	0.18130
2298.62088	0.18322
2296.69251	0.18507
2294.76413	0.18693
2292.83576	0.18887
2290.90739	0.19074
2288.97901	0.19246
2287.05064	0.19423
2285.12227	0.19614
2283.19389	0.19793
2281.26552	0.19954
2279.33715	0.20110
2277.40877	0.20264
2275.48040	0.20414
2273.55203	0.20559
2271.62365	0.20698
2269.69528	0.20835
2267.76691	0.20974
2265.83853	0.21118
2263.91016	0.21271
2261.98179	0.21431
2260.05342	0.21587
2258.12504	0.21735
2256.19667	0.21876
2254.26830	0.22011
2252.33992	0.22154
2250.41155	0.22305
2248.48318	0.22454
2246.55480	0.22593
2244.62643	0.22725
2242.69806	0.22852
2240.76968	0.22975
2238.84131	0.23098
2236.91294	0.23219
2234.98456	0.23331
2233.05619	0.23433
2231.12782	0.23531
2229.19944	0.23629
2227.27107	0.23732
2225.34270	0.23840
2223.41432	0.23950
2221.48595	0.24062
2219.55758	0.24176
2217.62920	0.24290
2215.70083	0.24411
2213.77246	0.24535
2211.84408	0.24652
2209.91571	0.24765
2207.98734	0.24884
2206.05896	0.25003
2204.13059	0.25115
2202.20222	0.25230
2200.27385	0.25352
2198.34547	0.25466
2196.41710	0.25562
2194.48873	0.25659
2192.56035	0.25768
2190.63198	0.25869
2188.70361	0.25954
2186.77523	0.26033
2184.84686	0.26112
2182.91849	0.26194
2180.99011	0.26273
2179.06174	0.26341
2177.13337	0.26403
2175.20499	0.26455
2173.27662	0.26495
2171.34825	0.26538
2169.41987	0.26581
2167.49150	0.26613
2165.56313	0.26641
2163.63475	0.26671
2161.70638	0.26714
2159.77801	0.26768
2157.84963	0.26823
2155.92126	0.26871
2153.99289	0.26922
2152.06451	0.26979
2150.13614	0.27038
2148.20777	0.27091
2146.27940	0.27140
2144.35102	0.27194
2142.42265	0.27260
2140.49428	0.27332
2138.56590	0.27402
2136.63753	0.27468
2134.70916	0.27542
2132.78078	0.27634
2130.85241	0.27733
2128.92404	0.27829
2126.99566	0.27928
2125.06729	0.28040
2123.13892	0.28159
2121.21054	0.28281
2119.28217	0.28402
2117.35380	0.28514
2115.42542	0.28616
2113.49705	0.28721
2111.56868	0.28832
2109.64030	0.28949
2107.71193	0.29076
2105.78356	0.29203
2103.85518	0.29319
2101.92681	0.29422
2099.99844	0.29515
2098.07006	0.29598
2096.14169	0.29682
2094.21332	0.29773
2092.28494	0.29860
2090.35657	0.29937
2088.42820	0.30019
2086.49983	0.30107
2084.57145	0.30176
2082.64308	0.30223
2080.71471	0.30262
2078.78633	0.30294
2076.85796	0.30316
2074.92959	0.30335
2073.00121	0.30358
2071.07284	0.30383
2069.14447	0.30402
2067.21609	0.30397
2065.28772	0.30386
2063.35935	0.30413
2061.43097	0.30472
2059.50260	0.30529
2057.57423	0.30585
2055.64585	0.30648
2053.71748	0.30718
2051.78911	0.30794
2049.86073	0.30872
2047.93236	0.30948
2046.00399	0.31020
2044.07561	0.31087
2042.14724	0.31159
2040.21887	0.31257
2038.29049	0.31369
2036.36212	0.31457
2034.43375	0.31516
2032.50538	0.31562
2030.57700	0.31603
2028.64863	0.31635
2026.72026	0.31656
2024.79188	0.31669
2022.86351	0.31672
2020.93514	0.31644
2019.00676	0.31571
2017.07839	0.31519
2015.15002	0.31563
2013.22164	0.31648
2011.29327	0.31697
2009.36490	0.31716
2007.43652	0.31739
2005.50815	0.31779
2003.57978	0.31826
2001.65140	0.31863
1999.72303	0.31897
1997.79466	0.31939
1995.86628	0.31947
1993.93791	0.31861
1992.00954	0.31783
1990.08116	0.31854
1988.15279	0.32007
1986.22442	0.32140
1984.29604	0.32230
1982.36767	0.32270
1980.43930	0.32292
1978.51092	0.32322
1976.58255	0.32356
1974.65418	0.32389
1972.72581	0.32414
1970.79743	0.32399
1968.86906	0.32317
1966.94069	0.32271
1965.01231	0.32366
1963.08394	0.32500
1961.15557	0.32566
1959.22719	0.32591
1957.29882	0.32597
1955.37045	0.32600
1953.44207	0.32626
1951.51370	0.32661
1949.58533	0.32668
1947.65695	0.32614
1945.72858	0.32461
1943.80021	0.32246
1941.87183	0.32200
1939.94346	0.32394
1938.01509	0.32563
1936.08671	0.32586
1934.15834	0.32553
1932.22997	0.32531
1930.30159	0.32531
1928.37322	0.32517
1926.44485	0.32424
1924.51647	0.32231
1922.58810	0.32093
1920.65973	0.32068
1918.73135	0.32033
1916.80298	0.32117
1914.87461	0.32349
1912.94624	0.32451
1911.01786	0.32370
1909.08949	0.32309
1907.16112	0.32382
1905.23274	0.32491
1903.30437	0.32538
1901.37600	0.32539
1899.44762	0.32504
1897.51925	0.32390
1895.59088	0.32245
1893.66250	0.32158
1891.73413	0.32007
1889.80576	0.31796
1887.87738	0.31779
1885.94901	0.31876
1884.02064	0.31874
1882.09226	0.31808
1880.16389	0.31727
1878.23552	0.31624
1876.30714	0.31511
1874.37877	0.31363
1872.45040	0.31038
1870.52202	0.30432
1868.59365	0.29916
1866.66528	0.29985
1864.73690	0.30323
1862.80853	0.30449
1860.88016	0.30356
1858.95179	0.30212
1857.02341	0.30099
1855.09504	0.30006
1853.16667	0.29906
1851.23829	0.29756
1849.30992	0.29489
1847.38155	0.29076
1845.45317	0.28599
1843.52480	0.28450
1841.59643	0.28749
1839.66805	0.28968
1837.73968	0.28915
1835.81131	0.28811
1833.88293	0.28658
1831.95456	0.28233
1830.02619	0.27713
1828.09781	0.27516
1826.16944	0.27473
1824.24107	0.27421
1822.31269	0.27453
1820.38432	0.27388
1818.45595	0.27115
1816.52757	0.26760
1814.59920	0.26340
1812.67083	0.25770
1810.74245	0.25156
1808.81408	0.24702
1806.88571	0.24316
1804.95733	0.23762
1803.02896	0.22962
1801.10059	0.22060
1799.17222	0.21310
1797.24384	0.20667
1795.31547	0.19862
1793.38710	0.18798
1791.45872	0.17827
1789.53035	0.17274
1787.60198	0.16764
1785.67360	0.16022
1783.74523	0.15194
1781.81686	0.14409
1779.88848	0.13688
1777.96011	0.13060
1776.03174	0.12409
1774.10336	0.11596
1772.17499	0.10729
1770.24662	0.10115
1768.31824	0.09674
1766.38987	0.09166
1764.46150	0.08533
1762.53312	0.07719
1760.60475	0.06838
1758.67638	0.06033
1756.74800	0.05185
1754.81963	0.04331
1752.89126	0.03511
1750.96288	0.02633
1749.03451	0.01814
1747.10614	0.01219
1745.17777	0.00790
1743.24939	0.00453
1741.32102	0.00200
1739.39265	0.00050
1737.46427	0.00026
1735.53590	0.00050
1733.60753	0.00074
1731.67915	0.00074
1729.75078	0.00076
1727.82241	0.00075
1725.89403	0.00070
1723.96566	0.00058
1722.03729	0.00056
1720.10891	0.00081
1718.18054	0.00122
1716.25217	0.00136
1714.32379	0.00107
1712.39542	0.00080
1710.46705	0.00071
1708.53867	0.00083
1706.61030	0.00093
1704.68193	0.00096
1702.75355	0.00103
1700.82518	0.00115
1698.89681	0.00103
1696.96843	0.00071
1695.04006	0.00060
1693.11169	0.00067
1691.18331	0.00076
1689.25494	0.00084
1687.32657	0.00094
1685.39820	0.00106
1683.46982	0.00091
1681.54145	0.00067
1679.61308	0.00061
1677.68470	0.00062
1675.75633	0.00071
1673.82796	0.00085
1671.89958	0.00099
1669.97121	0.00099
1668.04284	0.00076
1666.11446	0.00059
1664.18609	0.00058
1662.25772	0.00064
1660.32934	0.00070
1658.40097	0.00066
1656.47260	0.00064
1654.54422	0.00081
1652.61585	0.00097
1650.68748	0.00087
1648.75910	0.00085
1646.83073	0.00094
1644.90236	0.00091
1642.97398	0.00082
1641.04561	0.00080
1639.11724	0.00083
1637.18886	0.00089
1635.26049	0.00080
1633.33212	0.00057
1631.40375	0.00048
1629.47537	0.00050
1627.54700	0.00054
1625.61863	0.00063
1623.69025	0.00069
1621.76188	0.00065
1619.83351	0.00063
1617.90513	0.00059
1615.97676	0.00053
1614.04839	0.00049
1612.12001	0.00049
1610.19164	0.00049
1608.26327	0.00053
1606.33489	0.00061
1604.40652	0.00061
1602.47815	0.00048
1600.54977	0.00034
1598.62140	0.00027
1596.69303	0.00023
1594.76465	0.00032
1592.83628	0.00041
1590.90791	0.00038
1588.97953	0.00031
1587.05116	0.00029
1585.12279	0.00036
1583.19441	0.00050
1581.26604	0.00059
1579.33767	0.00069
1577.40929	0.00072
1575.48092	0.00059
1573.55255	0.00052
1571.62418	0.00063
1569.69580	0.00074
1567.76743	0.00066
1565.83906	0.00058
1563.91068	0.00058
1561.98231	0.00056
1560.05394	0.00054
1558.12556	0.00067
1556.19719	0.00056
1554.26882	0.00049
1552.34044	0.00055
1550.41207	0.00065
1548.48370	0.00068
1546.55532	0.00060
1544.62695	0.00058
1542.69858	0.00080
1540.77020	0.00104
1538.84183	0.00079
1536.91346	0.00048
1534.98508	0.00051
1533.05671	0.00066
1531.12834	0.00071
1529.19996	0.00067
1527.27159	0.00064
1525.34322	0.00057
1523.41484	0.00054
1521.48647	0.00035
1519.55810	0.00030
1517.62972	0.00048
1515.70135	0.00059
1513.77298	0.00052
1511.84461	0.00043
1509.91623	0.00051
1507.98786	0.00068
1506.05949	0.00078
1504.13111	0.00076
1502.20274	0.00068
1500.27437	0.00065
1498.34599	0.00063
1496.41762	0.00054
1494.48925	0.00037
1492.56087	0.00037
1490.63250	0.00053
1488.70413	0.00071
1486.77575	0.00086
1484.84738	0.00094
1482.91901	0.00093
1480.99063	0.00087
1479.06226	0.00080
1477.13389	0.00072
1475.20551	0.00067
1473.27714	0.00066
1471.34877	0.00061
1469.42039	0.00065
1467.49202	0.00070
1465.56365	0.00057
1463.63527	0.00051
1461.70690	0.00060
1459.77853	0.00070
1457.85016	0.00085
1455.92178	0.00077
1453.99341	0.00055
1452.06504	0.00049
1450.13666	0.00059
1448.20829	0.00068
1446.27992	0.00068
1444.35154	0.00068
1442.42317	0.00068
1440.49480	0.00064
1438.56642	0.00071
1436.63805	0.00092
1434.70968	0.00095
1432.78130	0.00084
1430.85293	0.00081
1428.92456	0.00075
1426.99618	0.00065
1425.06781	0.00057
1423.13944	0.00052
1421.21106	0.00050
1419.28269	0.00052
1417.35432	0.00053
1415.42594	0.00055
1413.49757	0.00062
1411.56920	0.00068
1409.64082	0.00078
1407.71245	0.00090
1405.78408	0.00087
1403.85570	0.00070
1401.92733	0.00073
1399.99896	0.00099
1398.07059	0.00115
1396.14221	0.00103
1394.21384	0.00092
1392.28547	0.00104
1390.35709	0.00119
1388.42872	0.00111
1386.50035	0.00101
1384.57197	0.00093
1382.64360	0.00086
1380.71523	0.00082
1378.78685	0.00071
1376.85848	0.00060
1374.93011	0.00066
1373.00173	0.00092
1371.07336	0.00100
1369.14499	0.00091
1367.21661	0.00088
1365.28824	0.00086
1363.35987	0.00077
1361.43149	0.00066
1359.50312	0.00055
1357.57475	0.00064
1355.64637	0.00086
1353.71800	0.00100
1351.78963	0.00093
1349.86125	0.00079
1347.93288	0.00071
1346.00451	0.00065
1344.07614	0.00058
1342.14776	0.00055
1340.21939	0.00056
1338.29102	0.00068
1336.36264	0.00077
1334.43427	0.00070
1332.50590	0.00061
1330.57752	0.00062
1328.64915	0.00062
1326.72078	0.00068
1324.79240	0.00087
1322.86403	0.00111
1320.93566	0.00121
1319.00728	0.00109
1317.07891	0.00090
1315.15054	0.00080
1313.22216	0.00075
1311.29379	0.00071
1309.36542	0.00072
1307.43704	0.00072
1305.50867	0.00062
1303.58030	0.00058
1301.65192	0.00073
1299.72355	0.00092
1297.79518	0.00099
1295.86680	0.00103
1293.93843	0.00105
1292.01006	0.00105
1290.08168	0.00115
1288.15331	0.00125
1286.22494	0.00116
1284.29657	0.00103
1282.36819	0.00111
1280.43982	0.00132
1278.51145	0.00140
1276.58307	0.00131
1274.65470	0.00113
1272.72633	0.00097
1270.79795	0.00083
1268.86958	0.00079
1266.94121	0.00090
1265.01283	0.00106
1263.08446	0.00118
1261.15609	0.00125
1259.22771	0.00132
1257.29934	0.00135
1255.37097	0.00144
1253.44259	0.00170
1251.51422	0.00185
1249.58585	0.00179
1247.65747	0.00174
1245.72910	0.00178
1243.80073	0.00183
1241.87235	0.00185
1239.94398	0.00184
1238.01561	0.00179
1236.08723	0.00185
1234.15886	0.00204
1232.23049	0.00211
1230.30212	0.00202
1228.37374	0.00216
1226.44537	0.00287
1224.51700	0.00358
1222.58862	0.00360
1220.66025	0.00339
1218.73188	0.00369
1216.80350	0.00417
1214.87513	0.00416
1212.94676	0.00377
1211.01838	0.00344
1209.09001	0.00329
1207.16164	0.00336
1205.23326	0.00354
1203.30489	0.00391
1201.37652	0.00457
1199.44814	0.00543
1197.51977	0.00656
1195.59140	0.00778
1193.66302	0.00869
1191.73465	0.00914
1189.80628	0.00938
1187.87790	0.00950
1185.94953	0.00935
1184.02116	0.00890
1182.09278	0.00845
1180.16441	0.00802
1178.23604	0.00733
1176.30766	0.00645
1174.37929	0.00553
1172.45092	0.00448
1170.52255	0.00341
1168.59417	0.00256
1166.66580	0.00197
1164.73743	0.00174
1162.80905	0.00179
1160.88068	0.00178
1158.95231	0.00166
1157.02393	0.00136
1155.09556	0.00096
1153.16719	0.00106
1151.23881	0.00191
1149.31044	0.00273
1147.38207	0.00327
1145.45369	0.00392
1143.52532	0.00473
1141.59695	0.00510
1139.66857	0.00465
1137.74020	0.00392
1135.81183	0.00345
1133.88345	0.00298
1131.95508	0.00240
1130.02671	0.00201
1128.09833	0.00194
1126.16996	0.00212
1124.24159	0.00224
1122.31321	0.00224
1120.38484	0.00201
1118.45647	0.00156
1116.52809	0.00139
1114.59972	0.00167
1112.67135	0.00199
1110.74298	0.00190
1108.81460	0.00177
1106.88623	0.00199
1104.95786	0.00229
1103.02948	0.00231
1101.10111	0.00221
1099.17274	0.00225
1097.24436	0.00245
1095.31599	0.00256
1093.38762	0.00240
1091.45924	0.00216
1089.53087	0.00199
1087.60250	0.00194
1085.67412	0.00193
1083.74575	0.00193
1081.81738	0.00179
1079.88900	0.00171
1077.96063	0.00180
1076.03226	0.00182
1074.10388	0.00186
1072.17551	0.00203
1070.24714	0.00204
1068.31876	0.00172
1066.39039	0.00139
1064.46202	0.00145
1062.53364	0.00174
1060.60527	0.00178
1058.67690	0.00160
1056.74853	0.00155
1054.82015	0.00166
1052.89178	0.00183
1050.96341	0.00204
1049.03503	0.00214
1047.10666	0.00204
1045.17829	0.00201
1043.24991	0.00215
1041.32154	0.00201
1039.39317	0.00161
1037.46479	0.00153
1035.53642	0.00178
1033.60805	0.00192
1031.67967	0.00190
1029.75130	0.00180
1027.82293	0.00157
1025.89455	0.00144
1023.96618	0.00157
1022.03781	0.00174
1020.10943	0.00175
1018.18106	0.00173
1016.25269	0.00170
1014.32431	0.00152
1012.39594	0.00138
1010.46757	0.00161
1008.53919	0.00200
1006.61082	0.00262
1004.68245	0.00362
1002.75407	0.00475
1000.82570	0.00570
998.89733	0.00658
996.96896	0.00743
995.04058	0.00825
993.11221	0.00912
991.18384	0.01013
989.25546	0.01135
987.32709	0.01262
985.39872	0.01370
983.47034	0.01439
981.54197	0.01455
979.61360	0.01437
977.68522	0.01419
975.75685	0.01443
973.82848	0.01564
971.90010	0.01810
969.97173	0.02147
968.04336	0.02503
966.11498	0.02805
964.18661	0.02984
962.25824	0.02963
960.32986	0.02672
958.40149	0.02168
956.47312	0.01694
954.54474	0.01479
952.61637	0.01566
950.68800	0.01848
948.75962	0.02214
946.83125	0.02602
944.90288	0.02958
942.97451	0.03257
941.04613	0.03535
939.11776	0.03787
937.18939	0.03966
935.26101	0.04060
933.33264	0.04105
931.40427	0.04134
929.47589	0.04133
927.54752	0.04068
925.61915	0.03949
923.69077	0.03814
921.76240	0.03700
919.83403	0.03628
917.90565	0.03600
915.97728	0.03610
914.04891	0.03615
912.12053	0.03567
910.19216	0.03468
908.26379	0.03290
906.33541	0.03003
904.40704	0.02682
902.47867	0.02407
900.55029	0.02162
898.62192	0.01948
896.69355	0.01812
894.76517	0.01740
892.83680	0.01684
890.90843	0.01651
888.98005	0.01629
887.05168	0.01576
885.12331	0.01506
883.19494	0.01453
881.26656	0.01405
879.33819	0.01368
877.40982	0.01369
875.48144	0.01379
873.55307	0.01372
871.62470	0.01365
869.69632	0.01359
867.76795	0.01345
865.83958	0.01321
863.91120	0.01309
861.98283	0.01317
860.05446	0.01303
858.12608	0.01238
856.19771	0.01157
854.26934	0.01118
852.34096	0.01102
850.41259	0.01050
848.48422	0.00973
846.55584	0.00907
844.62747	0.00868
842.69910	0.00869
840.77072	0.00894
838.84235	0.00898
836.91398	0.00848
834.98560	0.00780
833.05723	0.00739
831.12886	0.00721
829.20049	0.00714
827.27211	0.00733
825.34374	0.00770
823.41537	0.00784
821.48699	0.00745
819.55862	0.00690
817.63025	0.00663
815.70187	0.00652
813.77350	0.00637
811.84513	0.00629
809.91675	0.00638
807.98838	0.00644
806.06001	0.00596
804.13163	0.00500
802.20326	0.00404
800.27489	0.00339
798.34651	0.00314
796.41814	0.00308
794.48977	0.00320
792.56139	0.00333
790.63302	0.00332
788.70465	0.00326
786.77627	0.00315
784.84790	0.00300
782.91953	0.00321
780.99115	0.00343
779.06278	0.00342
777.13441	0.00327
775.20603	0.00285
773.27766	0.00231
771.34929	0.00205
769.42092	0.00194
767.49254	0.00191
765.56417	0.00236
763.63580	0.00309
761.70742	0.00324
759.77905	0.00286
757.85068	0.00257
755.92230	0.00260
753.99393	0.00289
752.06556	0.00317
750.13718	0.00350
748.20881	0.00376
746.28044	0.00362
744.35206	0.00323
742.42369	0.00299
740.49532	0.00310
738.56694	0.00354
736.63857	0.00383
734.71020	0.00363
732.78182	0.00313
730.85345	0.00281
728.92508	0.00291
726.99670	0.00323
725.06833	0.00357
723.13996	0.00375
721.21158	0.00371
719.28321	0.00353
717.35484	0.00352
715.42647	0.00374
713.49809	0.00379
711.56972	0.00380
709.64135	0.00417
707.71297	0.00442
705.78460	0.00401
703.85623	0.00332
701.92785	0.00297
699.99948	0.00312
698.07111	0.00335
696.14273	0.00343
694.21436	0.00374
692.28599	0.00477
690.35761	0.00560
688.42924	0.00582
686.50087	0.00611
684.57249	0.00597
682.64412	0.00490
680.71575	0.00446
678.78737	0.00508
676.85900	0.00588
674.93063	0.00609
673.00225	0.00626
671.07388	0.00717
669.14551	0.00860
667.21713	0.00710
665.28876	0.00479
663.36039	0.00503
661.43201	0.00590
659.50364	0.00601
657.57527	0.00643
655.64690	0.00764
653.71852	0.00835
651.79015	0.00865
649.86178	0.00942
647.93340	0.00989
646.00503	0.00934
644.07666	0.00864
642.14828	0.00855
640.21991	0.00907
638.29154	0.00962
636.36316	0.00962
634.43479	0.00934
632.50642	0.00926
630.57804	0.00946
628.64967	0.01029
626.72130	0.01131
624.79292	0.01094
622.86455	0.00920
620.93618	0.00815
619.00780	0.00817
617.07943	0.00788
615.15106	0.00871
613.22268	0.01027
611.29431	0.01208
609.36594	0.01424
607.43756	0.01643
605.50919	0.01687
603.58082	0.01477
601.65244	0.01361
599.72407	0.01579
