3997.51769	0.63363
3995.58931	0.63360
3993.66094	0.63369
3991.73257	0.63418
3989.80419	0.63499
3987.87582	0.63521
3985.94745	0.63472
3984.01907	0.63440
3982.09070	0.63462
3980.16233	0.63530
3978.23396	0.63611
3976.30558	0.63633
3974.37721	0.63591
3972.44884	0.63565
3970.52046	0.63564
3968.59209	0.63541
3966.66372	0.63523
3964.73534	0.63564
3962.80697	0.63674
3960.87860	0.63784
3958.95022	0.63808
3957.02185	0.63802
3955.09348	0.63814
3953.16510	0.63805
3951.23673	0.63805
3949.30836	0.63832
3947.37998	0.63844
3945.45161	0.63866
3943.52324	0.63896
3941.59486	0.63880
3939.66649	0.63831
3937.73812	0.63795
3935.80974	0.63776
3933.88137	0.63785
3931.95300	0.63852
3930.02462	0.63937
3928.09625	0.63998
3926.16788	0.64055
3924.23950	0.64079
3922.31113	0.64049
3920.38276	0.64037
3918.45439	0.64067
3916.52601	0.64053
3914.59764	0.63969
3912.66927	0.63895
3910.74089	0.63878
3908.81252	0.63948
3906.88415	0.64093
3904.95577	0.64252
3903.02740	0.64355
3901.09903	0.64360
3899.17065	0.64270
3897.24228	0.64176
3895.31391	0.64199
3893.38553	0.64296
3891.45716	0.64314
3889.52879	0.64285
3887.60041	0.64343
3885.67204	0.64404
3883.74367	0.64387
3881.81529	0.64389
3879.88692	0.64421
3877.95855	0.64438
3876.03017	0.64448
3874.10180	0.64444
3872.17343	0.64477
3870.24505	0.64511
3868.31668	0.64472
3866.38831	0.64472
3864.45994	0.64476
3862.53156	0.64378
3860.60319	0.64333
3858.67482	0.64431
3856.74644	0.64571
3854.81807	0.64642
3852.88970	0.64500
3850.96132	0.64296
3849.03295	0.64236
3847.10458	0.64296
3845.17620	0.64451
3843.24783	0.64615
3841.31946	0.64684
3839.39108	0.64608
3837.46271	0.64420
3835.53434	0.64313
3833.60596	0.64310
3831.67759	0.64286
3829.74922	0.64265
3827.82084	0.64326
3825.89247	0.64434
3823.96410	0.64569
3822.03572	0.64670
3820.10735	0.64599
3818.17898	0.64545
3816.25060	0.64588
3814.32223	0.64519
3812.39386	0.64382
3810.46548	0.64323
3808.53711	0.64356
3806.60874	0.64441
3804.68037	0.64575
3802.75199	0.64699
3800.82362	0.64613
3798.89525	0.64416
3796.96687	0.64304
3795.03850	0.64211
3793.11013	0.64158
3791.18175	0.64192
3789.25338	0.64274
3787.32501	0.64334
3785.39663	0.64319
3783.46826	0.64279
3781.53989	0.64293
3779.61151	0.64294
3777.68314	0.64226
3775.75477	0.64192
3773.82639	0.64252
3771.89802	0.64360
3769.96965	0.64417
3768.04127	0.64386
3766.11290	0.64345
3764.18453	0.64332
3762.25615	0.64373
3760.32778	0.64448
3758.39941	0.64421
3756.47103	0.64309
3754.54266	0.64336
3752.61429	0.64555
3750.68591	0.64705
3748.75754	0.64618
3746.82917	0.64610
3744.90080	0.64703
3742.97242	0.64634
3741.04405	0.64504
3739.11568	0.64495
3737.18730	0.64521
3735.25893	0.64426
3733.33056	0.64292
3731.40218	0.64240
3729.47381	0.64231
3727.54544	0.64259
3725.61706	0.64305
3723.68869	0.64319
3721.76032	0.64273
3719.83194	0.64201
3717.90357	0.64175
3715.97520	0.64214
3714.04682	0.64305
3712.11845	0.64381
3710.19008	0.64277
3708.26170	0.64070
3706.33333	0.63970
3704.40496	0.63999
3702.47658	0.64038
3700.54821	0.63965
3698.61984	0.63821
3696.69146	0.63698
3694.76309	0.63714
3692.83472	0.63876
3690.90635	0.63952
3688.97797	0.63715
3687.04960	0.63359
3685.12123	0.63128
3683.19285	0.62951
3681.26448	0.62778
3679.33611	0.62667
3677.40773	0.62641
3675.47936	0.62498
3673.55099	0.62178
3671.62261	0.61940
3669.69424	0.61636
3667.76587	0.61214
3665.83749	0.60875
3663.90912	0.60601
3661.98075	0.60335
3660.05237	0.60092
3658.12400	0.59911
3656.19563	0.59708
3654.26725	0.59490
3652.33888	0.59377
3650.41051	0.59224
3648.48213	0.58680
3646.55376	0.57978
3644.62539	0.57544
3642.69701	0.57273
3640.76864	0.56986
3638.84027	0.56654
3636.91189	0.56335
3634.98352	0.56020
3633.05515	0.55722
3631.12678	0.55517
3629.19840	0.55233
3627.27003	0.54711
3625.34166	0.54278
3623.41328	0.53980
3621.48491	0.53708
3619.55654	0.53388
3617.62816	0.53021
3615.69979	0.52661
3613.77142	0.52277
3611.84304	0.51862
3609.91467	0.51458
3607.98630	0.51052
3606.05792	0.50640
3604.12955	0.50259
3602.20118	0.49885
3600.27280	0.49492
3598.34443	0.49135
3596.41606	0.48839
3594.48768	0.48490
3592.55931	0.48083
3590.63094	0.47788
3588.70256	0.47527
3586.77419	0.47066
3584.84582	0.46534
3582.91744	0.46132
3580.98907	0.45785
3579.06070	0.45390
3577.13233	0.44967
3575.20395	0.44594
3573.27558	0.44267
3571.34721	0.43981
3569.41883	0.43729
3567.49046	0.43385
3565.56209	0.42922
3563.63371	0.42533
3561.70534	0.42178
3559.77697	0.41776
3557.84859	0.41377
3555.92022	0.41002
3553.99185	0.40607
3552.06347	0.40206
3550.13510	0.39882
3548.20673	0.39610
3546.27835	0.39268
3544.34998	0.38849
3542.42161	0.38467
3540.49323	0.38164
3538.56486	0.37913
3536.63649	0.37661
3534.70811	0.37376
3532.77974	0.37094
3530.85137	0.36790
3528.92299	0.36423
3526.99462	0.36061
3525.06625	0.35783
3523.13787	0.35558
3521.20950	0.35304
3519.28113	0.35003
3517.35276	0.34666
3515.42438	0.34332
3513.49601	0.34031
3511.56764	0.33729
3509.63926	0.33410
3507.71089	0.33120
3505.78252	0.32884
3503.85414	0.32651
3501.92577	0.32387
3499.99740	0.32093
3498.06902	0.31792
3496.14065	0.31514
3494.21228	0.31272
3492.28390	0.31105
3490.35553	0.30985
3488.42716	0.30835
3486.49878	0.30665
3484.57041	0.30507
3482.64204	0.30339
3480.71366	0.30133
3478.78529	0.29933
3476.85692	0.29779
3474.92854	0.29634
3473.00017	0.29480
3471.07180	0.29324
3469.14342	0.29141
3467.21505	0.28919
3465.28668	0.28710
3463.35831	0.28552
3461.42993	0.28440
3459.50156	0.28332
3457.57319	0.28177
3455.64481	0.27987
3453.71644	0.27825
3451.78807	0.27683
3449.85969	0.27509
3447.93132	0.27294
3446.00295	0.27071
3444.07457	0.26907
3442.14620	0.26807
3440.21783	0.26718
3438.28945	0.26633
3436.36108	0.26541
3434.43271	0.26442
3432.50433	0.26339
3430.57596	0.26185
3428.64759	0.25979
3426.71921	0.25799
3424.79084	0.25699
3422.86247	0.25667
3420.93409	0.25642
3419.00572	0.25531
3417.07735	0.25349
3415.14897	0.25220
3413.22060	0.25175
3411.29223	0.25105
3409.36385	0.24978
3407.43548	0.24902
3405.50711	0.24876
3403.57874	0.24763
3401.65036	0.24567
3399.72199	0.24395
3397.79362	0.24253
3395.86524	0.24111
3393.93687	0.23979
3392.00850	0.23859
3390.08012	0.23757
3388.15175	0.23699
3386.22338	0.23657
3384.29500	0.23541
3382.36663	0.23377
3380.43826	0.23261
3378.50988	0.23142
3376.58151	0.22962
3374.65314	0.22786
3372.72476	0.22645
3370.79639	0.22517
3368.86802	0.22382
3366.93964	0.22223
3365.01127	0.22053
3363.08290	0.21884
3361.15452	0.21677
3359.22615	0.21434
3357.29778	0.21201
3355.36940	0.20989
3353.44103	0.20768
3351.51266	0.20528
3349.58428	0.20265
3347.65591	0.19989
3345.72754	0.19726
3343.79917	0.19474
3341.87079	0.19215
3339.94242	0.18931
3338.01405	0.18611
3336.08567	0.18289
3334.15730	0.17987
3332.22893	0.17686
3330.30055	0.17362
3328.37218	0.17007
3326.44381	0.16630
3324.51543	0.16244
3322.58706	0.15867
3320.65869	0.15529
3318.73031	0.15219
3316.80194	0.14895
3314.87357	0.14591
3312.94519	0.14310
3311.01682	0.13989
3309.08845	0.13649
3307.16007	0.13364
3305.23170	0.13152
3303.30333	0.12951
3301.37495	0.12690
3299.44658	0.12411
3297.51821	0.12210
3295.58983	0.12108
3293.66146	0.12078
3291.73309	0.12094
3289.80472	0.12124
3287.87634	0.12147
3285.94797	0.12194
3284.01960	0.12319
3282.09122	0.12510
3280.16285	0.12705
3278.23448	0.12895
3276.30610	0.13095
3274.37773	0.13332
3272.44936	0.13656
3270.52098	0.14029
3268.59261	0.14363
3266.66424	0.14678
3264.73586	0.15039
3262.80749	0.15440
3260.87912	0.15869
3258.95074	0.16332
3257.02237	0.16797
3255.09400	0.17228
3253.16562	0.17619
3251.23725	0.18018
3249.30888	0.18465
3247.38050	0.18921
3245.45213	0.19349
3243.52376	0.19761
3241.59538	0.20152
3239.66701	0.20520
3237.73864	0.20892
3235.81026	0.21264
3233.88189	0.21592
3231.95352	0.21889
3230.02515	0.22191
3228.09677	0.22477
3226.16840	0.22732
3224.24003	0.22999
3222.31165	0.23303
3220.38328	0.23595
3218.45491	0.23837
3216.52653	0.24078
3214.59816	0.24344
3212.66979	0.24587
3210.74141	0.24822
3208.81304	0.25084
3206.88467	0.25349
3204.95629	0.25624
3203.02792	0.25904
3201.09955	0.26158
3199.17117	0.26421
3197.24280	0.26721
3195.31443	0.27048
3193.38605	0.27411
3191.45768	0.27753
3189.52931	0.28046
3187.60093	0.28333
3185.67256	0.28606
3183.74419	0.28856
3181.81581	0.29122
3179.88744	0.29417
3177.95907	0.29731
3176.03070	0.30061
3174.10232	0.30386
3172.17395	0.30650
3170.24558	0.30863
3168.31720	0.31098
3166.38883	0.31381
3164.46046	0.31677
3162.53208	0.31944
3160.60371	0.32185
3158.67534	0.32407
3156.74696	0.32604
3154.81859	0.32782
3152.89022	0.32951
3150.96184	0.33142
3149.03347	0.33364
3147.10510	0.33560
3145.17672	0.33695
3143.24835	0.33816
3141.31998	0.33953
3139.39160	0.34084
3137.46323	0.34189
3135.53486	0.34283
3133.60648	0.34405
3131.67811	0.34526
3129.74974	0.34575
3127.82136	0.34578
3125.89299	0.34594
3123.96462	0.34611
3122.03624	0.34613
3120.10787	0.34592
3118.17950	0.34544
3116.25113	0.34500
3114.32275	0.34451
3112.39438	0.34378
3110.46601	0.34302
3108.53763	0.34223
3106.60926	0.34145
3104.68089	0.34104
3102.75251	0.34086
3100.82414	0.34037
3098.89577	0.33950
3096.96739	0.33863
3095.03902	0.33788
3093.11065	0.33717
3091.18227	0.33660
3089.25390	0.33606
3087.32553	0.33543
3085.39715	0.33485
3083.46878	0.33426
3081.54041	0.33370
3079.61203	0.33334
3077.68366	0.33328
3075.75529	0.33359
3073.82691	0.33415
3071.89854	0.33472
3069.97017	0.33540
3068.04179	0.33636
3066.11342	0.33751
3064.18505	0.33872
3062.25668	0.34017
3060.32830	0.34235
3058.39993	0.34506
3056.47156	0.34761
3054.54318	0.35000
3052.61481	0.35245
3050.68644	0.35480
3048.75806	0.35714
3046.82969	0.35975
3044.90132	0.36244
3042.97294	0.36510
3041.04457	0.36790
3039.11620	0.37076
3037.18782	0.37338
3035.25945	0.37562
3033.33108	0.37779
3031.40270	0.38010
3029.47433	0.38214
3027.54596	0.38404
3025.61758	0.38622
3023.68921	0.38858
3021.76084	0.39108
3019.83246	0.39359
3017.90409	0.39561
3015.97572	0.39710
3014.04734	0.39863
3012.11897	0.40027
3010.19060	0.40136
3008.26222	0.40172
3006.33385	0.40174
3004.40548	0.40130
3002.47711	0.40052
3000.54873	0.39960
2998.62036	0.39785
2996.69199	0.39516
2994.76361	0.39222
2992.83524	0.38911
2990.90687	0.38557
2988.97849	0.38126
2987.05012	0.37586
2985.12175	0.36959
2983.19337	0.36330
2981.26500	0.35767
2979.33663	0.35204
2977.40825	0.34583
2975.47988	0.34005
2973.55151	0.33520
2971.62313	0.33052
2969.69476	0.32605
2967.76639	0.32253
2965.83801	0.31989
2963.90964	0.31816
2961.98127	0.31789
2960.05289	0.31906
2958.12452	0.32187
2956.19615	0.32668
2954.26777	0.33199
2952.33940	0.33629
2950.41103	0.33993
2948.48266	0.34282
2946.55428	0.34382
2944.62591	0.34259
2942.69754	0.33995
2940.76916	0.33681
2938.84079	0.33378
2936.91242	0.33124
2934.98404	0.32928
2933.05567	0.32800
2931.12730	0.32746
2929.19892	0.32771
2927.27055	0.32939
2925.34218	0.33243
2923.41380	0.33571
2921.48543	0.33902
2919.55706	0.34283
2917.62868	0.34752
2915.70031	0.35387
2913.77194	0.36149
2911.84356	0.36877
2909.91519	0.37498
2907.98682	0.38027
2906.05844	0.38470
2904.13007	0.38832
2902.20170	0.39138
2900.27332	0.39396
2898.34495	0.39567
2896.41658	0.39652
2894.48820	0.39708
2892.55983	0.39776
2890.63146	0.39853
2888.70309	0.39896
2886.77471	0.39861
2884.84634	0.39753
2882.91797	0.39592
2880.98959	0.39370
2879.06122	0.39132
2877.13285	0.39013
2875.20447	0.39043
2873.27610	0.39174
2871.34773	0.39483
2869.41935	0.40012
2867.49098	0.40608
2865.56261	0.41148
2863.63423	0.41629
2861.70586	0.42013
2859.77749	0.42253
2857.84911	0.42416
2855.92074	0.42578
2853.99237	0.42744
2852.06399	0.42917
2850.13562	0.43169
2848.20725	0.43633
2846.27887	0.44316
2844.35050	0.45014
2842.42213	0.45551
2840.49375	0.45937
2838.56538	0.46248
2836.63701	0.46518
2834.70863	0.46749
2832.78026	0.46918
2830.85189	0.47042
2828.92352	0.47168
2826.99514	0.47288
2825.06677	0.47423
2823.13840	0.47594
2821.21002	0.47745
2819.28165	0.47863
2817.35328	0.48003
2815.42490	0.48164
2813.49653	0.48302
2811.56816	0.48412
2809.63978	0.48510
2807.71141	0.48620
2805.78304	0.48743
2803.85466	0.48853
2801.92629	0.48938
2799.99792	0.49021
2798.06954	0.49149
2796.14117	0.49309
2794.21280	0.49441
2792.28442	0.49540
2790.35605	0.49645
2788.42768	0.49785
2786.49930	0.49937
2784.57093	0.50041
2782.64256	0.50115
2780.71418	0.50219
2778.78581	0.50344
2776.85744	0.50451
2774.92907	0.50518
2773.00069	0.50577
2771.07232	0.50682
2769.14395	0.50799
2767.21557	0.50874
2765.28720	0.50941
2763.35883	0.51039
2761.43045	0.51148
2759.50208	0.51237
2757.57371	0.51319
2755.64533	0.51424
2753.71696	0.51538
2751.78859	0.51619
2749.86021	0.51657
2747.93184	0.51699
2746.00347	0.51786
2744.07509	0.51893
2742.14672	0.51973
2740.21835	0.52025
2738.28997	0.52081
2736.36160	0.52149
2734.43323	0.52217
2732.50485	0.52273
2730.57648	0.52348
2728.64811	0.52464
2726.71973	0.52565
2724.79136	0.52618
2722.86299	0.52675
2720.93461	0.52771
2719.00624	0.52886
2717.07787	0.52982
2715.14950	0.53035
2713.22112	0.53072
2711.29275	0.53144
2709.36438	0.53223
2707.43600	0.53269
2705.50763	0.53308
2703.57926	0.53361
2701.65088	0.53434
2699.72251	0.53519
2697.79414	0.53586
2695.86576	0.53635
2693.93739	0.53705
2692.00902	0.53792
2690.08064	0.53855
2688.15227	0.53899
2686.22390	0.53940
2684.29552	0.53972
2682.36715	0.54008
2680.43878	0.54068
2678.51040	0.54142
2676.58203	0.54214
2674.65366	0.54277
2672.72528	0.54325
2670.79691	0.54358
2668.86854	0.54392
2666.94016	0.54431
2665.01179	0.54484
2663.08342	0.54555
2661.15505	0.54608
2659.22667	0.54631
2657.29830	0.54661
2655.36993	0.54700
2653.44155	0.54731
2651.51318	0.54769
2649.58481	0.54827
2647.65643	0.54891
2645.72806	0.54933
2643.79969	0.54959
2641.87131	0.55006
2639.94294	0.55069
2638.01457	0.55107
2636.08619	0.55118
2634.15782	0.55132
2632.22945	0.55161
2630.30107	0.55198
2628.37270	0.55238
2626.44433	0.55284
2624.51595	0.55325
2622.58758	0.55353
2620.65921	0.55379
2618.73083	0.55398
2616.80246	0.55401
2614.87409	0.55402
2612.94571	0.55406
2611.01734	0.55438
2609.08897	0.55508
2607.16059	0.55572
2605.23222	0.55601
2603.30385	0.55615
2601.37548	0.55640
2599.44710	0.55678
2597.51873	0.55731
2595.59036	0.55803
2593.66198	0.55869
2591.73361	0.55923
2589.80524	0.55984
2587.87686	0.56042
2585.94849	0.56077
2584.02012	0.56097
2582.09174	0.56124
2580.16337	0.56170
2578.23500	0.56222
2576.30662	0.56260
2574.37825	0.56312
2572.44988	0.56396
2570.52150	0.56471
2568.59313	0.56527
2566.66476	0.56587
2564.73638	0.56647
2562.80801	0.56700
2560.87964	0.56756
2558.95126	0.56817
2557.02289	0.56870
2555.09452	0.56899
2553.16614	0.56922
2551.23777	0.56969
2549.30940	0.57029
2547.38103	0.57071
2545.45265	0.57102
2543.52428	0.57154
2541.59591	0.57219
2539.66753	0.57267
2537.73916	0.57294
2535.81079	0.57313
2533.88241	0.57339
2531.95404	0.57377
2530.02567	0.57415
2528.09729	0.57442
2526.16892	0.57454
2524.24055	0.57451
2522.31217	0.57446
2520.38380	0.57461
2518.45543	0.57507
2516.52705	0.57579
2514.59868	0.57646
2512.67031	0.57668
2510.74193	0.57658
2508.81356	0.57683
2506.88519	0.57763
2504.95681	0.57847
2503.02844	0.57898
2501.10007	0.57945
2499.17169	0.57997
2497.24332	0.58023
2495.31495	0.58037
2493.38657	0.58079
2491.45820	0.58139
2489.52983	0.58176
2487.60146	0.58196
2485.67308	0.58227
2483.74471	0.58252
2481.81634	0.58268
2479.88796	0.58328
2477.95959	0.58430
2476.03122	0.58500
2474.10284	0.58512
2472.17447	0.58501
2470.24610	0.58513
2468.31772	0.58578
2466.38935	0.58665
2464.46098	0.58733
2462.53260	0.58776
2460.60423	0.58808
2458.67586	0.58852
2456.74748	0.58920
2454.81911	0.58978
2452.89074	0.59003
2450.96236	0.59035
2449.03399	0.59088
2447.10562	0.59136
2445.17724	0.59181
2443.24887	0.59226
2441.32050	0.59258
2439.39212	0.59276
2437.46375	0.59306
2435.53538	0.59361
2433.60700	0.59427
2431.67863	0.59492
2429.75026	0.59547
2427.82189	0.59601
2425.89351	0.59672
2423.96514	0.59735
2422.03677	0.59764
2420.10839	0.59767
2418.18002	0.59778
2416.25165	0.59825
2414.32327	0.59876
2412.39490	0.59904
2410.46653	0.59953
2408.53815	0.60012
2406.60978	0.60036
2404.68141	0.60062
2402.75303	0.60122
2400.82466	0.60193
2398.89629	0.60264
2396.96791	0.60327
2395.03954	0.60357
2393.11117	0.60366
2391.18279	0.60393
2389.25442	0.60432
2387.32605	0.60459
2385.39767	0.60490
2383.46930	0.60585
2381.54093	0.60765
2379.61255	0.60975
2377.68418	0.61156
2375.75581	0.61308
2373.82744	0.61449
2371.89906	0.61609
2369.97069	0.61828
2368.04232	0.62060
2366.11394	0.62291
2364.18557	0.62554
2362.25720	0.62713
2360.32882	0.62735
2358.40045	0.62700
2356.47208	0.62586
2354.54370	0.62389
2352.61533	0.62137
2350.68696	0.61933
2348.75858	0.61873
2346.83021	0.61997
2344.90184	0.62262
2342.97346	0.62434
2341.04509	0.62395
2339.11672	0.62317
2337.18834	0.62317
2335.25997	0.62307
2333.33160	0.62195
2331.40322	0.62121
2329.47485	0.62205
2327.54648	0.62305
2325.61810	0.62291
2323.68973	0.62203
2321.76136	0.62128
2319.83298	0.62082
2317.90461	0.62033
2315.97624	0.61993
2314.04787	0.61998
2312.11949	0.62020
2310.19112	0.62007
2308.26275	0.61975
2306.33437	0.61958
2304.40600	0.61970
2302.47763	0.62010
2300.54925	0.62039
2298.62088	0.62043
2296.69251	0.62053
2294.76413	0.62058
2292.83576	0.62051
2290.90739	0.62063
2288.97901	0.62077
2287.05064	0.62062
2285.12227	0.62052
2283.19389	0.62070
2281.26552	0.62083
2279.33715	0.62081
2277.40877	0.62090
2275.48040	0.62130
2273.55203	0.62199
2271.62365	0.62262
2269.69528	0.62291
2267.76691	0.62290
2265.83853	0.62286
2263.91016	0.62295
2261.98179	0.62304
2260.05342	0.62312
2258.12504	0.62335
2256.19667	0.62366
2254.26830	0.62380
2252.33992	0.62375
2250.41155	0.62385
2248.48318	0.62416
2246.55480	0.62434
2244.62643	0.62433
2242.69806	0.62449
2240.76968	0.62479
2238.84131	0.62491
2236.91294	0.62486
2234.98456	0.62481
2233.05619	0.62490
2231.12782	0.62514
2229.19944	0.62537
2227.27107	0.62542
2225.34270	0.62539
2223.41432	0.62548
2221.48595	0.62565
2219.55758	0.62582
2217.62920	0.62600
2215.70083	0.62617
2213.77246	0.62627
2211.84408	0.62615
2209.91571	0.62580
2207.98734	0.62565
2206.05896	0.62591
2204.13059	0.62620
2202.20222	0.62618
2200.27385	0.62597
2198.34547	0.62589
2196.41710	0.62617
2194.48873	0.62670
2192.56035	0.62711
2190.63198	0.62708
2188.70361	0.62680
2186.77523	0.62668
2184.84686	0.62683
2182.91849	0.62702
2180.99011	0.62697
2179.06174	0.62682
2177.13337	0.62686
2175.20499	0.62692
2173.27662	0.62680
2171.34825	0.62683
2169.41987	0.62712
2167.49150	0.62732
2165.56313	0.62719
2163.63475	0.62707
2161.70638	0.62721
2159.77801	0.62740
2157.84963	0.62728
2155.92126	0.62690
2153.99289	0.62672
2152.06451	0.62702
2150.13614	0.62753
2148.20777	0.62775
2146.27940	0.62763
2144.35102	0.62751
2142.42265	0.62753
2140.49428	0.62762
2138.56590	0.62776
2136.63753	0.62790
2134.70916	0.62794
2132.78078	0.62798
2130.85241	0.62804
2128.92404	0.62819
2126.99566	0.62858
2125.06729	0.62888
2123.13892	0.62875
2121.21054	0.62866
2119.28217	0.62892
2117.35380	0.62914
2115.42542	0.62895
2113.49705	0.62853
2111.56868	0.62836
2109.64030	0.62888
2107.71193	0.62976
2105.78356	0.63017
2103.85518	0.63007
2101.92681	0.62999
2099.99844	0.62990
2098.07006	0.62952
2096.14169	0.62917
2094.21332	0.62935
2092.28494	0.62976
2090.35657	0.62985
2088.42820	0.62980
2086.49983	0.62999
2084.57145	0.63041
2082.64308	0.63075
2080.71471	0.63092
2078.78633	0.63103
2076.85796	0.63105
2074.92959	0.63089
2073.00121	0.63075
2071.07284	0.63095
2069.14447	0.63128
2067.21609	0.63132
2065.28772	0.63124
2063.35935	0.63137
2061.43097	0.63167
2059.50260	0.63186
2057.57423	0.63192
2055.64585	0.63196
2053.71748	0.63190
2051.78911	0.63183
2049.86073	0.63200
2047.93236	0.63238
2046.00399	0.63259
2044.07561	0.63252
2042.14724	0.63247
2040.21887	0.63266
2038.29049	0.63293
2036.36212	0.63300
2034.43375	0.63299
2032.50538	0.63299
2030.57700	0.63293
2028.64863	0.63298
2026.72026	0.63318
2024.79188	0.63322
2022.86351	0.63316
2020.93514	0.63326
2019.00676	0.63345
2017.07839	0.63352
2015.15002	0.63349
2013.22164	0.63369
2011.29327	0.63402
2009.36490	0.63402
2007.43652	0.63370
2005.50815	0.63346
2003.57978	0.63357
2001.65140	0.63388
1999.72303	0.63400
1997.79466	0.63382
1995.86628	0.63379
1993.93791	0.63407
1992.00954	0.63424
1990.08116	0.63424
1988.15279	0.63419
1986.22442	0.63392
1984.29604	0.63371
1982.36767	0.63379
1980.43930	0.63385
1978.51092	0.63386
1976.58255	0.63399
1974.65418	0.63406
1972.72581	0.63389
1970.79743	0.63370
1968.86906	0.63375
1966.94069	0.63380
1965.01231	0.63376
1963.08394	0.63398
1961.15557	0.63438
1959.22719	0.63472
1957.29882	0.63512
1955.37045	0.63539
1953.44207	0.63539
1951.51370	0.63545
1949.58533	0.63566
1947.65695	0.63581
1945.72858	0.63585
1943.80021	0.63598
1941.87183	0.63627
1939.94346	0.63665
1938.01509	0.63687
1936.08671	0.63680
1934.15834	0.63681
1932.22997	0.63700
1930.30159	0.63701
1928.37322	0.63709
1926.44485	0.63756
1924.51647	0.63810
1922.58810	0.63836
1920.65973	0.63841
1918.73135	0.63838
1916.80298	0.63803
1914.87461	0.63761
1912.94624	0.63762
1911.01786	0.63786
1909.08949	0.63803
1907.16112	0.63800
1905.23274	0.63780
1903.30437	0.63770
1901.37600	0.63786
1899.44762	0.63817
1897.51925	0.63828
1895.59088	0.63823
1893.66250	0.63849
1891.73413	0.63913
1889.80576	0.63941
1887.87738	0.63893
1885.94901	0.63844
1884.02064	0.63842
1882.09226	0.63877
1880.16389	0.63929
1878.23552	0.63961
1876.30714	0.63973
1874.37877	0.64003
1872.45040	0.64055
1870.52202	0.64121
1868.59365	0.64167
1866.66528	0.64168
1864.73690	0.64167
1862.80853	0.64189
1860.88016	0.64217
1858.95179	0.64242
1857.02341	0.64253
1855.09504	0.64244
1853.16667	0.64239
1851.23829	0.64275
1849.30992	0.64342
1847.38155	0.64399
1845.45317	0.64430
1843.52480	0.64439
1841.59643	0.64428
1839.66805	0.64411
1837.73968	0.64408
1835.81131	0.64429
1833.88293	0.64490
1831.95456	0.64579
1830.02619	0.64618
1828.09781	0.64574
1826.16944	0.64540
1824.24107	0.64525
1822.31269	0.64499
1820.38432	0.64486
1818.45595	0.64475
1816.52757	0.64461
1814.59920	0.64477
1812.67083	0.64529
1810.74245	0.64549
1808.81408	0.64481
1806.88571	0.64392
1804.95733	0.64351
1803.02896	0.64370
1801.10059	0.64396
1799.17222	0.64351
1797.24384	0.64252
1795.31547	0.64191
1793.38710	0.64191
1791.45872	0.64126
1789.53035	0.63960
1787.60198	0.63826
1785.67360	0.63718
1783.74523	0.63585
1781.81686	0.63466
1779.88848	0.63361
1777.96011	0.63230
1776.03174	0.63132
1774.10336	0.63092
1772.17499	0.63019
1770.24662	0.62850
1768.31824	0.62654
1766.38987	0.62486
1764.46150	0.62376
1762.53312	0.62282
1760.60475	0.62120
1758.67638	0.61908
1756.74800	0.61647
1754.81963	0.61378
1752.89126	0.61180
1750.96288	0.60933
1749.03451	0.60533
1747.10614	0.60082
1745.17777	0.59640
1743.24939	0.59203
1741.32102	0.58755
1739.39265	0.58271
1737.46427	0.57842
1735.53590	0.57456
1733.60753	0.56829
1731.67915	0.56096
1729.75078	0.55464
1727.82241	0.54815
1725.89403	0.54139
1723.96566	0.53358
1722.03729	0.52574
1720.10891	0.51920
1718.18054	0.51128
1716.25217	0.49853
1714.32379	0.48468
1712.39542	0.47199
1710.46705	0.45884
1708.53867	0.44414
1706.61030	0.42469
1704.68193	0.40136
1702.75355	0.38038
1700.82518	0.35552
1698.89681	0.32531
1696.96843	0.30009
1695.04006	0.27502
1693.11169	0.25427
1691.18331	0.23746
1689.25494	0.21919
1687.32657	0.20266
1685.39820	0.18585
1683.46982	0.16381
1681.54145	0.14746
1679.61308	0.13696
1677.68470	0.12742
1675.75633	0.11685
1673.82796	0.10624
1671.89958	0.09795
1669.97121	0.08964
1668.04284	0.08073
1666.11446	0.07431
1664.18609	0.06887
1662.25772	0.06262
1660.32934	0.05690
1658.40097	0.05249
1656.47260	0.04915
1654.54422	0.04583
1652.61585	0.04201
1650.68748	0.04055
1648.75910	0.04090
1646.83073	0.04273
1644.90236	0.04521
1642.97398	0.04700
1641.04561	0.04830
1639.11724	0.04909
1637.18886	0.04869
1635.26049	0.04713
1633.33212	0.04633
1631.40375	0.04668
1629.47537	0.04864
1627.54700	0.05323
1625.61863	0.06096
1623.69025	0.07334
1621.76188	0.08886
1619.83351	0.10264
1617.90513	0.11785
1615.97676	0.13784
1614.04839	0.15481
1612.12001	0.16822
1610.19164	0.18191
1608.26327	0.19548
1606.33489	0.20725
1604.40652	0.21707
1602.47815	0.22538
1600.54977	0.23192
1598.62140	0.23681
1596.69303	0.24058
1594.76465	0.24362
1592.83628	0.24618
1590.90791	0.24821
1588.97953	0.24915
1587.05116	0.24861
1585.12279	0.24704
1583.19441	0.24463
1581.26604	0.24137
1579.33767	0.23759
1577.40929	0.23258
1575.48092	0.22481
1573.55255	0.21733
1571.62418	0.21077
1569.69580	0.20201
1567.76743	0.19243
1565.83906	0.18387
1563.91068	0.17513
1561.98231	0.16740
1560.05394	0.15870
1558.12556	0.14486
1556.19719	0.13557
1554.26882	0.12997
1552.34044	0.12519
1550.41207	0.12178
1548.48370	0.11988
1546.55532	0.11914
1544.62695	0.11908
1542.69858	0.11980
1540.77020	0.12167
1538.84183	0.12456
1536.91346	0.12680
1534.98508	0.12883
1533.05671	0.13142
1531.12834	0.13407
1529.19996	0.13665
1527.27159	0.13978
1525.34322	0.14321
1523.41484	0.14612
1521.48647	0.14832
1519.55810	0.14970
1517.62972	0.15208
1515.70135	0.15732
1513.77298	0.16502
1511.84461	0.17445
1509.91623	0.18487
1507.98786	0.19873
1506.05949	0.21871
1504.13111	0.23243
1502.20274	0.24157
1500.27437	0.25208
1498.34599	0.26517
1496.41762	0.27943
1494.48925	0.29117
1492.56087	0.30035
1490.63250	0.31031
1488.70413	0.32097
1486.77575	0.32851
1484.84738	0.33326
1482.91901	0.33646
1480.99063	0.33769
1479.06226	0.33640
1477.13389	0.33295
1475.20551	0.32753
1473.27714	0.31861
1471.34877	0.30752
1469.42039	0.29992
1467.49202	0.29507
1465.56365	0.28956
1463.63527	0.28310
1461.70690	0.27809
1459.77853	0.27396
1457.85016	0.26745
1455.92178	0.25937
1453.99341	0.25546
1452.06504	0.25444
1450.13666	0.25485
1448.20829	0.25655
1446.27992	0.25928
1444.35154	0.26291
1442.42317	0.26766
1440.49480	0.27308
1438.56642	0.27932
1436.63805	0.28732
1434.70968	0.29472
1432.78130	0.30065
1430.85293	0.30722
1428.92456	0.31352
1426.99618	0.31751
1425.06781	0.31961
1423.13944	0.32044
1421.21106	0.32022
1419.28269	0.31895
1417.35432	0.31692
1415.42594	0.31522
1413.49757	0.31414
1411.56920	0.31352
1409.64082	0.31315
1407.71245	0.31285
1405.78408	0.31276
1403.85570	0.31298
1401.92733	0.31311
1399.99896	0.31264
1398.07059	0.31168
1396.14221	0.31055
1394.21384	0.30874
1392.28547	0.30600
1390.35709	0.30298
1388.42872	0.30001
1386.50035	0.29767
1384.57197	0.29658
1382.64360	0.29659
1380.71523	0.29747
1378.78685	0.29890
1376.85848	0.30081
1374.93011	0.30357
1373.00173	0.30697
1371.07336	0.31086
1369.14499	0.31629
1367.21661	0.32329
1365.28824	0.33030
1363.35987	0.33654
1361.43149	0.34168
1359.50312	0.34560
1357.57475	0.34839
1355.64637	0.35017
1353.71800	0.35132
1351.78963	0.35193
1349.86125	0.35173
1347.93288	0.35095
1346.00451	0.35017
1344.07614	0.34959
1342.14776	0.34902
1340.21939	0.34807
1338.29102	0.34650
1336.36264	0.34484
1334.43427	0.34358
1332.50590	0.34268
1330.57752	0.34226
1328.64915	0.34244
1326.72078	0.34288
1324.79240	0.34349
1322.86403	0.34428
1320.93566	0.34475
1319.00728	0.34485
1317.07891	0.34482
1315.15054	0.34428
1313.22216	0.34299
1311.29379	0.34140
1309.36542	0.34005
1307.43704	0.33921
1305.50867	0.33852
1303.58030	0.33736
1301.65192	0.33615
1299.72355	0.33593
1297.79518	0.33666
1295.86680	0.33697
1293.93843	0.33609
1292.01006	0.33457
1290.08168	0.33298
1288.15331	0.33137
1286.22494	0.32973
1284.29657	0.32843
1282.36819	0.32781
1280.43982	0.32742
1278.51145	0.32684
1276.58307	0.32633
1274.65470	0.32571
1272.72633	0.32439
1270.79795	0.32252
1268.86958	0.32088
1266.94121	0.31987
1265.01283	0.31923
1263.08446	0.31899
1261.15609	0.31930
1259.22771	0.31921
1257.29934	0.31809
1255.37097	0.31644
1253.44259	0.31435
1251.51422	0.31219
1249.58585	0.31085
1247.65747	0.30996
1245.72910	0.30852
1243.80073	0.30657
1241.87235	0.30489
1239.94398	0.30387
1238.01561	0.30370
1236.08723	0.30443
1234.15886	0.30610
1232.23049	0.30941
1230.30212	0.31454
1228.37374	0.32054
1226.44537	0.32692
1224.51700	0.33363
1222.58862	0.34024
1220.66025	0.34670
1218.73188	0.35319
1216.80350	0.35886
1214.87513	0.36246
1212.94676	0.36429
1211.01838	0.36609
1209.09001	0.36907
1207.16164	0.37284
1205.23326	0.37601
1203.30489	0.37799
1201.37652	0.37978
1199.44814	0.38292
1197.51977	0.38754
1195.59140	0.39223
1193.66302	0.39628
1191.73465	0.39990
1189.80628	0.40330
1187.87790	0.40636
1185.94953	0.40892
1184.02116	0.41078
1182.09278	0.41160
1180.16441	0.41139
1178.23604	0.41008
1176.30766	0.40747
1174.37929	0.40348
1172.45092	0.39831
1170.52255	0.39330
1168.59417	0.38917
1166.66580	0.38516
1164.73743	0.38153
1162.80905	0.37995
1160.88068	0.38179
1158.95231	0.38658
1157.02393	0.39264
1155.09556	0.39935
1153.16719	0.40654
1151.23881	0.41377
1149.31044	0.42096
1147.38207	0.42772
1145.45369	0.43326
1143.52532	0.43722
1141.59695	0.43989
1139.66857	0.44159
1137.74020	0.44224
1135.81183	0.44164
1133.88345	0.43931
1131.95508	0.43478
1130.02671	0.42930
1128.09833	0.42498
1126.16996	0.42205
1124.24159	0.41912
1122.31321	0.41569
1120.38484	0.41269
1118.45647	0.41121
1116.52809	0.41147
1114.59972	0.41266
1112.67135	0.41413
1110.74298	0.41610
1108.81460	0.41859
1106.88623	0.42087
1104.95786	0.42233
1103.02948	0.42317
1101.10111	0.42394
1099.17274	0.42414
1097.24436	0.42299
1095.31599	0.42069
1093.38762	0.41720
1091.45924	0.41256
1089.53087	0.40767
1087.60250	0.40224
1085.67412	0.39538
1083.74575	0.38829
1081.81738	0.38278
1079.88900	0.37946
1077.96063	0.37862
1076.03226	0.38052
1074.10388	0.38491
1072.17551	0.39100
1070.24714	0.39751
1068.31876	0.40318
1066.39039	0.40738
1064.46202	0.41014
1062.53364	0.41215
1060.60527	0.41440
1058.67690	0.41710
1056.74853	0.41980
1054.82015	0.42227
1052.89178	0.42397
1050.96341	0.42471
1049.03503	0.42525
1047.10666	0.42559
1045.17829	0.42479
1043.24991	0.42269
1041.32154	0.41990
1039.39317	0.41665
1037.46479	0.41359
1035.53642	0.41182
1033.60805	0.41082
1031.67967	0.40990
1029.75130	0.40998
1027.82293	0.41154
1025.89455	0.41460
1023.96618	0.41918
1022.03781	0.42394
1020.10943	0.42801
1018.18106	0.43239
1016.25269	0.43749
1014.32431	0.44238
1012.39594	0.44676
1010.46757	0.45150
1008.53919	0.45746
1006.61082	0.46434
1004.68245	0.47082
1002.75407	0.47596
1000.82570	0.48016
998.89733	0.48385
996.96896	0.48664
995.04058	0.48860
993.11221	0.49087
991.18384	0.49382
989.25546	0.49670
987.32709	0.49907
985.39872	0.50090
983.47034	0.50218
981.54197	0.50304
979.61360	0.50355
977.68522	0.50388
975.75685	0.50489
973.82848	0.50730
971.90010	0.51049
969.97173	0.51366
968.04336	0.51675
966.11498	0.51968
964.18661	0.52171
962.25824	0.52211
960.32986	0.52019
958.40149	0.51617
956.47312	0.51239
954.54474	0.51086
952.61637	0.51156
950.68800	0.51380
948.75962	0.51693
946.83125	0.52045
944.90288	0.52340
942.97451	0.52509
941.04613	0.52580
939.11776	0.52618
937.18939	0.52702
935.26101	0.52817
933.33264	0.52885
931.40427	0.52901
929.47589	0.52892
927.54752	0.52881
925.61915	0.52929
923.69077	0.53080
921.76240	0.53243
919.83403	0.53312
917.90565	0.53346
915.97728	0.53439
914.04891	0.53538
912.12053	0.53545
910.19216	0.53497
908.26379	0.53459
906.33541	0.53388
904.40704	0.53225
902.47867	0.53002
900.55029	0.52878
898.62192	0.52911
896.69355	0.52948
894.76517	0.52972
892.83680	0.53006
890.90843	0.52937
888.98005	0.52789
887.05168	0.52694
885.12331	0.52720
883.19494	0.52844
881.26656	0.52955
879.33819	0.52968
877.40982	0.52867
875.48144	0.52711
873.55307	0.52604
871.62470	0.52545
869.69632	0.52474
867.76795	0.52439
865.83958	0.52518
863.91120	0.52617
861.98283	0.52595
860.05446	0.52444
858.12608	0.52219
856.19771	0.51945
854.26934	0.51634
852.34096	0.51379
850.41259	0.51292
848.48422	0.51283
846.55584	0.51168
844.62747	0.50938
842.69910	0.50712
840.77072	0.50527
838.84235	0.50297
836.91398	0.49967
834.98560	0.49642
833.05723	0.49441
831.12886	0.49283
829.20049	0.49107
827.27211	0.49019
825.34374	0.49041
823.41537	0.49049
821.48699	0.49010
819.55862	0.48970
817.63025	0.48924
815.70187	0.48871
813.77350	0.48811
811.84513	0.48696
809.91675	0.48581
807.98838	0.48553
806.06001	0.48539
804.13163	0.48390
802.20326	0.48084
800.27489	0.47755
798.34651	0.47517
796.41814	0.47314
794.48977	0.47014
792.56139	0.46614
790.63302	0.46268
788.70465	0.46052
786.77627	0.45863
784.84790	0.45669
782.91953	0.45552
780.99115	0.45462
779.06278	0.45314
777.13441	0.45158
775.20603	0.45020
773.27766	0.44838
771.34929	0.44604
769.42092	0.44400
767.49254	0.44224
765.56417	0.43999
763.63580	0.43786
761.70742	0.43635
759.77905	0.43408
757.85068	0.43068
755.92230	0.42784
753.99393	0.42590
752.06556	0.42378
750.13718	0.42197
748.20881	0.42077
746.28044	0.41950
744.35206	0.41868
742.42369	0.41840
740.49532	0.41754
738.56694	0.41585
736.63857	0.41399
734.71020	0.41223
732.78182	0.41030
730.85345	0.40871
728.92508	0.40785
726.99670	0.40642
725.06833	0.40361
723.13996	0.40051
721.21158	0.39800
719.28321	0.39597
717.35484	0.39398
715.42647	0.39138
713.49809	0.38815
711.56972	0.38502
709.64135	0.38215
707.71297	0.37970
705.78460	0.37806
703.85623	0.37708
701.92785	0.37632
699.99948	0.37518
698.07111	0.37339
696.14273	0.37201
694.21436	0.37168
692.28599	0.37126
690.35761	0.37071
688.42924	0.37142
686.50087	0.37251
684.57249	0.37241
682.64412	0.37183
680.71575	0.37174
678.78737	0.37228
676.85900	0.37255
674.93063	0.37156
673.00225	0.37012
671.07388	0.36890
669.14551	0.36784
667.21713	0.36693
665.28876	0.36607
663.36039	0.36545
661.43201	0.36480
659.50364	0.36352
657.57527	0.36204
655.64690	0.36055
653.71852	0.35920
651.79015	0.35909
649.86178	0.35987
647.93340	0.36034
646.00503	0.36180
644.07666	0.36466
642.14828	0.36595
640.21991	0.36367
638.29154	0.36060
636.36316	0.36051
634.43479	0.36248
632.50642	0.36463
630.57804	0.36603
628.64967	0.36421
626.72130	0.36078
624.79292	0.36014
622.86455	0.36242
620.93618	0.36494
619.00780	0.36534
617.07943	0.36423
615.15106	0.36310
613.22268	0.36099
611.29431	0.35977
609.36594	0.36211
607.43756	0.36493
605.50919	0.36523
603.58082	0.36450
601.65244	0.36473
599.72407	0.36775
