3997.51769	0.34025
3995.58931	0.34027
3993.66094	0.34047
3991.73257	0.34087
3989.80419	0.34131
3987.87582	0.34125
3985.94745	0.34073
3984.01907	0.34062
3982.09070	0.34120
3980.16233	0.34191
3978.23396	0.34238
3976.30558	0.34260
3974.37721	0.34259
3972.44884	0.34254
3970.52046	0.34249
3968.59209	0.34260
3966.66372	0.34319
3964.73534	0.34435
3962.80697	0.34592
3960.87860	0.34702
3958.95022	0.34717
3957.02185	0.34750
3955.09348	0.34884
3953.16510	0.35056
3951.23673	0.35168
3949.30836	0.35225
3947.37998	0.35270
3945.45161	0.35310
3943.52324	0.35371
3941.59486	0.35451
3939.66649	0.35493
3937.73812	0.35492
3935.80974	0.35506
3933.88137	0.35581
3931.95300	0.35695
3930.02462	0.35796
3928.09625	0.35872
3926.16788	0.35930
3924.23950	0.35963
3922.31113	0.35983
3920.38276	0.36009
3918.45439	0.36066
3916.52601	0.36163
3914.59764	0.36226
3912.66927	0.36239
3910.74089	0.36287
3908.81252	0.36406
3906.88415	0.36542
3904.95577	0.36653
3903.02740	0.36741
3901.09903	0.36803
3899.17065	0.36821
3897.24228	0.36830
3895.31391	0.36882
3893.38553	0.36965
3891.45716	0.37013
3889.52879	0.37031
3887.60041	0.37099
3885.67204	0.37183
3883.74367	0.37202
3881.81529	0.37210
3879.88692	0.37275
3877.95855	0.37362
3876.03017	0.37430
3874.10180	0.37486
3872.17343	0.37565
3870.24505	0.37661
3868.31668	0.37721
3866.38831	0.37800
3864.45994	0.37934
3862.53156	0.37994
3860.60319	0.37962
3858.67482	0.37968
3856.74644	0.38044
3854.81807	0.38167
3852.88970	0.38269
3850.96132	0.38232
3849.03295	0.38154
3847.10458	0.38121
3845.17620	0.38156
3843.24783	0.38264
3841.31946	0.38436
3839.39108	0.38596
3837.46271	0.38648
3835.53434	0.38605
3833.60596	0.38555
3831.67759	0.38529
3829.74922	0.38522
3827.82084	0.38522
3825.89247	0.38529
3823.96410	0.38560
3822.03572	0.38623
3820.10735	0.38680
3818.17898	0.38725
3816.25060	0.38766
3814.32223	0.38728
3812.39386	0.38659
3810.46548	0.38635
3808.53711	0.38631
3806.60874	0.38604
3804.68037	0.38598
3802.75199	0.38667
3800.82362	0.38741
3798.89525	0.38770
3796.96687	0.38771
3795.03850	0.38700
3793.11013	0.38622
3791.18175	0.38594
3789.25338	0.38596
3787.32501	0.38630
3785.39663	0.38657
3783.46826	0.38669
3781.53989	0.38714
3779.61151	0.38750
3777.68314	0.38714
3775.75477	0.38685
3773.82639	0.38717
3771.89802	0.38756
3769.96965	0.38765
3768.04127	0.38752
3766.11290	0.38738
3764.18453	0.38712
3762.25615	0.38681
3760.32778	0.38679
3758.39941	0.38670
3756.47103	0.38607
3754.54266	0.38543
3752.61429	0.38557
3750.68591	0.38620
3748.75754	0.38634
3746.82917	0.38641
3744.90080	0.38564
3742.97242	0.38345
3741.04405	0.38200
3739.11568	0.38167
3737.18730	0.38159
3735.25893	0.38131
3733.33056	0.38040
3731.40218	0.37908
3729.47381	0.37826
3727.54544	0.37768
3725.61706	0.37684
3723.68869	0.37577
3721.76032	0.37443
3719.83194	0.37274
3717.90357	0.37083
3715.97520	0.36940
3714.04682	0.36889
3712.11845	0.36881
3710.19008	0.36713
3708.26170	0.36389
3706.33333	0.36097
3704.40496	0.35885
3702.47658	0.35715
3700.54821	0.35477
3698.61984	0.35165
3696.69146	0.34816
3694.76309	0.34480
3692.83472	0.34207
3690.90635	0.33897
3688.97797	0.33285
3687.04960	0.32431
3685.12123	0.31694
3683.19285	0.31033
3681.26448	0.30333
3679.33611	0.29640
3677.40773	0.28915
3675.47936	0.27883
3673.55099	0.26815
3671.62261	0.26004
3669.69424	0.24993
3667.76587	0.23894
3665.83749	0.22995
3663.90912	0.22086
3661.98075	0.21119
3660.05237	0.20199
3658.12400	0.19316
3656.19563	0.18308
3654.26725	0.17359
3652.33888	0.16629
3650.41051	0.15791
3648.48213	0.14656
3646.55376	0.13640
3644.62539	0.12887
3642.69701	0.12205
3640.76864	0.11498
3638.84027	0.10779
3636.91189	0.10090
3634.98352	0.09471
3633.05515	0.08949
3631.12678	0.08499
3629.19840	0.07907
3627.27003	0.07207
3625.34166	0.06714
3623.41328	0.06328
3621.48491	0.05960
3619.55654	0.05560
3617.62816	0.05171
3615.69979	0.04854
3613.77142	0.04525
3611.84304	0.04182
3609.91467	0.03905
3607.98630	0.03645
3606.05792	0.03344
3604.12955	0.03064
3602.20118	0.02851
3600.27280	0.02710
3598.34443	0.02590
3596.41606	0.02406
3594.48768	0.02146
3592.55931	0.01894
3590.63094	0.01742
3588.70256	0.01658
3586.77419	0.01550
3584.84582	0.01415
3582.91744	0.01318
3580.98907	0.01218
3579.06070	0.01056
3577.13233	0.00913
3575.20395	0.00854
3573.27558	0.00802
3571.34721	0.00712
3569.41883	0.00642
3567.49046	0.00619
3565.56209	0.00604
3563.63371	0.00590
3561.70534	0.00561
3559.77697	0.00486
3557.84859	0.00388
3555.92022	0.00330
3553.99185	0.00300
3552.06347	0.00265
3550.13510	0.00237
3548.20673	0.00189
3546.27835	0.00156
3544.34998	0.00153
3542.42161	0.00118
3540.49323	0.00122
3538.56486	0.00114
3536.63649	0.00105
3534.70811	0.00086
3532.77974	0.00056
3530.85137	0.00064
3528.92299	0.00045
3526.99462	0.00063
3525.06625	0.00083
3523.13787	0.00088
3521.20950	0.00095
3519.28113	0.00072
3517.35276	0.00063
3515.42438	0.00106
3513.49601	0.00116
3511.56764	0.00067
3509.63926	0.00074
3507.71089	0.00105
3505.78252	0.00130
3503.85414	0.00129
3501.92577	0.00117
3499.99740	0.00105
3498.06902	0.00069
3496.14065	0.00054
3494.21228	0.00074
3492.28390	0.00070
3490.35553	0.00088
3488.42716	0.00126
3486.49878	0.00121
3484.57041	0.00088
3482.64204	0.00060
3480.71366	0.00023
3478.78529	0.00017
3476.85692	0.00050
3474.92854	0.00075
3473.00017	0.00065
3471.07180	0.00054
3469.14342	0.00090
3467.21505	0.00156
3465.28668	0.00180
3463.35831	0.00120
3461.42993	0.00039
3459.50156	0.00065
3457.57319	0.00072
3455.64481	0.00060
3453.71644	0.00082
3451.78807	0.00122
3449.85969	0.00147
3447.93132	0.00122
3446.00295	0.00092
3444.07457	0.00091
3442.14620	0.00086
3440.21783	0.00098
3438.28945	0.00122
3436.36108	0.00112
3434.43271	0.00073
3432.50433	0.00061
3430.57596	0.00078
3428.64759	0.00082
3426.71921	0.00100
3424.79084	0.00105
3422.86247	0.00086
3420.93409	0.00105
3419.00572	0.00106
3417.07735	0.00103
3415.14897	0.00120
3413.22060	0.00118
3411.29223	0.00092
3409.36385	0.00084
3407.43548	0.00097
3405.50711	0.00092
3403.57874	0.00056
3401.65036	0.00083
3399.72199	0.00104
3397.79362	0.00102
3395.86524	0.00100
3393.93687	0.00054
3392.00850	0.00043
3390.08012	0.00046
3388.15175	0.00054
3386.22338	0.00054
3384.29500	0.00051
3382.36663	0.00111
3380.43826	0.00149
3378.50988	0.00104
3376.58151	0.00082
3374.65314	0.00062
3372.72476	0.00061
3370.79639	0.00062
3368.86802	0.00059
3366.93964	0.00060
3365.01127	0.00079
3363.08290	0.00098
3361.15452	0.00131
3359.22615	0.00133
3357.29778	0.00095
3355.36940	0.00109
3353.44103	0.00104
3351.51266	0.00103
3349.58428	0.00106
3347.65591	0.00066
3345.72754	0.00046
3343.79917	0.00048
3341.87079	0.00026
3339.94242	0.00083
3338.01405	0.00101
3336.08567	0.00051
3334.15730	0.00043
3332.22893	0.00058
3330.30055	0.00077
3328.37218	0.00066
3326.44381	0.00044
3324.51543	0.00034
3322.58706	0.00056
3320.65869	0.00053
3318.73031	0.00046
3316.80194	0.00046
3314.87357	0.00046
3312.94519	0.00094
3311.01682	0.00069
3309.08845	0.00027
3307.16007	0.00030
3305.23170	0.00057
3303.30333	0.00075
3301.37495	0.00095
3299.44658	0.00075
3297.51821	0.00061
3295.58983	0.00069
3293.66146	0.00045
3291.73309	0.00057
3289.80472	0.00047
3287.87634	0.00042
3285.94797	0.00072
3284.01960	0.00081
3282.09122	0.00078
3280.16285	0.00070
3278.23448	0.00074
3276.30610	0.00090
3274.37773	0.00089
3272.44936	0.00064
3270.52098	0.00088
3268.59261	0.00095
3266.66424	0.00046
3264.73586	0.00072
3262.80749	0.00115
3260.87912	0.00121
3258.95074	0.00093
3257.02237	0.00087
3255.09400	0.00126
3253.16562	0.00130
3251.23725	0.00113
3249.30888	0.00105
3247.38050	0.00068
3245.45213	0.00103
3243.52376	0.00125
3241.59538	0.00113
3239.66701	0.00052
3237.73864	0.00030
3235.81026	0.00064
3233.88189	0.00087
3231.95352	0.00075
3230.02515	0.00077
3228.09677	0.00131
3226.16840	0.00168
3224.24003	0.00137
3222.31165	0.00091
3220.38328	0.00138
3218.45491	0.00120
3216.52653	0.00083
3214.59816	0.00118
3212.66979	0.00122
3210.74141	0.00043
3208.81304	0.00061
3206.88467	0.00075
3204.95629	0.00039
3203.02792	0.00067
3201.09955	0.00115
3199.17117	0.00137
3197.24280	0.00121
3195.31443	0.00097
3193.38605	0.00081
3191.45768	0.00084
3189.52931	0.00088
3187.60093	0.00075
3185.67256	0.00046
3183.74419	0.00054
3181.81581	0.00068
3179.88744	0.00079
3177.95907	0.00118
3176.03070	0.00106
3174.10232	0.00054
3172.17395	0.00047
3170.24558	0.00093
3168.31720	0.00150
3166.38883	0.00125
3164.46046	0.00049
3162.53208	0.00082
3160.60371	0.00089
3158.67534	0.00090
3156.74696	0.00095
3154.81859	0.00087
3152.89022	0.00091
3150.96184	0.00078
3149.03347	0.00073
3147.10510	0.00100
3145.17672	0.00125
3143.24835	0.00126
3141.31998	0.00115
3139.39160	0.00067
3137.46323	0.00035
3135.53486	0.00069
3133.60648	0.00067
3131.67811	0.00078
3129.74974	0.00115
3127.82136	0.00109
3125.89299	0.00123
3123.96462	0.00153
3122.03624	0.00161
3120.10787	0.00112
3118.17950	0.00081
3116.25113	0.00106
3114.32275	0.00094
3112.39438	0.00057
3110.46601	0.00055
3108.53763	0.00075
3106.60926	0.00081
3104.68089	0.00059
3102.75251	0.00075
3100.82414	0.00053
3098.89577	0.00036
3096.96739	0.00037
3095.03902	0.00072
3093.11065	0.00117
3091.18227	0.00102
3089.25390	0.00085
3087.32553	0.00056
3085.39715	0.00079
3083.46878	0.00079
3081.54041	0.00059
3079.61203	0.00059
3077.68366	0.00088
3075.75529	0.00104
3073.82691	0.00109
3071.89854	0.00114
3069.97017	0.00133
3068.04179	0.00171
3066.11342	0.00201
3064.18505	0.00186
3062.25668	0.00142
3060.32830	0.00090
3058.39993	0.00053
3056.47156	0.00065
3054.54318	0.00113
3052.61481	0.00164
3050.68644	0.00188
3048.75806	0.00224
3046.82969	0.00274
3044.90132	0.00288
3042.97294	0.00252
3041.04457	0.00207
3039.11620	0.00196
3037.18782	0.00235
3035.25945	0.00284
3033.33108	0.00299
3031.40270	0.00315
3029.47433	0.00357
3027.54596	0.00380
3025.61758	0.00378
3023.68921	0.00416
3021.76084	0.00482
3019.83246	0.00512
3017.90409	0.00523
3015.97572	0.00534
3014.04734	0.00540
3012.11897	0.00550
3010.19060	0.00555
3008.26222	0.00557
3006.33385	0.00566
3004.40548	0.00579
3002.47711	0.00584
3000.54873	0.00581
2998.62036	0.00578
2996.69199	0.00549
2994.76361	0.00497
2992.83524	0.00453
2990.90687	0.00442
2988.97849	0.00435
2987.05012	0.00379
2985.12175	0.00284
2983.19337	0.00200
2981.26500	0.00159
2979.33663	0.00160
2977.40825	0.00162
2975.47988	0.00145
2973.55151	0.00149
2971.62313	0.00200
2969.69476	0.00252
2967.76639	0.00274
2965.83801	0.00232
2963.90964	0.00120
2961.98127	0.00049
2960.05289	0.00092
2958.12452	0.00177
2956.19615	0.00221
2954.26777	0.00240
2952.33940	0.00193
2950.41103	0.00188
2948.48266	0.00166
2946.55428	0.00140
2944.62591	0.00139
2942.69754	0.00163
2940.76916	0.00171
2938.84079	0.00185
2936.91242	0.00225
2934.98404	0.00210
2933.05567	0.00190
2931.12730	0.00167
2929.19892	0.00174
2927.27055	0.00159
2925.34218	0.00171
2923.41380	0.00218
2921.48543	0.00202
2919.55706	0.00162
2917.62868	0.00143
2915.70031	0.00174
2913.77194	0.00237
2911.84356	0.00281
2909.91519	0.00305
2907.98682	0.00336
2906.05844	0.00358
2904.13007	0.00366
2902.20170	0.00378
2900.27332	0.00390
2898.34495	0.00390
2896.41658	0.00346
2894.48820	0.00296
2892.55983	0.00286
2890.63146	0.00304
2888.70309	0.00319
2886.77471	0.00338
2884.84634	0.00365
2882.91797	0.00372
2880.98959	0.00347
2879.06122	0.00322
2877.13285	0.00331
2875.20447	0.00344
2873.27610	0.00331
2871.34773	0.00340
2869.41935	0.00393
2867.49098	0.00473
2865.56261	0.00547
2863.63423	0.00611
2861.70586	0.00689
2859.77749	0.00758
2857.84911	0.00788
2855.92074	0.00818
2853.99237	0.00899
2852.06399	0.01017
2850.13562	0.01159
2848.20725	0.01301
2846.27887	0.01422
2844.35050	0.01517
2842.42213	0.01582
2840.49375	0.01644
2838.56538	0.01740
2836.63701	0.01853
2834.70863	0.01945
2832.78026	0.02019
2830.85189	0.02112
2828.92352	0.02215
2826.99514	0.02278
2825.06677	0.02312
2823.13840	0.02385
2821.21002	0.02512
2819.28165	0.02637
2817.35328	0.02729
2815.42490	0.02807
2813.49653	0.02883
2811.56816	0.02961
2809.63978	0.03059
2807.71141	0.03172
2805.78304	0.03270
2803.85466	0.03365
2801.92629	0.03482
2799.99792	0.03600
2798.06954	0.03697
2796.14117	0.03783
2794.21280	0.03869
2792.28442	0.03976
2790.35605	0.04115
2788.42768	0.04245
2786.49930	0.04316
2784.57093	0.04353
2782.64256	0.04441
2780.71418	0.04568
2778.78581	0.04649
2776.85744	0.04690
2774.92907	0.04766
2773.00069	0.04870
2771.07232	0.04941
2769.14395	0.04980
2767.21557	0.05023
2765.28720	0.05075
2763.35883	0.05140
2761.43045	0.05233
2759.50208	0.05345
2757.57371	0.05451
2755.64533	0.05539
2753.71696	0.05593
2751.78859	0.05631
2749.86021	0.05713
2747.93184	0.05836
2746.00347	0.05921
2744.07509	0.05954
2742.14672	0.05992
2740.21835	0.06069
2738.28997	0.06169
2736.36160	0.06252
2734.43323	0.06309
2732.50485	0.06354
2730.57648	0.06401
2728.64811	0.06463
2726.71973	0.06546
2724.79136	0.06622
2722.86299	0.06689
2720.93461	0.06786
2719.00624	0.06914
2717.07787	0.07038
2715.14950	0.07151
2713.22112	0.07259
2711.29275	0.07359
2709.36438	0.07453
2707.43600	0.07549
2705.50763	0.07654
2703.57926	0.07764
2701.65088	0.07875
2699.72251	0.07973
2697.79414	0.08029
2695.86576	0.08056
2693.93739	0.08119
2692.00902	0.08235
2690.08064	0.08343
2688.15227	0.08403
2686.22390	0.08448
2684.29552	0.08520
2682.36715	0.08624
2680.43878	0.08741
2678.51040	0.08832
2676.58203	0.08897
2674.65366	0.08987
2672.72528	0.09098
2670.79691	0.09176
2668.86854	0.09236
2666.94016	0.09307
2665.01179	0.09387
2663.08342	0.09489
2661.15505	0.09593
2659.22667	0.09657
2657.29830	0.09684
2655.36993	0.09708
2653.44155	0.09745
2651.51318	0.09797
2649.58481	0.09863
2647.65643	0.09915
2645.72806	0.09949
2643.79969	0.10003
2641.87131	0.10069
2639.94294	0.10110
2638.01457	0.10148
2636.08619	0.10205
2634.15782	0.10263
2632.22945	0.10317
2630.30107	0.10359
2628.37270	0.10375
2626.44433	0.10403
2624.51595	0.10470
2622.58758	0.10556
2620.65921	0.10620
2618.73083	0.10657
2616.80246	0.10706
2614.87409	0.10794
2612.94571	0.10896
2611.01734	0.10980
2609.08897	0.11049
2607.16059	0.11121
2605.23222	0.11204
2603.30385	0.11308
2601.37548	0.11415
2599.44710	0.11494
2597.51873	0.11562
2595.59036	0.11639
2593.66198	0.11714
2591.73361	0.11787
2589.80524	0.11847
2587.87686	0.11891
2585.94849	0.11963
2584.02012	0.12061
2582.09174	0.12125
2580.16337	0.12176
2578.23500	0.12276
2576.30662	0.12401
2574.37825	0.12496
2572.44988	0.12573
2570.52150	0.12682
2568.59313	0.12834
2566.66476	0.12993
2564.73638	0.13144
2562.80801	0.13301
2560.87964	0.13468
2558.95126	0.13625
2557.02289	0.13751
2555.09452	0.13859
2553.16614	0.13978
2551.23777	0.14095
2549.30940	0.14185
2547.38103	0.14279
2545.45265	0.14384
2543.52428	0.14475
2541.59591	0.14547
2539.66753	0.14600
2537.73916	0.14634
2535.81079	0.14668
2533.88241	0.14722
2531.95404	0.14796
2530.02567	0.14876
2528.09729	0.14955
2526.16892	0.15020
2524.24055	0.15072
2522.31217	0.15136
2520.38380	0.15213
2518.45543	0.15283
2516.52705	0.15363
2514.59868	0.15466
2512.67031	0.15549
2510.74193	0.15599
2508.81356	0.15650
2506.88519	0.15725
2504.95681	0.15820
2503.02844	0.15919
2501.10007	0.16015
2499.17169	0.16116
2497.24332	0.16220
2495.31495	0.16327
2493.38657	0.16439
2491.45820	0.16556
2489.52983	0.16685
2487.60146	0.16824
2485.67308	0.16959
2483.74471	0.17075
2481.81634	0.17175
2479.88796	0.17281
2477.95959	0.17411
2476.03122	0.17540
2474.10284	0.17629
2472.17447	0.17701
2470.24610	0.17800
2468.31772	0.17943
2466.38935	0.18106
2464.46098	0.18252
2462.53260	0.18378
2460.60423	0.18500
2458.67586	0.18628
2456.74748	0.18760
2454.81911	0.18892
2452.89074	0.19025
2450.96236	0.19167
2449.03399	0.19306
2447.10562	0.19419
2445.17724	0.19520
2443.24887	0.19635
2441.32050	0.19754
2439.39212	0.19863
2437.46375	0.19977
2435.53538	0.20104
2433.60700	0.20214
2431.67863	0.20300
2429.75026	0.20403
2427.82189	0.20532
2425.89351	0.20654
2423.96514	0.20748
2422.03677	0.20830
2420.10839	0.20925
2418.18002	0.21044
2416.25165	0.21170
2414.32327	0.21294
2412.39490	0.21421
2410.46653	0.21543
2408.53815	0.21657
2406.60978	0.21782
2404.68141	0.21925
2402.75303	0.22080
2400.82466	0.22234
2398.89629	0.22390
2396.96791	0.22555
2395.03954	0.22702
2393.11117	0.22807
2391.18279	0.22907
2389.25442	0.23039
2387.32605	0.23177
2385.39767	0.23317
2383.46930	0.23465
2381.54093	0.23585
2379.61255	0.23681
2377.68418	0.23826
2375.75581	0.24039
2373.82744	0.24245
2371.89906	0.24435
2369.97069	0.24680
2368.04232	0.24963
2366.11394	0.25207
2364.18557	0.25458
2362.25720	0.25723
2360.32882	0.25867
2358.40045	0.25925
2356.47208	0.26025
2354.54370	0.26082
2352.61533	0.25979
2350.68696	0.25843
2348.75858	0.25826
2346.83021	0.25933
2344.90184	0.26121
2342.97346	0.26344
2341.04509	0.26532
2339.11672	0.26591
2337.18834	0.26521
2335.25997	0.26466
2333.33160	0.26529
2331.40322	0.26669
2329.47485	0.26805
2327.54648	0.26895
2325.61810	0.26944
2323.68973	0.26986
2321.76136	0.27011
2319.83298	0.27018
2317.90461	0.27058
2315.97624	0.27124
2314.04787	0.27198
2312.11949	0.27286
2310.19112	0.27388
2308.26275	0.27488
2306.33437	0.27578
2304.40600	0.27662
2302.47763	0.27735
2300.54925	0.27789
2298.62088	0.27832
2296.69251	0.27874
2294.76413	0.27924
2292.83576	0.27995
2290.90739	0.28068
2288.97901	0.28112
2287.05064	0.28130
2285.12227	0.28150
2283.19389	0.28185
2281.26552	0.28231
2279.33715	0.28268
2277.40877	0.28289
2275.48040	0.28311
2273.55203	0.28344
2271.62365	0.28388
2269.69528	0.28428
2267.76691	0.28438
2265.83853	0.28442
2263.91016	0.28491
2261.98179	0.28567
2260.05342	0.28619
2258.12504	0.28653
2256.19667	0.28698
2254.26830	0.28753
2252.33992	0.28806
2250.41155	0.28864
2248.48318	0.28941
2246.55480	0.29024
2244.62643	0.29086
2242.69806	0.29118
2240.76968	0.29121
2238.84131	0.29105
2236.91294	0.29097
2234.98456	0.29110
2233.05619	0.29126
2231.12782	0.29146
2229.19944	0.29168
2227.27107	0.29178
2225.34270	0.29171
2223.41432	0.29145
2221.48595	0.29111
2219.55758	0.29090
2217.62920	0.29067
2215.70083	0.29031
2213.77246	0.29004
2211.84408	0.28991
2209.91571	0.28978
2207.98734	0.28961
2206.05896	0.28955
2204.13059	0.28953
2202.20222	0.28936
2200.27385	0.28899
2198.34547	0.28850
2196.41710	0.28819
2194.48873	0.28814
2192.56035	0.28823
2190.63198	0.28835
2188.70361	0.28843
2186.77523	0.28838
2184.84686	0.28832
2182.91849	0.28844
2180.99011	0.28870
2179.06174	0.28894
2177.13337	0.28912
2175.20499	0.28908
2173.27662	0.28881
2171.34825	0.28860
2169.41987	0.28862
2167.49150	0.28877
2165.56313	0.28885
2163.63475	0.28868
2161.70638	0.28833
2159.77801	0.28814
2157.84963	0.28819
2155.92126	0.28833
2153.99289	0.28846
2152.06451	0.28857
2150.13614	0.28857
2148.20777	0.28841
2146.27940	0.28827
2144.35102	0.28820
2142.42265	0.28812
2140.49428	0.28809
2138.56590	0.28814
2136.63753	0.28811
2134.70916	0.28816
2132.78078	0.28850
2130.85241	0.28886
2128.92404	0.28892
2126.99566	0.28901
2125.06729	0.28954
2123.13892	0.29030
2121.21054	0.29098
2119.28217	0.29172
2117.35380	0.29256
2115.42542	0.29319
2113.49705	0.29362
2111.56868	0.29424
2109.64030	0.29503
2107.71193	0.29581
2105.78356	0.29658
2103.85518	0.29725
2101.92681	0.29780
2099.99844	0.29825
2098.07006	0.29856
2096.14169	0.29890
2094.21332	0.29946
2092.28494	0.30005
2090.35657	0.30037
2088.42820	0.30041
2086.49983	0.30035
2084.57145	0.30041
2082.64308	0.30069
2080.71471	0.30090
2078.78633	0.30069
2076.85796	0.30032
2074.92959	0.30014
2073.00121	0.29998
2071.07284	0.29978
2069.14447	0.29955
2067.21609	0.29944
2065.28772	0.29973
2063.35935	0.30024
2061.43097	0.30061
2059.50260	0.30088
2057.57423	0.30128
2055.64585	0.30188
2053.71748	0.30254
2051.78911	0.30334
2049.86073	0.30438
2047.93236	0.30542
2046.00399	0.30631
2044.07561	0.30719
2042.14724	0.30818
2040.21887	0.30932
2038.29049	0.31060
2036.36212	0.31177
2034.43375	0.31275
2032.50538	0.31366
2030.57700	0.31454
2028.64863	0.31545
2026.72026	0.31627
2024.79188	0.31701
2022.86351	0.31785
2020.93514	0.31877
2019.00676	0.31965
2017.07839	0.32060
2015.15002	0.32155
2013.22164	0.32237
2011.29327	0.32324
2009.36490	0.32420
2007.43652	0.32509
2005.50815	0.32588
2003.57978	0.32660
2001.65140	0.32730
1999.72303	0.32804
1997.79466	0.32875
1995.86628	0.32935
1993.93791	0.32986
1992.00954	0.33017
1990.08116	0.33027
1988.15279	0.33030
1986.22442	0.33020
1984.29604	0.32999
1982.36767	0.32986
1980.43930	0.32993
1978.51092	0.33016
1976.58255	0.33035
1974.65418	0.33047
1972.72581	0.33078
1970.79743	0.33136
1968.86906	0.33202
1966.94069	0.33260
1965.01231	0.33321
1963.08394	0.33395
1961.15557	0.33466
1959.22719	0.33536
1957.29882	0.33640
1955.37045	0.33780
1953.44207	0.33920
1951.51370	0.34041
1949.58533	0.34156
1947.65695	0.34279
1945.72858	0.34413
1943.80021	0.34557
1941.87183	0.34679
1939.94346	0.34754
1938.01509	0.34808
1936.08671	0.34867
1934.15834	0.34916
1932.22997	0.34954
1930.30159	0.34996
1928.37322	0.35038
1926.44485	0.35067
1924.51647	0.35076
1922.58810	0.35073
1920.65973	0.35075
1918.73135	0.35068
1916.80298	0.35043
1914.87461	0.35028
1912.94624	0.35025
1911.01786	0.35029
1909.08949	0.35038
1907.16112	0.35020
1905.23274	0.34982
1903.30437	0.34958
1901.37600	0.34936
1899.44762	0.34917
1897.51925	0.34921
1895.59088	0.34932
1893.66250	0.34945
1891.73413	0.34993
1889.80576	0.35062
1887.87738	0.35105
1885.94901	0.35127
1884.02064	0.35172
1882.09226	0.35249
1880.16389	0.35321
1878.23552	0.35359
1876.30714	0.35398
1874.37877	0.35453
1872.45040	0.35503
1870.52202	0.35558
1868.59365	0.35614
1866.66528	0.35629
1864.73690	0.35592
1862.80853	0.35530
1860.88016	0.35471
1858.95179	0.35425
1857.02341	0.35367
1855.09504	0.35286
1853.16667	0.35203
1851.23829	0.35128
1849.30992	0.35071
1847.38155	0.35037
1845.45317	0.34999
1843.52480	0.34917
1841.59643	0.34822
1839.66805	0.34758
1837.73968	0.34706
1835.81131	0.34649
1833.88293	0.34606
1831.95456	0.34593
1830.02619	0.34570
1828.09781	0.34510
1826.16944	0.34456
1824.24107	0.34390
1822.31269	0.34296
1820.38432	0.34211
1818.45595	0.34122
1816.52757	0.33997
1814.59920	0.33856
1812.67083	0.33732
1810.74245	0.33590
1808.81408	0.33394
1806.88571	0.33156
1804.95733	0.32913
1803.02896	0.32679
1801.10059	0.32411
1799.17222	0.32070
1797.24384	0.31691
1795.31547	0.31311
1793.38710	0.30882
1791.45872	0.30364
1789.53035	0.29863
1787.60198	0.29402
1785.67360	0.28921
1783.74523	0.28445
1781.81686	0.28015
1779.88848	0.27591
1777.96011	0.27175
1776.03174	0.26811
1774.10336	0.26467
1772.17499	0.26028
1770.24662	0.25512
1768.31824	0.25025
1766.38987	0.24550
1764.46150	0.24103
1762.53312	0.23599
1760.60475	0.22969
1758.67638	0.22290
1756.74800	0.21501
1754.81963	0.20669
1752.89126	0.19860
1750.96288	0.18857
1749.03451	0.17617
1747.10614	0.16398
1745.17777	0.15265
1743.24939	0.14183
1741.32102	0.13100
1739.39265	0.11987
1737.46427	0.11056
1735.53590	0.10202
1733.60753	0.09074
1731.67915	0.08046
1729.75078	0.07241
1727.82241	0.06423
1725.89403	0.05641
1723.96566	0.04921
1722.03729	0.04296
1720.10891	0.03765
1718.18054	0.03175
1716.25217	0.02511
1714.32379	0.02026
1712.39542	0.01696
1710.46705	0.01430
1708.53867	0.01159
1706.61030	0.00819
1704.68193	0.00484
1702.75355	0.00292
1700.82518	0.00197
1698.89681	0.00102
1696.96843	0.00031
1695.04006	0.00030
1693.11169	0.00072
1691.18331	0.00083
1689.25494	0.00061
1687.32657	0.00090
1685.39820	0.00120
1683.46982	0.00081
1681.54145	0.00087
1679.61308	0.00104
1677.68470	0.00072
1675.75633	0.00059
1673.82796	0.00069
1671.89958	0.00090
1669.97121	0.00083
1668.04284	0.00051
1666.11446	0.00033
1664.18609	0.00043
1662.25772	0.00049
1660.32934	0.00056
1658.40097	0.00049
1656.47260	0.00061
1654.54422	0.00121
1652.61585	0.00169
1650.68748	0.00132
1648.75910	0.00089
1646.83073	0.00064
1644.90236	0.00085
1642.97398	0.00089
1641.04561	0.00095
1639.11724	0.00088
1637.18886	0.00078
1635.26049	0.00084
1633.33212	0.00077
1631.40375	0.00068
1629.47537	0.00048
1627.54700	0.00050
1625.61863	0.00056
1623.69025	0.00066
1621.76188	0.00075
1619.83351	0.00079
1617.90513	0.00075
1615.97676	0.00082
1614.04839	0.00051
1612.12001	0.00026
1610.19164	0.00056
1608.26327	0.00084
1606.33489	0.00060
1604.40652	0.00051
1602.47815	0.00034
1600.54977	0.00034
1598.62140	0.00022
1596.69303	0.00036
1594.76465	0.00055
1592.83628	0.00061
1590.90791	0.00060
1588.97953	0.00064
1587.05116	0.00064
1585.12279	0.00087
1583.19441	0.00076
1581.26604	0.00049
1579.33767	0.00062
1577.40929	0.00087
1575.48092	0.00082
1573.55255	0.00052
1571.62418	0.00040
1569.69580	0.00067
1567.76743	0.00063
1565.83906	0.00079
1563.91068	0.00101
1561.98231	0.00101
1560.05394	0.00102
1558.12556	0.00109
1556.19719	0.00101
1554.26882	0.00067
1552.34044	0.00030
1550.41207	0.00056
1548.48370	0.00042
1546.55532	0.00039
1544.62695	0.00081
1542.69858	0.00070
1540.77020	0.00046
1538.84183	0.00090
1536.91346	0.00104
1534.98508	0.00079
1533.05671	0.00037
1531.12834	0.00043
1529.19996	0.00070
1527.27159	0.00089
1525.34322	0.00101
1523.41484	0.00082
1521.48647	0.00070
1519.55810	0.00076
1517.62972	0.00028
1515.70135	0.00021
1513.77298	0.00042
1511.84461	0.00054
1509.91623	0.00051
1507.98786	0.00055
1506.05949	0.00059
1504.13111	0.00060
1502.20274	0.00052
1500.27437	0.00052
1498.34599	0.00042
1496.41762	0.00057
1494.48925	0.00068
1492.56087	0.00064
1490.63250	0.00025
1488.70413	0.00046
1486.77575	0.00072
1484.84738	0.00095
1482.91901	0.00115
1480.99063	0.00119
1479.06226	0.00114
1477.13389	0.00143
1475.20551	0.00164
1473.27714	0.00105
1471.34877	0.00040
1469.42039	0.00057
1467.49202	0.00066
1465.56365	0.00044
1463.63527	0.00055
1461.70690	0.00094
1459.77853	0.00104
1457.85016	0.00122
1455.92178	0.00129
1453.99341	0.00075
1452.06504	0.00061
1450.13666	0.00072
1448.20829	0.00078
1446.27992	0.00067
1444.35154	0.00065
1442.42317	0.00085
1440.49480	0.00085
1438.56642	0.00084
1436.63805	0.00056
1434.70968	0.00058
1432.78130	0.00043
1430.85293	0.00050
1428.92456	0.00062
1426.99618	0.00059
1425.06781	0.00045
1423.13944	0.00056
1421.21106	0.00065
1419.28269	0.00072
1417.35432	0.00071
1415.42594	0.00042
1413.49757	0.00055
1411.56920	0.00064
1409.64082	0.00072
1407.71245	0.00080
1405.78408	0.00066
1403.85570	0.00032
1401.92733	0.00060
1399.99896	0.00041
1398.07059	0.00063
1396.14221	0.00083
1394.21384	0.00037
1392.28547	0.00051
1390.35709	0.00096
1388.42872	0.00121
1386.50035	0.00097
1384.57197	0.00048
1382.64360	0.00059
1380.71523	0.00097
1378.78685	0.00121
1376.85848	0.00103
1374.93011	0.00064
1373.00173	0.00050
1371.07336	0.00114
1369.14499	0.00139
1367.21661	0.00123
1365.28824	0.00094
1363.35987	0.00090
1361.43149	0.00079
1359.50312	0.00106
1357.57475	0.00100
1355.64637	0.00085
1353.71800	0.00085
1351.78963	0.00105
1349.86125	0.00090
1347.93288	0.00079
1346.00451	0.00097
1344.07614	0.00108
1342.14776	0.00121
1340.21939	0.00152
1338.29102	0.00182
1336.36264	0.00177
1334.43427	0.00142
1332.50590	0.00099
1330.57752	0.00073
1328.64915	0.00082
1326.72078	0.00103
1324.79240	0.00111
1322.86403	0.00090
1320.93566	0.00071
1319.00728	0.00098
1317.07891	0.00105
1315.15054	0.00108
1313.22216	0.00112
1311.29379	0.00060
1309.36542	0.00032
1307.43704	0.00043
1305.50867	0.00047
1303.58030	0.00038
1301.65192	0.00056
1299.72355	0.00091
1297.79518	0.00100
1295.86680	0.00108
1293.93843	0.00097
1292.01006	0.00098
1290.08168	0.00107
1288.15331	0.00101
1286.22494	0.00097
1284.29657	0.00082
1282.36819	0.00058
1280.43982	0.00058
1278.51145	0.00028
1276.58307	0.00077
1274.65470	0.00086
1272.72633	0.00071
1270.79795	0.00056
1268.86958	0.00074
1266.94121	0.00095
1265.01283	0.00096
1263.08446	0.00101
1261.15609	0.00093
1259.22771	0.00059
1257.29934	0.00040
1255.37097	0.00056
1253.44259	0.00083
1251.51422	0.00103
1249.58585	0.00096
1247.65747	0.00084
1245.72910	0.00097
1243.80073	0.00125
1241.87235	0.00160
1239.94398	0.00213
1238.01561	0.00229
1236.08723	0.00201
1234.15886	0.00155
1232.23049	0.00134
1230.30212	0.00119
1228.37374	0.00078
1226.44537	0.00056
1224.51700	0.00127
1222.58862	0.00238
1220.66025	0.00292
1218.73188	0.00302
1216.80350	0.00306
1214.87513	0.00228
1212.94676	0.00138
1211.01838	0.00092
1209.09001	0.00068
1207.16164	0.00150
1205.23326	0.00192
1203.30489	0.00205
1201.37652	0.00238
1199.44814	0.00297
1197.51977	0.00330
1195.59140	0.00335
1193.66302	0.00364
1191.73465	0.00403
1189.80628	0.00412
1187.87790	0.00399
1185.94953	0.00392
1184.02116	0.00392
1182.09278	0.00396
1180.16441	0.00365
1178.23604	0.00340
1176.30766	0.00311
1174.37929	0.00229
1172.45092	0.00139
1170.52255	0.00054
1168.59417	0.00106
1166.66580	0.00201
1164.73743	0.00226
1162.80905	0.00204
1160.88068	0.00166
1158.95231	0.00213
1157.02393	0.00226
1155.09556	0.00113
1153.16719	0.00064
1151.23881	0.00091
1149.31044	0.00095
1147.38207	0.00125
1145.45369	0.00172
1143.52532	0.00181
1141.59695	0.00242
1139.66857	0.00308
1137.74020	0.00314
1135.81183	0.00280
1133.88345	0.00165
1131.95508	0.00156
1130.02671	0.00235
1128.09833	0.00273
1126.16996	0.00274
1124.24159	0.00204
1122.31321	0.00126
1120.38484	0.00116
1118.45647	0.00113
1116.52809	0.00080
1114.59972	0.00147
1112.67135	0.00200
1110.74298	0.00188
1108.81460	0.00131
1106.88623	0.00092
1104.95786	0.00130
1103.02948	0.00136
1101.10111	0.00120
1099.17274	0.00146
1097.24436	0.00163
1095.31599	0.00164
1093.38762	0.00116
1091.45924	0.00096
1089.53087	0.00120
1087.60250	0.00062
1085.67412	0.00079
1083.74575	0.00118
1081.81738	0.00147
1079.88900	0.00136
1077.96063	0.00113
1076.03226	0.00126
1074.10388	0.00138
1072.17551	0.00104
1070.24714	0.00118
1068.31876	0.00107
1066.39039	0.00080
1064.46202	0.00093
1062.53364	0.00134
1060.60527	0.00146
1058.67690	0.00184
1056.74853	0.00197
1054.82015	0.00203
1052.89178	0.00183
1050.96341	0.00138
1049.03503	0.00157
1047.10666	0.00233
1045.17829	0.00201
1043.24991	0.00067
1041.32154	0.00099
1039.39317	0.00112
1037.46479	0.00063
1035.53642	0.00072
1033.60805	0.00082
1031.67967	0.00058
1029.75130	0.00045
1027.82293	0.00096
1025.89455	0.00104
1023.96618	0.00116
1022.03781	0.00132
1020.10943	0.00092
1018.18106	0.00106
1016.25269	0.00118
1014.32431	0.00094
1012.39594	0.00108
1010.46757	0.00127
1008.53919	0.00111
1006.61082	0.00128
1004.68245	0.00213
1002.75407	0.00342
1000.82570	0.00517
998.89733	0.00745
996.96896	0.00983
995.04058	0.01202
993.11221	0.01460
991.18384	0.01778
989.25546	0.02052
987.32709	0.02201
985.39872	0.02262
983.47034	0.02253
981.54197	0.02144
979.61360	0.01963
977.68522	0.01805
975.75685	0.01774
973.82848	0.01932
971.90010	0.02287
969.97173	0.02800
968.04336	0.03385
966.11498	0.03875
964.18661	0.04097
962.25824	0.03935
960.32986	0.03340
958.40149	0.02453
956.47312	0.01632
954.54474	0.01229
952.61637	0.01356
950.68800	0.01910
948.75962	0.02698
946.83125	0.03538
944.90288	0.04303
942.97451	0.05001
941.04613	0.05705
939.11776	0.06396
937.18939	0.06958
935.26101	0.07357
933.33264	0.07648
931.40427	0.07841
929.47589	0.07935
927.54752	0.07918
925.61915	0.07735
923.69077	0.07465
921.76240	0.07312
919.83403	0.07405
917.90565	0.07690
915.97728	0.08000
914.04891	0.08223
912.12053	0.08271
910.19216	0.08031
908.26379	0.07516
906.33541	0.06851
904.40704	0.06133
902.47867	0.05455
900.55029	0.04931
898.62192	0.04622
896.69355	0.04544
894.76517	0.04676
892.83680	0.04955
890.90843	0.05357
888.98005	0.05853
887.05168	0.06367
885.12331	0.06859
883.19494	0.07303
881.26656	0.07632
879.33819	0.07804
877.40982	0.07863
875.48144	0.07855
873.55307	0.07816
871.62470	0.07823
869.69632	0.07881
867.76795	0.07940
865.83958	0.07979
863.91120	0.07938
861.98283	0.07822
860.05446	0.07688
858.12608	0.07485
856.19771	0.07199
854.26934	0.06942
852.34096	0.06794
850.41259	0.06729
848.48422	0.06697
846.55584	0.06705
844.62747	0.06680
842.69910	0.06489
840.77072	0.06191
838.84235	0.05908
836.91398	0.05648
834.98560	0.05470
833.05723	0.05404
831.12886	0.05282
829.20049	0.05013
827.27211	0.04755
825.34374	0.04610
823.41537	0.04507
821.48699	0.04412
819.55862	0.04316
817.63025	0.04219
815.70187	0.04186
813.77350	0.04227
811.84513	0.04291
809.91675	0.04269
807.98838	0.04059
806.06001	0.03795
804.13163	0.03647
802.20326	0.03517
800.27489	0.03299
798.34651	0.03109
796.41814	0.02979
794.48977	0.02764
792.56139	0.02460
790.63302	0.02225
788.70465	0.02108
786.77627	0.02084
784.84790	0.02086
782.91953	0.02018
780.99115	0.01927
779.06278	0.01899
777.13441	0.01865
775.20603	0.01733
773.27766	0.01538
771.34929	0.01405
769.42092	0.01366
767.49254	0.01342
765.56417	0.01289
763.63580	0.01212
761.70742	0.01113
759.77905	0.01000
757.85068	0.00865
755.92230	0.00746
753.99393	0.00712
752.06556	0.00740
750.13718	0.00737
748.20881	0.00685
746.28044	0.00650
744.35206	0.00657
742.42369	0.00623
740.49532	0.00590
738.56694	0.00616
736.63857	0.00606
734.71020	0.00551
732.78182	0.00527
730.85345	0.00563
728.92508	0.00675
726.99670	0.00707
725.06833	0.00677
723.13996	0.00682
721.21158	0.00677
719.28321	0.00603
717.35484	0.00595
715.42647	0.00678
713.49809	0.00758
711.56972	0.00802
709.64135	0.00741
707.71297	0.00594
705.78460	0.00431
703.85623	0.00323
701.92785	0.00296
699.99948	0.00378
698.07111	0.00372
696.14273	0.00288
694.21436	0.00216
692.28599	0.00279
690.35761	0.00450
688.42924	0.00519
686.50087	0.00575
684.57249	0.00731
682.64412	0.00731
680.71575	0.00698
678.78737	0.00807
676.85900	0.00864
674.93063	0.00719
673.00225	0.00555
671.07388	0.00582
669.14551	0.00693
667.21713	0.00722
665.28876	0.00607
663.36039	0.00568
661.43201	0.00501
659.50364	0.00545
657.57527	0.00713
655.64690	0.00782
653.71852	0.00620
651.79015	0.00316
649.86178	0.00437
647.93340	0.00619
646.00503	0.00712
644.07666	0.00852
642.14828	0.00713
640.21991	0.00279
638.29154	0.00382
636.36316	0.00477
634.43479	0.00499
632.50642	0.00322
630.57804	0.00517
628.64967	0.00794
626.72130	0.01006
624.79292	0.01173
622.86455	0.01079
620.93618	0.00651
619.00780	0.00386
617.07943	0.00513
615.15106	0.00779
613.22268	0.01020
611.29431	0.00731
609.36594	0.00642
607.43756	0.00951
605.50919	0.01378
603.58082	0.01092
601.65244	0.01098
599.72407	0.00967
