3997.51769	0.25483
3995.58931	0.25473
3993.66094	0.25512
3991.73257	0.25594
3989.80419	0.25670
3987.87582	0.25693
3985.94745	0.25683
3984.01907	0.25685
3982.09070	0.25734
3980.16233	0.25819
3978.23396	0.25889
3976.30558	0.25913
3974.37721	0.25886
3972.44884	0.25842
3970.52046	0.25861
3968.59209	0.25964
3966.66372	0.26065
3964.73534	0.26107
3962.80697	0.26144
3960.87860	0.26190
3958.95022	0.26223
3957.02185	0.26276
3955.09348	0.26359
3953.16510	0.26456
3951.23673	0.26560
3949.30836	0.26654
3947.37998	0.26710
3945.45161	0.26725
3943.52324	0.26729
3941.59486	0.26744
3939.66649	0.26759
3937.73812	0.26782
3935.80974	0.26846
3933.88137	0.26936
3931.95300	0.27013
3930.02462	0.27056
3928.09625	0.27097
3926.16788	0.27186
3924.23950	0.27287
3922.31113	0.27318
3920.38276	0.27313
3918.45439	0.27344
3916.52601	0.27386
3914.59764	0.27376
3912.66927	0.27349
3910.74089	0.27391
3908.81252	0.27515
3906.88415	0.27678
3904.95577	0.27848
3903.02740	0.27968
3901.09903	0.28007
3899.17065	0.27975
3897.24228	0.27947
3895.31391	0.28024
3893.38553	0.28169
3891.45716	0.28252
3889.52879	0.28262
3887.60041	0.28321
3885.67204	0.28422
3883.74367	0.28460
3881.81529	0.28451
3879.88692	0.28445
3877.95855	0.28471
3876.03017	0.28553
3874.10180	0.28661
3872.17343	0.28753
3870.24505	0.28847
3868.31668	0.28925
3866.38831	0.28972
3864.45994	0.29014
3862.53156	0.29004
3860.60319	0.28955
3858.67482	0.28953
3856.74644	0.29005
3854.81807	0.29093
3852.88970	0.29194
3850.96132	0.29204
3849.03295	0.29143
3847.10458	0.29119
3845.17620	0.29205
3843.24783	0.29343
3841.31946	0.29431
3839.39108	0.29465
3837.46271	0.29482
3835.53434	0.29502
3833.60596	0.29510
3831.67759	0.29476
3829.74922	0.29445
3827.82084	0.29491
3825.89247	0.29588
3823.96410	0.29686
3822.03572	0.29784
3820.10735	0.29809
3818.17898	0.29780
3816.25060	0.29799
3814.32223	0.29772
3812.39386	0.29670
3810.46548	0.29618
3808.53711	0.29664
3806.60874	0.29726
3804.68037	0.29752
3802.75199	0.29816
3800.82362	0.29894
3798.89525	0.29916
3796.96687	0.29935
3795.03850	0.29912
3793.11013	0.29836
3791.18175	0.29770
3789.25338	0.29723
3787.32501	0.29692
3785.39663	0.29676
3783.46826	0.29684
3781.53989	0.29724
3779.61151	0.29747
3777.68314	0.29708
3775.75477	0.29655
3773.82639	0.29646
3771.89802	0.29667
3769.96965	0.29657
3768.04127	0.29613
3766.11290	0.29597
3764.18453	0.29592
3762.25615	0.29587
3760.32778	0.29608
3758.39941	0.29615
3756.47103	0.29602
3754.54266	0.29631
3752.61429	0.29707
3750.68591	0.29732
3748.75754	0.29647
3746.82917	0.29587
3744.90080	0.29574
3742.97242	0.29496
3741.04405	0.29339
3739.11568	0.29206
3737.18730	0.29174
3735.25893	0.29247
3733.33056	0.29220
3731.40218	0.29019
3729.47381	0.28841
3727.54544	0.28759
3725.61706	0.28705
3723.68869	0.28601
3721.76032	0.28443
3719.83194	0.28270
3717.90357	0.28095
3715.97520	0.27943
3714.04682	0.27843
3712.11845	0.27790
3710.19008	0.27647
3708.26170	0.27363
3706.33333	0.27072
3704.40496	0.26861
3702.47658	0.26700
3700.54821	0.26452
3698.61984	0.26112
3696.69146	0.25722
3694.76309	0.25324
3692.83472	0.24968
3690.90635	0.24557
3688.97797	0.23926
3687.04960	0.23188
3685.12123	0.22549
3683.19285	0.21955
3681.26448	0.21334
3679.33611	0.20706
3677.40773	0.20021
3675.47936	0.19031
3673.55099	0.18032
3671.62261	0.17329
3669.69424	0.16475
3667.76587	0.15499
3665.83749	0.14664
3663.90912	0.13837
3661.98075	0.13008
3660.05237	0.12250
3658.12400	0.11549
3656.19563	0.10807
3654.26725	0.10108
3652.33888	0.09527
3650.41051	0.08854
3648.48213	0.08001
3646.55376	0.07272
3644.62539	0.06736
3642.69701	0.06266
3640.76864	0.05816
3638.84027	0.05384
3636.91189	0.04966
3634.98352	0.04582
3633.05515	0.04269
3631.12678	0.04001
3629.19840	0.03607
3627.27003	0.03142
3625.34166	0.02850
3623.41328	0.02629
3621.48491	0.02413
3619.55654	0.02198
3617.62816	0.01985
3615.69979	0.01811
3613.77142	0.01676
3611.84304	0.01544
3609.91467	0.01398
3607.98630	0.01234
3606.05792	0.01103
3604.12955	0.01043
3602.20118	0.00981
3600.27280	0.00870
3598.34443	0.00779
3596.41606	0.00734
3594.48768	0.00673
3592.55931	0.00590
3590.63094	0.00535
3588.70256	0.00528
3586.77419	0.00503
3584.84582	0.00438
3582.91744	0.00390
3580.98907	0.00348
3579.06070	0.00304
3577.13233	0.00279
3575.20395	0.00244
3573.27558	0.00193
3571.34721	0.00166
3569.41883	0.00176
3567.49046	0.00195
3565.56209	0.00174
3563.63371	0.00126
3561.70534	0.00104
3559.77697	0.00103
3557.84859	0.00132
3555.92022	0.00110
3553.99185	0.00077
3552.06347	0.00087
3550.13510	0.00110
3548.20673	0.00105
3546.27835	0.00075
3544.34998	0.00066
3542.42161	0.00061
3540.49323	0.00076
3538.56486	0.00071
3536.63649	0.00095
3534.70811	0.00121
3532.77974	0.00111
3530.85137	0.00078
3528.92299	0.00066
3526.99462	0.00079
3525.06625	0.00067
3523.13787	0.00051
3521.20950	0.00044
3519.28113	0.00055
3517.35276	0.00099
3515.42438	0.00101
3513.49601	0.00075
3511.56764	0.00038
3509.63926	0.00076
3507.71089	0.00090
3505.78252	0.00045
3503.85414	0.00074
3501.92577	0.00160
3499.99740	0.00146
3498.06902	0.00110
3496.14065	0.00153
3494.21228	0.00134
3492.28390	0.00045
3490.35553	0.00030
3488.42716	0.00049
3486.49878	0.00043
3484.57041	0.00050
3482.64204	0.00096
3480.71366	0.00122
3478.78529	0.00115
3476.85692	0.00079
3474.92854	0.00048
3473.00017	0.00046
3471.07180	0.00034
3469.14342	0.00084
3467.21505	0.00085
3465.28668	0.00065
3463.35831	0.00072
3461.42993	0.00071
3459.50156	0.00032
3457.57319	0.00044
3455.64481	0.00085
3453.71644	0.00101
3451.78807	0.00084
3449.85969	0.00055
3447.93132	0.00054
3446.00295	0.00065
3444.07457	0.00068
3442.14620	0.00110
3440.21783	0.00125
3438.28945	0.00104
3436.36108	0.00087
3434.43271	0.00062
3432.50433	0.00057
3430.57596	0.00071
3428.64759	0.00086
3426.71921	0.00078
3424.79084	0.00059
3422.86247	0.00069
3420.93409	0.00096
3419.00572	0.00089
3417.07735	0.00080
3415.14897	0.00101
3413.22060	0.00107
3411.29223	0.00085
3409.36385	0.00068
3407.43548	0.00044
3405.50711	0.00047
3403.57874	0.00042
3401.65036	0.00034
3399.72199	0.00030
3397.79362	0.00048
3395.86524	0.00057
3393.93687	0.00014
3392.00850	0.00082
3390.08012	0.00113
3388.15175	0.00096
3386.22338	0.00101
3384.29500	0.00077
3382.36663	0.00062
3380.43826	0.00095
3378.50988	0.00096
3376.58151	0.00118
3374.65314	0.00089
3372.72476	0.00074
3370.79639	0.00064
3368.86802	0.00036
3366.93964	0.00043
3365.01127	0.00094
3363.08290	0.00101
3361.15452	0.00076
3359.22615	0.00060
3357.29778	0.00045
3355.36940	0.00084
3353.44103	0.00110
3351.51266	0.00152
3349.58428	0.00157
3347.65591	0.00102
3345.72754	0.00032
3343.79917	0.00028
3341.87079	0.00039
3339.94242	0.00049
3338.01405	0.00106
3336.08567	0.00152
3334.15730	0.00142
3332.22893	0.00103
3330.30055	0.00091
3328.37218	0.00075
3326.44381	0.00049
3324.51543	0.00072
3322.58706	0.00092
3320.65869	0.00065
3318.73031	0.00047
3316.80194	0.00074
3314.87357	0.00105
3312.94519	0.00095
3311.01682	0.00089
3309.08845	0.00091
3307.16007	0.00073
3305.23170	0.00076
3303.30333	0.00108
3301.37495	0.00140
3299.44658	0.00136
3297.51821	0.00105
3295.58983	0.00070
3293.66146	0.00051
3291.73309	0.00079
3289.80472	0.00083
3287.87634	0.00053
3285.94797	0.00070
3284.01960	0.00040
3282.09122	0.00040
3280.16285	0.00080
3278.23448	0.00107
3276.30610	0.00112
3274.37773	0.00114
3272.44936	0.00085
3270.52098	0.00057
3268.59261	0.00049
3266.66424	0.00081
3264.73586	0.00094
3262.80749	0.00055
3260.87912	0.00026
3258.95074	0.00027
3257.02237	0.00032
3255.09400	0.00049
3253.16562	0.00035
3251.23725	0.00026
3249.30888	0.00047
3247.38050	0.00064
3245.45213	0.00069
3243.52376	0.00062
3241.59538	0.00036
3239.66701	0.00076
3237.73864	0.00108
3235.81026	0.00071
3233.88189	0.00033
3231.95352	0.00068
3230.02515	0.00082
3228.09677	0.00082
3226.16840	0.00067
3224.24003	0.00057
3222.31165	0.00067
3220.38328	0.00106
3218.45491	0.00149
3216.52653	0.00140
3214.59816	0.00094
3212.66979	0.00092
3210.74141	0.00084
3208.81304	0.00068
3206.88467	0.00065
3204.95629	0.00070
3203.02792	0.00089
3201.09955	0.00085
3199.17117	0.00055
3197.24280	0.00037
3195.31443	0.00071
3193.38605	0.00112
3191.45768	0.00129
3189.52931	0.00110
3187.60093	0.00088
3185.67256	0.00116
3183.74419	0.00115
3181.81581	0.00059
3179.88744	0.00116
3177.95907	0.00096
3176.03070	0.00052
3174.10232	0.00043
3172.17395	0.00086
3170.24558	0.00116
3168.31720	0.00116
3166.38883	0.00105
3164.46046	0.00092
3162.53208	0.00071
3160.60371	0.00060
3158.67534	0.00081
3156.74696	0.00087
3154.81859	0.00043
3152.89022	0.00065
3150.96184	0.00122
3149.03347	0.00121
3147.10510	0.00104
3145.17672	0.00086
3143.24835	0.00061
3141.31998	0.00074
3139.39160	0.00058
3137.46323	0.00043
3135.53486	0.00055
3133.60648	0.00069
3131.67811	0.00083
3129.74974	0.00105
3127.82136	0.00085
3125.89299	0.00059
3123.96462	0.00056
3122.03624	0.00083
3120.10787	0.00084
3118.17950	0.00064
3116.25113	0.00061
3114.32275	0.00063
3112.39438	0.00075
3110.46601	0.00081
3108.53763	0.00075
3106.60926	0.00091
3104.68089	0.00077
3102.75251	0.00038
3100.82414	0.00047
3098.89577	0.00057
3096.96739	0.00076
3095.03902	0.00072
3093.11065	0.00058
3091.18227	0.00056
3089.25390	0.00102
3087.32553	0.00117
3085.39715	0.00094
3083.46878	0.00079
3081.54041	0.00068
3079.61203	0.00131
3077.68366	0.00174
3075.75529	0.00148
3073.82691	0.00088
3071.89854	0.00069
3069.97017	0.00077
3068.04179	0.00090
3066.11342	0.00077
3064.18505	0.00061
3062.25668	0.00043
3060.32830	0.00062
3058.39993	0.00075
3056.47156	0.00101
3054.54318	0.00123
3052.61481	0.00092
3050.68644	0.00042
3048.75806	0.00021
3046.82969	0.00059
3044.90132	0.00068
3042.97294	0.00061
3041.04457	0.00083
3039.11620	0.00092
3037.18782	0.00096
3035.25945	0.00115
3033.33108	0.00132
3031.40270	0.00142
3029.47433	0.00143
3027.54596	0.00135
3025.61758	0.00146
3023.68921	0.00177
3021.76084	0.00188
3019.83246	0.00160
3017.90409	0.00144
3015.97572	0.00161
3014.04734	0.00176
3012.11897	0.00184
3010.19060	0.00195
3008.26222	0.00202
3006.33385	0.00201
3004.40548	0.00204
3002.47711	0.00204
3000.54873	0.00175
2998.62036	0.00136
2996.69199	0.00136
2994.76361	0.00177
2992.83524	0.00208
2990.90687	0.00207
2988.97849	0.00189
2987.05012	0.00156
2985.12175	0.00110
2983.19337	0.00076
2981.26500	0.00091
2979.33663	0.00132
2977.40825	0.00178
2975.47988	0.00167
2973.55151	0.00093
2971.62313	0.00106
2969.69476	0.00123
2967.76639	0.00110
2965.83801	0.00081
2963.90964	0.00068
2961.98127	0.00113
2960.05289	0.00131
2958.12452	0.00149
2956.19615	0.00092
2954.26777	0.00091
2952.33940	0.00116
2950.41103	0.00147
2948.48266	0.00195
2946.55428	0.00201
2944.62591	0.00149
2942.69754	0.00099
2940.76916	0.00104
2938.84079	0.00137
2936.91242	0.00127
2934.98404	0.00100
2933.05567	0.00031
2931.12730	0.00067
2929.19892	0.00087
2927.27055	0.00072
2925.34218	0.00093
2923.41380	0.00110
2921.48543	0.00118
2919.55706	0.00089
2917.62868	0.00078
2915.70031	0.00054
2913.77194	0.00077
2911.84356	0.00105
2909.91519	0.00059
2907.98682	0.00079
2906.05844	0.00126
2904.13007	0.00126
2902.20170	0.00110
2900.27332	0.00122
2898.34495	0.00111
2896.41658	0.00051
2894.48820	0.00060
2892.55983	0.00074
2890.63146	0.00089
2888.70309	0.00113
2886.77471	0.00095
2884.84634	0.00105
2882.91797	0.00111
2880.98959	0.00084
2879.06122	0.00087
2877.13285	0.00060
2875.20447	0.00061
2873.27610	0.00054
2871.34773	0.00095
2869.41935	0.00081
2867.49098	0.00066
2865.56261	0.00096
2863.63423	0.00163
2861.70586	0.00217
2859.77749	0.00247
2857.84911	0.00258
2855.92074	0.00279
2853.99237	0.00326
2852.06399	0.00380
2850.13562	0.00423
2848.20725	0.00440
2846.27887	0.00462
2844.35050	0.00505
2842.42213	0.00545
2840.49375	0.00601
2838.56538	0.00675
2836.63701	0.00721
2834.70863	0.00746
2832.78026	0.00791
2830.85189	0.00829
2828.92352	0.00834
2826.99514	0.00856
2825.06677	0.00918
2823.13840	0.00984
2821.21002	0.01017
2819.28165	0.01012
2817.35328	0.01022
2815.42490	0.01103
2813.49653	0.01204
2811.56816	0.01257
2809.63978	0.01268
2807.71141	0.01297
2805.78304	0.01366
2803.85466	0.01434
2801.92629	0.01487
2799.99792	0.01535
2798.06954	0.01599
2796.14117	0.01688
2794.21280	0.01756
2792.28442	0.01800
2790.35605	0.01863
2788.42768	0.01935
2786.49930	0.02006
2784.57093	0.02069
2782.64256	0.02102
2780.71418	0.02127
2778.78581	0.02167
2776.85744	0.02202
2774.92907	0.02213
2773.00069	0.02228
2771.07232	0.02290
2769.14395	0.02377
2767.21557	0.02426
2765.28720	0.02448
2763.35883	0.02484
2761.43045	0.02521
2759.50208	0.02560
2757.57371	0.02621
2755.64533	0.02697
2753.71696	0.02768
2751.78859	0.02834
2749.86021	0.02900
2747.93184	0.02944
2746.00347	0.02952
2744.07509	0.02959
2742.14672	0.02987
2740.21835	0.03026
2738.28997	0.03059
2736.36160	0.03083
2734.43323	0.03099
2732.50485	0.03129
2730.57648	0.03186
2728.64811	0.03263
2726.71973	0.03348
2724.79136	0.03430
2722.86299	0.03484
2720.93461	0.03522
2719.00624	0.03587
2717.07787	0.03663
2715.14950	0.03703
2713.22112	0.03719
2711.29275	0.03762
2709.36438	0.03849
2707.43600	0.03937
2705.50763	0.04007
2703.57926	0.04071
2701.65088	0.04142
2699.72251	0.04217
2697.79414	0.04286
2695.86576	0.04344
2693.93739	0.04394
2692.00902	0.04438
2690.08064	0.04476
2688.15227	0.04515
2686.22390	0.04558
2684.29552	0.04588
2682.36715	0.04616
2680.43878	0.04688
2678.51040	0.04789
2676.58203	0.04858
2674.65366	0.04904
2672.72528	0.04958
2670.79691	0.05000
2668.86854	0.05038
2666.94016	0.05102
2665.01179	0.05173
2663.08342	0.05226
2661.15505	0.05275
2659.22667	0.05325
2657.29830	0.05358
2655.36993	0.05377
2653.44155	0.05414
2651.51318	0.05471
2649.58481	0.05503
2647.65643	0.05496
2645.72806	0.05493
2643.79969	0.05514
2641.87131	0.05540
2639.94294	0.05570
2638.01457	0.05611
2636.08619	0.05663
2634.15782	0.05697
2632.22945	0.05696
2630.30107	0.05702
2628.37270	0.05751
2626.44433	0.05817
2624.51595	0.05867
2622.58758	0.05915
2620.65921	0.05972
2618.73083	0.06018
2616.80246	0.06052
2614.87409	0.06098
2612.94571	0.06157
2611.01734	0.06225
2609.08897	0.06288
2607.16059	0.06328
2605.23222	0.06355
2603.30385	0.06400
2601.37548	0.06464
2599.44710	0.06525
2597.51873	0.06583
2595.59036	0.06642
2593.66198	0.06686
2591.73361	0.06720
2589.80524	0.06777
2587.87686	0.06863
2585.94849	0.06936
2584.02012	0.06974
2582.09174	0.06998
2580.16337	0.07030
2578.23500	0.07068
2576.30662	0.07129
2574.37825	0.07227
2572.44988	0.07335
2570.52150	0.07432
2568.59313	0.07522
2566.66476	0.07606
2564.73638	0.07691
2562.80801	0.07795
2560.87964	0.07918
2558.95126	0.08038
2557.02289	0.08139
2555.09452	0.08230
2553.16614	0.08320
2551.23777	0.08410
2549.30940	0.08493
2547.38103	0.08544
2545.45265	0.08579
2543.52428	0.08644
2541.59591	0.08746
2539.66753	0.08838
2537.73916	0.08888
2535.81079	0.08910
2533.88241	0.08928
2531.95404	0.08959
2530.02567	0.09021
2528.09729	0.09089
2526.16892	0.09136
2524.24055	0.09180
2522.31217	0.09222
2520.38380	0.09254
2518.45543	0.09299
2516.52705	0.09364
2514.59868	0.09420
2512.67031	0.09464
2510.74193	0.09528
2508.81356	0.09613
2506.88519	0.09694
2504.95681	0.09781
2503.02844	0.09882
2501.10007	0.09975
2499.17169	0.10048
2497.24332	0.10113
2495.31495	0.10200
2493.38657	0.10312
2491.45820	0.10410
2489.52983	0.10481
2487.60146	0.10559
2485.67308	0.10657
2483.74471	0.10749
2481.81634	0.10822
2479.88796	0.10904
2477.95959	0.11006
2476.03122	0.11104
2474.10284	0.11197
2472.17447	0.11295
2470.24610	0.11389
2468.31772	0.11488
2466.38935	0.11605
2464.46098	0.11732
2462.53260	0.11851
2460.60423	0.11954
2458.67586	0.12053
2456.74748	0.12154
2454.81911	0.12265
2452.89074	0.12382
2450.96236	0.12484
2449.03399	0.12572
2447.10562	0.12675
2445.17724	0.12786
2443.24887	0.12890
2441.32050	0.12988
2439.39212	0.13073
2437.46375	0.13154
2435.53538	0.13247
2433.60700	0.13332
2431.67863	0.13397
2429.75026	0.13470
2427.82189	0.13567
2425.89351	0.13658
2423.96514	0.13712
2422.03677	0.13739
2420.10839	0.13776
2418.18002	0.13837
2416.25165	0.13908
2414.32327	0.13994
2412.39490	0.14108
2410.46653	0.14222
2408.53815	0.14308
2406.60978	0.14375
2404.68141	0.14449
2402.75303	0.14546
2400.82466	0.14656
2398.89629	0.14777
2396.96791	0.14909
2395.03954	0.15037
2393.11117	0.15147
2391.18279	0.15240
2389.25442	0.15321
2387.32605	0.15414
2385.39767	0.15537
2383.46930	0.15654
2381.54093	0.15748
2379.61255	0.15839
2377.68418	0.15929
2375.75581	0.16025
2373.82744	0.16154
2371.89906	0.16336
2369.97069	0.16565
2368.04232	0.16787
2366.11394	0.16984
2364.18557	0.17184
2362.25720	0.17324
2360.32882	0.17411
2358.40045	0.17486
2356.47208	0.17475
2354.54370	0.17394
2352.61533	0.17328
2350.68696	0.17328
2348.75858	0.17384
2346.83021	0.17462
2344.90184	0.17550
2342.97346	0.17631
2341.04509	0.17676
2339.11672	0.17687
2337.18834	0.17674
2335.25997	0.17650
2333.33160	0.17653
2331.40322	0.17707
2329.47485	0.17773
2327.54648	0.17796
2325.61810	0.17792
2323.68973	0.17790
2321.76136	0.17789
2319.83298	0.17804
2317.90461	0.17835
2315.97624	0.17896
2314.04787	0.17992
2312.11949	0.18094
2310.19112	0.18197
2308.26275	0.18292
2306.33437	0.18356
2304.40600	0.18400
2302.47763	0.18441
2300.54925	0.18488
2298.62088	0.18555
2296.69251	0.18615
2294.76413	0.18639
2292.83576	0.18657
2290.90739	0.18706
2288.97901	0.18764
2287.05064	0.18810
2285.12227	0.18838
2283.19389	0.18842
2281.26552	0.18843
2279.33715	0.18853
2277.40877	0.18868
2275.48040	0.18895
2273.55203	0.18918
2271.62365	0.18930
2269.69528	0.18965
2267.76691	0.19016
2265.83853	0.19034
2263.91016	0.19027
2261.98179	0.19041
2260.05342	0.19075
2258.12504	0.19103
2256.19667	0.19147
2254.26830	0.19214
2252.33992	0.19268
2250.41155	0.19309
2248.48318	0.19363
2246.55480	0.19414
2244.62643	0.19445
2242.69806	0.19469
2240.76968	0.19502
2238.84131	0.19533
2236.91294	0.19551
2234.98456	0.19561
2233.05619	0.19567
2231.12782	0.19576
2229.19944	0.19595
2227.27107	0.19615
2225.34270	0.19630
2223.41432	0.19640
2221.48595	0.19646
2219.55758	0.19643
2217.62920	0.19629
2215.70083	0.19604
2213.77246	0.19576
2211.84408	0.19555
2209.91571	0.19548
2207.98734	0.19558
2206.05896	0.19556
2204.13059	0.19519
2202.20222	0.19470
2200.27385	0.19423
2198.34547	0.19387
2196.41710	0.19382
2194.48873	0.19390
2192.56035	0.19371
2190.63198	0.19329
2188.70361	0.19291
2186.77523	0.19270
2184.84686	0.19259
2182.91849	0.19261
2180.99011	0.19267
2179.06174	0.19242
2177.13337	0.19197
2175.20499	0.19163
2173.27662	0.19137
2171.34825	0.19111
2169.41987	0.19094
2167.49150	0.19095
2165.56313	0.19099
2163.63475	0.19080
2161.70638	0.19047
2159.77801	0.19031
2157.84963	0.19036
2155.92126	0.19048
2153.99289	0.19059
2152.06451	0.19060
2150.13614	0.19060
2148.20777	0.19070
2146.27940	0.19074
2144.35102	0.19060
2142.42265	0.19047
2140.49428	0.19045
2138.56590	0.19042
2136.63753	0.19037
2134.70916	0.19045
2132.78078	0.19077
2130.85241	0.19111
2128.92404	0.19143
2126.99566	0.19181
2125.06729	0.19218
2123.13892	0.19265
2121.21054	0.19324
2119.28217	0.19364
2117.35380	0.19384
2115.42542	0.19411
2113.49705	0.19448
2111.56868	0.19493
2109.64030	0.19539
2107.71193	0.19575
2105.78356	0.19608
2103.85518	0.19641
2101.92681	0.19666
2099.99844	0.19684
2098.07006	0.19695
2096.14169	0.19707
2094.21332	0.19728
2092.28494	0.19749
2090.35657	0.19749
2088.42820	0.19745
2086.49983	0.19765
2084.57145	0.19798
2082.64308	0.19810
2080.71471	0.19788
2078.78633	0.19749
2076.85796	0.19721
2074.92959	0.19718
2073.00121	0.19736
2071.07284	0.19760
2069.14447	0.19785
2067.21609	0.19814
2065.28772	0.19849
2063.35935	0.19891
2061.43097	0.19935
2059.50260	0.19982
2057.57423	0.20032
2055.64585	0.20077
2053.71748	0.20125
2051.78911	0.20192
2049.86073	0.20275
2047.93236	0.20354
2046.00399	0.20414
2044.07561	0.20465
2042.14724	0.20537
2040.21887	0.20624
2038.29049	0.20698
2036.36212	0.20760
2034.43375	0.20819
2032.50538	0.20877
2030.57700	0.20932
2028.64863	0.20996
2026.72026	0.21060
2024.79188	0.21108
2022.86351	0.21166
2020.93514	0.21238
2019.00676	0.21286
2017.07839	0.21312
2015.15002	0.21363
2013.22164	0.21435
2011.29327	0.21498
2009.36490	0.21558
2007.43652	0.21625
2005.50815	0.21705
2003.57978	0.21782
2001.65140	0.21831
1999.72303	0.21869
1997.79466	0.21916
1995.86628	0.21964
1993.93791	0.22013
1992.00954	0.22056
1990.08116	0.22074
1988.15279	0.22064
1986.22442	0.22047
1984.29604	0.22042
1982.36767	0.22047
1980.43930	0.22057
1978.51092	0.22077
1976.58255	0.22101
1974.65418	0.22119
1972.72581	0.22126
1970.79743	0.22138
1968.86906	0.22170
1966.94069	0.22200
1965.01231	0.22220
1963.08394	0.22255
1961.15557	0.22303
1959.22719	0.22343
1957.29882	0.22388
1955.37045	0.22449
1953.44207	0.22514
1951.51370	0.22578
1949.58533	0.22640
1947.65695	0.22700
1945.72858	0.22781
1943.80021	0.22892
1941.87183	0.22976
1939.94346	0.22993
1938.01509	0.22992
1936.08671	0.23019
1934.15834	0.23074
1932.22997	0.23119
1930.30159	0.23135
1928.37322	0.23157
1926.44485	0.23202
1924.51647	0.23252
1922.58810	0.23292
1920.65973	0.23306
1918.73135	0.23288
1916.80298	0.23272
1914.87461	0.23276
1912.94624	0.23282
1911.01786	0.23288
1909.08949	0.23290
1907.16112	0.23270
1905.23274	0.23240
1903.30437	0.23227
1901.37600	0.23218
1899.44762	0.23213
1897.51925	0.23214
1895.59088	0.23211
1893.66250	0.23205
1891.73413	0.23191
1889.80576	0.23162
1887.87738	0.23130
1885.94901	0.23127
1884.02064	0.23140
1882.09226	0.23140
1880.16389	0.23134
1878.23552	0.23130
1876.30714	0.23119
1874.37877	0.23101
1872.45040	0.23100
1870.52202	0.23119
1868.59365	0.23120
1866.66528	0.23079
1864.73690	0.23031
1862.80853	0.22986
1860.88016	0.22948
1858.95179	0.22923
1857.02341	0.22900
1855.09504	0.22874
1853.16667	0.22864
1851.23829	0.22859
1849.30992	0.22846
1847.38155	0.22828
1845.45317	0.22799
1843.52480	0.22753
1841.59643	0.22706
1839.66805	0.22676
1837.73968	0.22638
1835.81131	0.22584
1833.88293	0.22542
1831.95456	0.22514
1830.02619	0.22471
1828.09781	0.22405
1826.16944	0.22328
1824.24107	0.22220
1822.31269	0.22091
1820.38432	0.21973
1818.45595	0.21850
1816.52757	0.21703
1814.59920	0.21556
1812.67083	0.21422
1810.74245	0.21266
1808.81408	0.21071
1806.88571	0.20864
1804.95733	0.20680
1803.02896	0.20532
1801.10059	0.20371
1799.17222	0.20132
1797.24384	0.19841
1795.31547	0.19564
1793.38710	0.19282
1791.45872	0.18932
1789.53035	0.18576
1787.60198	0.18262
1785.67360	0.17945
1783.74523	0.17625
1781.81686	0.17318
1779.88848	0.16982
1777.96011	0.16640
1776.03174	0.16364
1774.10336	0.16121
1772.17499	0.15777
1770.24662	0.15337
1768.31824	0.14927
1766.38987	0.14558
1764.46150	0.14222
1762.53312	0.13831
1760.60475	0.13339
1758.67638	0.12844
1756.74800	0.12301
1754.81963	0.11733
1752.89126	0.11203
1750.96288	0.10577
1749.03451	0.09802
1747.10614	0.09066
1745.17777	0.08398
1743.24939	0.07741
1741.32102	0.07076
1739.39265	0.06388
1737.46427	0.05806
1735.53590	0.05296
1733.60753	0.04624
1731.67915	0.03964
1729.75078	0.03447
1727.82241	0.02979
1725.89403	0.02550
1723.96566	0.02131
1722.03729	0.01770
1720.10891	0.01517
1718.18054	0.01262
1716.25217	0.00916
1714.32379	0.00650
1712.39542	0.00505
1710.46705	0.00405
1708.53867	0.00303
1706.61030	0.00194
1704.68193	0.00113
1702.75355	0.00104
1700.82518	0.00131
1698.89681	0.00114
1696.96843	0.00075
1695.04006	0.00059
1693.11169	0.00044
1691.18331	0.00035
1689.25494	0.00049
1687.32657	0.00077
1685.39820	0.00092
1683.46982	0.00072
1681.54145	0.00067
1679.61308	0.00075
1677.68470	0.00085
1675.75633	0.00122
1673.82796	0.00096
1671.89958	0.00072
1669.97121	0.00132
1668.04284	0.00105
1666.11446	0.00037
1664.18609	0.00047
1662.25772	0.00045
1660.32934	0.00029
1658.40097	0.00028
1656.47260	0.00019
1654.54422	0.00023
1652.61585	0.00057
1650.68748	0.00057
1648.75910	0.00060
1646.83073	0.00049
1644.90236	0.00038
1642.97398	0.00044
1641.04561	0.00034
1639.11724	0.00041
1637.18886	0.00112
1635.26049	0.00109
1633.33212	0.00053
1631.40375	0.00052
1629.47537	0.00048
1627.54700	0.00043
1625.61863	0.00050
1623.69025	0.00048
1621.76188	0.00045
1619.83351	0.00078
1617.90513	0.00084
1615.97676	0.00063
1614.04839	0.00037
1612.12001	0.00031
1610.19164	0.00034
1608.26327	0.00057
1606.33489	0.00070
1604.40652	0.00059
1602.47815	0.00047
1600.54977	0.00061
1598.62140	0.00045
1596.69303	0.00019
1594.76465	0.00032
1592.83628	0.00052
1590.90791	0.00072
1588.97953	0.00064
1587.05116	0.00040
1585.12279	0.00037
1583.19441	0.00054
1581.26604	0.00061
1579.33767	0.00050
1577.40929	0.00040
1575.48092	0.00071
1573.55255	0.00069
1571.62418	0.00081
1569.69580	0.00085
1567.76743	0.00067
1565.83906	0.00080
1563.91068	0.00085
1561.98231	0.00057
1560.05394	0.00076
1558.12556	0.00123
1556.19719	0.00067
1554.26882	0.00039
1552.34044	0.00013
1550.41207	0.00067
1548.48370	0.00078
1546.55532	0.00070
1544.62695	0.00120
1542.69858	0.00138
1540.77020	0.00122
1538.84183	0.00123
1536.91346	0.00090
1534.98508	0.00056
1533.05671	0.00037
1531.12834	0.00040
1529.19996	0.00046
1527.27159	0.00061
1525.34322	0.00077
1523.41484	0.00108
1521.48647	0.00137
1519.55810	0.00145
1517.62972	0.00104
1515.70135	0.00064
1513.77298	0.00027
1511.84461	0.00038
1509.91623	0.00083
1507.98786	0.00075
1506.05949	0.00036
1504.13111	0.00041
1502.20274	0.00038
1500.27437	0.00022
1498.34599	0.00060
1496.41762	0.00113
1494.48925	0.00113
1492.56087	0.00096
1490.63250	0.00070
1488.70413	0.00048
1486.77575	0.00055
1484.84738	0.00053
1482.91901	0.00050
1480.99063	0.00079
1479.06226	0.00078
1477.13389	0.00062
1475.20551	0.00063
1473.27714	0.00074
1471.34877	0.00096
1469.42039	0.00087
1467.49202	0.00052
1465.56365	0.00032
1463.63527	0.00039
1461.70690	0.00061
1459.77853	0.00076
1457.85016	0.00046
1455.92178	0.00038
1453.99341	0.00065
1452.06504	0.00080
1450.13666	0.00081
1448.20829	0.00054
1446.27992	0.00058
1444.35154	0.00067
1442.42317	0.00047
1440.49480	0.00061
1438.56642	0.00108
1436.63805	0.00140
1434.70968	0.00146
1432.78130	0.00118
1430.85293	0.00100
1428.92456	0.00091
1426.99618	0.00081
1425.06781	0.00075
1423.13944	0.00055
1421.21106	0.00084
1419.28269	0.00087
1417.35432	0.00052
1415.42594	0.00066
1413.49757	0.00085
1411.56920	0.00087
1409.64082	0.00066
1407.71245	0.00049
1405.78408	0.00048
1403.85570	0.00033
1401.92733	0.00036
1399.99896	0.00056
1398.07059	0.00068
1396.14221	0.00073
1394.21384	0.00068
1392.28547	0.00066
1390.35709	0.00089
1388.42872	0.00102
1386.50035	0.00119
1384.57197	0.00121
1382.64360	0.00075
1380.71523	0.00034
1378.78685	0.00045
1376.85848	0.00079
1374.93011	0.00084
1373.00173	0.00089
1371.07336	0.00064
1369.14499	0.00059
1367.21661	0.00119
1365.28824	0.00107
1363.35987	0.00041
1361.43149	0.00065
1359.50312	0.00091
1357.57475	0.00081
1355.64637	0.00060
1353.71800	0.00099
1351.78963	0.00144
1349.86125	0.00139
1347.93288	0.00111
1346.00451	0.00104
1344.07614	0.00112
1342.14776	0.00093
1340.21939	0.00044
1338.29102	0.00060
1336.36264	0.00085
1334.43427	0.00070
1332.50590	0.00071
1330.57752	0.00105
1328.64915	0.00094
1326.72078	0.00077
1324.79240	0.00078
1322.86403	0.00071
1320.93566	0.00047
1319.00728	0.00045
1317.07891	0.00055
1315.15054	0.00047
1313.22216	0.00060
1311.29379	0.00068
1309.36542	0.00055
1307.43704	0.00045
1305.50867	0.00055
1303.58030	0.00081
1301.65192	0.00100
1299.72355	0.00074
1297.79518	0.00013
1295.86680	0.00043
1293.93843	0.00039
1292.01006	0.00063
1290.08168	0.00092
1288.15331	0.00105
1286.22494	0.00089
1284.29657	0.00049
1282.36819	0.00013
1280.43982	0.00068
1278.51145	0.00112
1276.58307	0.00084
1274.65470	0.00091
1272.72633	0.00104
1270.79795	0.00092
1268.86958	0.00061
1266.94121	0.00049
1265.01283	0.00067
1263.08446	0.00067
1261.15609	0.00128
1259.22771	0.00131
1257.29934	0.00036
1255.37097	0.00044
1253.44259	0.00062
1251.51422	0.00107
1249.58585	0.00088
1247.65747	0.00084
1245.72910	0.00092
1243.80073	0.00100
1241.87235	0.00080
1239.94398	0.00044
1238.01561	0.00066
1236.08723	0.00060
1234.15886	0.00098
1232.23049	0.00151
1230.30212	0.00173
1228.37374	0.00206
1226.44537	0.00208
1224.51700	0.00132
1222.58862	0.00066
1220.66025	0.00201
1218.73188	0.00272
1216.80350	0.00223
1214.87513	0.00160
1212.94676	0.00127
1211.01838	0.00079
1209.09001	0.00111
1207.16164	0.00168
1205.23326	0.00094
1203.30489	0.00045
1201.37652	0.00122
1199.44814	0.00164
1197.51977	0.00140
1195.59140	0.00107
1193.66302	0.00093
1191.73465	0.00174
1189.80628	0.00205
1187.87790	0.00151
1185.94953	0.00160
1184.02116	0.00122
1182.09278	0.00079
1180.16441	0.00103
1178.23604	0.00144
1176.30766	0.00111
1174.37929	0.00077
1172.45092	0.00116
1170.52255	0.00116
1168.59417	0.00163
1166.66580	0.00217
1164.73743	0.00205
1162.80905	0.00175
1160.88068	0.00154
1158.95231	0.00149
1157.02393	0.00160
1155.09556	0.00182
1153.16719	0.00188
1151.23881	0.00183
1149.31044	0.00151
1147.38207	0.00069
1145.45369	0.00263
1143.52532	0.00298
1141.59695	0.00198
1139.66857	0.00156
1137.74020	0.00163
1135.81183	0.00130
1133.88345	0.00104
1131.95508	0.00140
1130.02671	0.00160
1128.09833	0.00176
1126.16996	0.00165
1124.24159	0.00191
1122.31321	0.00239
1120.38484	0.00235
1118.45647	0.00175
1116.52809	0.00105
1114.59972	0.00138
1112.67135	0.00193
1110.74298	0.00214
1108.81460	0.00189
1106.88623	0.00144
1104.95786	0.00118
1103.02948	0.00108
1101.10111	0.00087
1099.17274	0.00082
1097.24436	0.00119
1095.31599	0.00115
1093.38762	0.00060
1091.45924	0.00092
1089.53087	0.00102
1087.60250	0.00145
1085.67412	0.00133
1083.74575	0.00049
1081.81738	0.00106
1079.88900	0.00137
1077.96063	0.00108
1076.03226	0.00039
1074.10388	0.00083
1072.17551	0.00122
1070.24714	0.00151
1068.31876	0.00134
1066.39039	0.00133
1064.46202	0.00128
1062.53364	0.00132
1060.60527	0.00117
1058.67690	0.00096
1056.74853	0.00130
1054.82015	0.00136
1052.89178	0.00080
1050.96341	0.00059
1049.03503	0.00115
1047.10666	0.00170
1045.17829	0.00140
1043.24991	0.00056
1041.32154	0.00110
1039.39317	0.00060
1037.46479	0.00095
1035.53642	0.00110
1033.60805	0.00103
1031.67967	0.00123
1029.75130	0.00111
1027.82293	0.00036
1025.89455	0.00096
1023.96618	0.00070
1022.03781	0.00048
1020.10943	0.00074
1018.18106	0.00064
1016.25269	0.00139
1014.32431	0.00120
1012.39594	0.00092
1010.46757	0.00158
1008.53919	0.00121
1006.61082	0.00073
1004.68245	0.00054
1002.75407	0.00112
1000.82570	0.00139
998.89733	0.00144
996.96896	0.00195
995.04058	0.00306
993.11221	0.00397
991.18384	0.00448
989.25546	0.00500
987.32709	0.00556
985.39872	0.00587
983.47034	0.00559
981.54197	0.00475
979.61360	0.00391
977.68522	0.00362
975.75685	0.00411
973.82848	0.00510
971.90010	0.00625
969.97173	0.00761
968.04336	0.00928
966.11498	0.01111
964.18661	0.01213
962.25824	0.01150
960.32986	0.00922
958.40149	0.00618
956.47312	0.00395
954.54474	0.00284
952.61637	0.00277
950.68800	0.00385
948.75962	0.00637
946.83125	0.00953
944.90288	0.01231
942.97451	0.01512
941.04613	0.01845
939.11776	0.02170
937.18939	0.02429
935.26101	0.02628
933.33264	0.02774
931.40427	0.02910
929.47589	0.03039
927.54752	0.03026
925.61915	0.02849
923.69077	0.02664
921.76240	0.02575
919.83403	0.02583
917.90565	0.02671
915.97728	0.02779
914.04891	0.02845
912.12053	0.02884
910.19216	0.02881
908.26379	0.02779
906.33541	0.02554
904.40704	0.02228
902.47867	0.01894
900.55029	0.01618
898.62192	0.01441
896.69355	0.01418
894.76517	0.01506
892.83680	0.01645
890.90843	0.01818
888.98005	0.02032
887.05168	0.02245
885.12331	0.02429
883.19494	0.02664
881.26656	0.02896
879.33819	0.03001
877.40982	0.03016
875.48144	0.03044
873.55307	0.03095
871.62470	0.03083
869.69632	0.03004
867.76795	0.02942
865.83958	0.02931
863.91120	0.02957
861.98283	0.02935
860.05446	0.02806
858.12608	0.02674
856.19771	0.02640
854.26934	0.02657
852.34096	0.02628
850.41259	0.02590
848.48422	0.02566
846.55584	0.02496
844.62747	0.02363
842.69910	0.02195
840.77072	0.02024
838.84235	0.01913
836.91398	0.01887
834.98560	0.01888
833.05723	0.01839
831.12886	0.01768
829.20049	0.01723
827.27211	0.01653
825.34374	0.01564
823.41537	0.01556
821.48699	0.01598
819.55862	0.01517
817.63025	0.01319
815.70187	0.01221
813.77350	0.01294
811.84513	0.01345
809.91675	0.01247
807.98838	0.01080
806.06001	0.00990
804.13163	0.00959
802.20326	0.00932
800.27489	0.00938
798.34651	0.00981
796.41814	0.00983
794.48977	0.00870
792.56139	0.00697
790.63302	0.00604
788.70465	0.00636
786.77627	0.00683
784.84790	0.00662
782.91953	0.00557
780.99115	0.00457
779.06278	0.00424
777.13441	0.00408
775.20603	0.00398
773.27766	0.00395
771.34929	0.00341
769.42092	0.00245
767.49254	0.00215
765.56417	0.00257
763.63580	0.00307
761.70742	0.00292
759.77905	0.00220
757.85068	0.00230
755.92230	0.00258
753.99393	0.00235
752.06556	0.00192
750.13718	0.00178
748.20881	0.00133
746.28044	0.00153
744.35206	0.00111
742.42369	0.00211
740.49532	0.00230
738.56694	0.00226
736.63857	0.00296
734.71020	0.00161
732.78182	0.00056
730.85345	0.00192
728.92508	0.00235
726.99670	0.00243
725.06833	0.00228
723.13996	0.00200
721.21158	0.00172
719.28321	0.00264
717.35484	0.00303
715.42647	0.00258
713.49809	0.00128
711.56972	0.00076
709.64135	0.00094
707.71297	0.00116
705.78460	0.00093
703.85623	0.00163
701.92785	0.00296
699.99948	0.00376
698.07111	0.00378
696.14273	0.00252
694.21436	0.00190
692.28599	0.00283
690.35761	0.00500
688.42924	0.00607
686.50087	0.00525
684.57249	0.00454
682.64412	0.00453
680.71575	0.00442
678.78737	0.00541
676.85900	0.00474
674.93063	0.00208
673.00225	0.00133
671.07388	0.00228
669.14551	0.00507
667.21713	0.00472
665.28876	0.00238
663.36039	0.00287
661.43201	0.00361
659.50364	0.00265
657.57527	0.00163
655.64690	0.00140
653.71852	0.00126
651.79015	0.00390
649.86178	0.00480
647.93340	0.00315
646.00503	0.00293
644.07666	0.00339
642.14828	0.00383
640.21991	0.00440
638.29154	0.00454
636.36316	0.00506
634.43479	0.00531
632.50642	0.00709
630.57804	0.00714
628.64967	0.00525
626.72130	0.00365
624.79292	0.00369
622.86455	0.00795
620.93618	0.00996
619.00780	0.00863
617.07943	0.00708
615.15106	0.00449
613.22268	0.00653
611.29431	0.00914
609.36594	0.01020
607.43756	0.00900
605.50919	0.01181
603.58082	0.01489
601.65244	0.01272
599.72407	0.00918
