3997.51769	0.29351
3995.58931	0.29405
3993.66094	0.29418
3991.73257	0.29366
3989.80419	0.29320
3987.87582	0.29315
3985.94745	0.29347
3984.01907	0.29439
3982.09070	0.29557
3980.16233	0.29625
3978.23396	0.29639
3976.30558	0.29643
3974.37721	0.29638
3972.44884	0.29620
3970.52046	0.29637
3968.59209	0.29694
3966.66372	0.29777
3964.73534	0.29882
3962.80697	0.29959
3960.87860	0.29996
3958.95022	0.30042
3957.02185	0.30120
3955.09348	0.30216
3953.16510	0.30293
3951.23673	0.30344
3949.30836	0.30403
3947.37998	0.30460
3945.45161	0.30491
3943.52324	0.30524
3941.59486	0.30572
3939.66649	0.30629
3937.73812	0.30693
3935.80974	0.30754
3933.88137	0.30836
3931.95300	0.30951
3930.02462	0.31032
3928.09625	0.31067
3926.16788	0.31128
3924.23950	0.31203
3922.31113	0.31234
3920.38276	0.31270
3918.45439	0.31357
3916.52601	0.31405
3914.59764	0.31381
3912.66927	0.31411
3910.74089	0.31537
3908.81252	0.31677
3906.88415	0.31787
3904.95577	0.31869
3903.02740	0.31932
3901.09903	0.32009
3899.17065	0.32069
3897.24228	0.32076
3895.31391	0.32115
3893.38553	0.32223
3891.45716	0.32313
3889.52879	0.32352
3887.60041	0.32409
3885.67204	0.32456
3883.74367	0.32471
3881.81529	0.32532
3879.88692	0.32598
3877.95855	0.32620
3876.03017	0.32679
3874.10180	0.32790
3872.17343	0.32902
3870.24505	0.33003
3868.31668	0.33051
3866.38831	0.33075
3864.45994	0.33133
3862.53156	0.33145
3860.60319	0.33095
3858.67482	0.33086
3856.74644	0.33156
3854.81807	0.33282
3852.88970	0.33319
3850.96132	0.33206
3849.03295	0.33140
3847.10458	0.33147
3845.17620	0.33216
3843.24783	0.33337
3841.31946	0.33469
3839.39108	0.33557
3837.46271	0.33596
3835.53434	0.33613
3833.60596	0.33594
3831.67759	0.33548
3829.74922	0.33511
3827.82084	0.33513
3825.89247	0.33581
3823.96410	0.33716
3822.03572	0.33867
3820.10735	0.33896
3818.17898	0.33833
3816.25060	0.33809
3814.32223	0.33760
3812.39386	0.33675
3810.46548	0.33637
3808.53711	0.33646
3806.60874	0.33639
3804.68037	0.33649
3802.75199	0.33759
3800.82362	0.33862
3798.89525	0.33868
3796.96687	0.33891
3795.03850	0.33857
3793.11013	0.33746
3791.18175	0.33711
3789.25338	0.33766
3787.32501	0.33804
3785.39663	0.33775
3783.46826	0.33712
3781.53989	0.33686
3779.61151	0.33709
3777.68314	0.33712
3775.75477	0.33672
3773.82639	0.33662
3771.89802	0.33753
3769.96965	0.33900
3768.04127	0.33954
3766.11290	0.33900
3764.18453	0.33822
3762.25615	0.33787
3760.32778	0.33812
3758.39941	0.33854
3756.47103	0.33859
3754.54266	0.33821
3752.61429	0.33819
3750.68591	0.33884
3748.75754	0.33914
3746.82917	0.33954
3744.90080	0.33962
3742.97242	0.33785
3741.04405	0.33593
3739.11568	0.33532
3737.18730	0.33576
3735.25893	0.33623
3733.33056	0.33535
3731.40218	0.33353
3729.47381	0.33214
3727.54544	0.33141
3725.61706	0.33096
3723.68869	0.33033
3721.76032	0.32937
3719.83194	0.32805
3717.90357	0.32654
3715.97520	0.32549
3714.04682	0.32518
3712.11845	0.32502
3710.19008	0.32304
3708.26170	0.31952
3706.33333	0.31653
3704.40496	0.31424
3702.47658	0.31193
3700.54821	0.30900
3698.61984	0.30557
3696.69146	0.30194
3694.76309	0.29901
3692.83472	0.29706
3690.90635	0.29382
3688.97797	0.28660
3687.04960	0.27766
3685.12123	0.27056
3683.19285	0.26448
3681.26448	0.25817
3679.33611	0.25164
3677.40773	0.24479
3675.47936	0.23552
3673.55099	0.22585
3671.62261	0.21832
3669.69424	0.20840
3667.76587	0.19705
3665.83749	0.18788
3663.90912	0.17915
3661.98075	0.17010
3660.05237	0.16126
3658.12400	0.15284
3656.19563	0.14408
3654.26725	0.13619
3652.33888	0.12994
3650.41051	0.12254
3648.48213	0.11247
3646.55376	0.10337
3644.62539	0.09656
3642.69701	0.09057
3640.76864	0.08461
3638.84027	0.07880
3636.91189	0.07333
3634.98352	0.06808
3633.05515	0.06323
3631.12678	0.05889
3629.19840	0.05372
3627.27003	0.04847
3625.34166	0.04513
3623.41328	0.04232
3621.48491	0.03920
3619.55654	0.03587
3617.62816	0.03304
3615.69979	0.03061
3613.77142	0.02773
3611.84304	0.02479
3609.91467	0.02285
3607.98630	0.02162
3606.05792	0.02040
3604.12955	0.01927
3602.20118	0.01821
3600.27280	0.01689
3598.34443	0.01507
3596.41606	0.01306
3594.48768	0.01154
3592.55931	0.01068
3590.63094	0.01021
3588.70256	0.00956
3586.77419	0.00831
3584.84582	0.00715
3582.91744	0.00657
3580.98907	0.00625
3579.06070	0.00595
3577.13233	0.00576
3575.20395	0.00550
3573.27558	0.00489
3571.34721	0.00424
3569.41883	0.00393
3567.49046	0.00375
3565.56209	0.00336
3563.63371	0.00294
3561.70534	0.00237
3559.77697	0.00186
3557.84859	0.00153
3555.92022	0.00131
3553.99185	0.00144
3552.06347	0.00132
3550.13510	0.00112
3548.20673	0.00091
3546.27835	0.00068
3544.34998	0.00043
3542.42161	0.00066
3540.49323	0.00069
3538.56486	0.00063
3536.63649	0.00119
3534.70811	0.00150
3532.77974	0.00088
3530.85137	0.00059
3528.92299	0.00077
3526.99462	0.00070
3525.06625	0.00127
3523.13787	0.00144
3521.20950	0.00130
3519.28113	0.00101
3517.35276	0.00072
3515.42438	0.00074
3513.49601	0.00074
3511.56764	0.00051
3509.63926	0.00022
3507.71089	0.00063
3505.78252	0.00096
3503.85414	0.00099
3501.92577	0.00074
3499.99740	0.00035
3498.06902	0.00044
3496.14065	0.00056
3494.21228	0.00074
3492.28390	0.00099
3490.35553	0.00079
3488.42716	0.00088
3486.49878	0.00080
3484.57041	0.00036
3482.64204	0.00055
3480.71366	0.00053
3478.78529	0.00035
3476.85692	0.00048
3474.92854	0.00081
3473.00017	0.00093
3471.07180	0.00058
3469.14342	0.00036
3467.21505	0.00043
3465.28668	0.00093
3463.35831	0.00164
3461.42993	0.00170
3459.50156	0.00100
3457.57319	0.00072
3455.64481	0.00040
3453.71644	0.00040
3451.78807	0.00043
3449.85969	0.00053
3447.93132	0.00054
3446.00295	0.00111
3444.07457	0.00106
3442.14620	0.00108
3440.21783	0.00107
3438.28945	0.00050
3436.36108	0.00032
3434.43271	0.00061
3432.50433	0.00097
3430.57596	0.00094
3428.64759	0.00073
3426.71921	0.00074
3424.79084	0.00063
3422.86247	0.00047
3420.93409	0.00048
3419.00572	0.00059
3417.07735	0.00044
3415.14897	0.00026
3413.22060	0.00090
3411.29223	0.00140
3409.36385	0.00132
3407.43548	0.00120
3405.50711	0.00092
3403.57874	0.00061
3401.65036	0.00089
3399.72199	0.00107
3397.79362	0.00068
3395.86524	0.00038
3393.93687	0.00038
3392.00850	0.00097
3390.08012	0.00081
3388.15175	0.00056
3386.22338	0.00060
3384.29500	0.00075
3382.36663	0.00100
3380.43826	0.00136
3378.50988	0.00156
3376.58151	0.00125
3374.65314	0.00064
3372.72476	0.00095
3370.79639	0.00151
3368.86802	0.00126
3366.93964	0.00057
3365.01127	0.00052
3363.08290	0.00094
3361.15452	0.00081
3359.22615	0.00064
3357.29778	0.00083
3355.36940	0.00100
3353.44103	0.00084
3351.51266	0.00040
3349.58428	0.00026
3347.65591	0.00047
3345.72754	0.00043
3343.79917	0.00041
3341.87079	0.00051
3339.94242	0.00046
3338.01405	0.00060
3336.08567	0.00073
3334.15730	0.00086
3332.22893	0.00086
3330.30055	0.00069
3328.37218	0.00080
3326.44381	0.00108
3324.51543	0.00106
3322.58706	0.00076
3320.65869	0.00073
3318.73031	0.00074
3316.80194	0.00062
3314.87357	0.00081
3312.94519	0.00106
3311.01682	0.00098
3309.08845	0.00068
3307.16007	0.00033
3305.23170	0.00055
3303.30333	0.00079
3301.37495	0.00072
3299.44658	0.00089
3297.51821	0.00104
3295.58983	0.00090
3293.66146	0.00053
3291.73309	0.00025
3289.80472	0.00067
3287.87634	0.00075
3285.94797	0.00085
3284.01960	0.00086
3282.09122	0.00114
3280.16285	0.00133
3278.23448	0.00114
3276.30610	0.00066
3274.37773	0.00024
3272.44936	0.00053
3270.52098	0.00049
3268.59261	0.00027
3266.66424	0.00054
3264.73586	0.00068
3262.80749	0.00044
3260.87912	0.00033
3258.95074	0.00052
3257.02237	0.00077
3255.09400	0.00087
3253.16562	0.00064
3251.23725	0.00079
3249.30888	0.00104
3247.38050	0.00118
3245.45213	0.00105
3243.52376	0.00078
3241.59538	0.00066
3239.66701	0.00069
3237.73864	0.00079
3235.81026	0.00087
3233.88189	0.00060
3231.95352	0.00037
3230.02515	0.00065
3228.09677	0.00086
3226.16840	0.00086
3224.24003	0.00079
3222.31165	0.00092
3220.38328	0.00110
3218.45491	0.00098
3216.52653	0.00084
3214.59816	0.00076
3212.66979	0.00069
3210.74141	0.00080
3208.81304	0.00068
3206.88467	0.00090
3204.95629	0.00073
3203.02792	0.00052
3201.09955	0.00069
3199.17117	0.00091
3197.24280	0.00085
3195.31443	0.00053
3193.38605	0.00051
3191.45768	0.00081
3189.52931	0.00072
3187.60093	0.00056
3185.67256	0.00071
3183.74419	0.00078
3181.81581	0.00065
3179.88744	0.00049
3177.95907	0.00090
3176.03070	0.00119
3174.10232	0.00098
3172.17395	0.00053
3170.24558	0.00031
3168.31720	0.00067
3166.38883	0.00082
3164.46046	0.00047
3162.53208	0.00033
3160.60371	0.00049
3158.67534	0.00051
3156.74696	0.00072
3154.81859	0.00068
3152.89022	0.00037
3150.96184	0.00042
3149.03347	0.00061
3147.10510	0.00058
3145.17672	0.00041
3143.24835	0.00072
3141.31998	0.00072
3139.39160	0.00061
3137.46323	0.00069
3135.53486	0.00065
3133.60648	0.00032
3131.67811	0.00029
3129.74974	0.00050
3127.82136	0.00077
3125.89299	0.00079
3123.96462	0.00086
3122.03624	0.00103
3120.10787	0.00094
3118.17950	0.00075
3116.25113	0.00093
3114.32275	0.00095
3112.39438	0.00061
3110.46601	0.00085
3108.53763	0.00105
3106.60926	0.00095
3104.68089	0.00075
3102.75251	0.00054
3100.82414	0.00061
3098.89577	0.00091
3096.96739	0.00089
3095.03902	0.00046
3093.11065	0.00065
3091.18227	0.00091
3089.25390	0.00079
3087.32553	0.00074
3085.39715	0.00061
3083.46878	0.00067
3081.54041	0.00072
3079.61203	0.00099
3077.68366	0.00110
3075.75529	0.00095
3073.82691	0.00113
3071.89854	0.00127
3069.97017	0.00122
3068.04179	0.00115
3066.11342	0.00083
3064.18505	0.00050
3062.25668	0.00044
3060.32830	0.00024
3058.39993	0.00059
3056.47156	0.00092
3054.54318	0.00081
3052.61481	0.00068
3050.68644	0.00076
3048.75806	0.00061
3046.82969	0.00059
3044.90132	0.00073
3042.97294	0.00079
3041.04457	0.00056
3039.11620	0.00053
3037.18782	0.00100
3035.25945	0.00175
3033.33108	0.00208
3031.40270	0.00212
3029.47433	0.00222
3027.54596	0.00218
3025.61758	0.00228
3023.68921	0.00248
3021.76084	0.00247
3019.83246	0.00254
3017.90409	0.00284
3015.97572	0.00297
3014.04734	0.00304
3012.11897	0.00336
3010.19060	0.00368
3008.26222	0.00377
3006.33385	0.00370
3004.40548	0.00340
3002.47711	0.00301
3000.54873	0.00293
2998.62036	0.00300
2996.69199	0.00279
2994.76361	0.00249
2992.83524	0.00244
2990.90687	0.00277
2988.97849	0.00261
2987.05012	0.00213
2985.12175	0.00208
2983.19337	0.00207
2981.26500	0.00176
2979.33663	0.00180
2977.40825	0.00205
2975.47988	0.00220
2973.55151	0.00240
2971.62313	0.00215
2969.69476	0.00107
2967.76639	0.00141
2965.83801	0.00111
2963.90964	0.00103
2961.98127	0.00145
2960.05289	0.00149
2958.12452	0.00157
2956.19615	0.00171
2954.26777	0.00172
2952.33940	0.00149
2950.41103	0.00110
2948.48266	0.00117
2946.55428	0.00103
2944.62591	0.00065
2942.69754	0.00042
2940.76916	0.00084
2938.84079	0.00145
2936.91242	0.00157
2934.98404	0.00099
2933.05567	0.00058
2931.12730	0.00167
2929.19892	0.00190
2927.27055	0.00112
2925.34218	0.00133
2923.41380	0.00152
2921.48543	0.00117
2919.55706	0.00125
2917.62868	0.00149
2915.70031	0.00139
2913.77194	0.00129
2911.84356	0.00124
2909.91519	0.00115
2907.98682	0.00156
2906.05844	0.00201
2904.13007	0.00212
2902.20170	0.00219
2900.27332	0.00223
2898.34495	0.00211
2896.41658	0.00180
2894.48820	0.00146
2892.55983	0.00131
2890.63146	0.00140
2888.70309	0.00182
2886.77471	0.00205
2884.84634	0.00173
2882.91797	0.00138
2880.98959	0.00138
2879.06122	0.00150
2877.13285	0.00135
2875.20447	0.00135
2873.27610	0.00174
2871.34773	0.00203
2869.41935	0.00182
2867.49098	0.00158
2865.56261	0.00186
2863.63423	0.00286
2861.70586	0.00388
2859.77749	0.00437
2857.84911	0.00449
2855.92074	0.00475
2853.99237	0.00541
2852.06399	0.00632
2850.13562	0.00727
2848.20725	0.00820
2846.27887	0.00908
2844.35050	0.00967
2842.42213	0.01015
2840.49375	0.01096
2838.56538	0.01186
2836.63701	0.01244
2834.70863	0.01280
2832.78026	0.01327
2830.85189	0.01405
2828.92352	0.01499
2826.99514	0.01579
2825.06677	0.01628
2823.13840	0.01663
2821.21002	0.01697
2819.28165	0.01721
2817.35328	0.01749
2815.42490	0.01803
2813.49653	0.01903
2811.56816	0.02037
2809.63978	0.02167
2807.71141	0.02260
2805.78304	0.02312
2803.85466	0.02368
2801.92629	0.02473
2799.99792	0.02597
2798.06954	0.02677
2796.14117	0.02714
2794.21280	0.02763
2792.28442	0.02832
2790.35605	0.02886
2788.42768	0.02935
2786.49930	0.03016
2784.57093	0.03112
2782.64256	0.03195
2780.71418	0.03270
2778.78581	0.03347
2776.85744	0.03427
2774.92907	0.03491
2773.00069	0.03532
2771.07232	0.03579
2769.14395	0.03637
2767.21557	0.03689
2765.28720	0.03759
2763.35883	0.03863
2761.43045	0.03949
2759.50208	0.03983
2757.57371	0.04007
2755.64533	0.04073
2753.71696	0.04168
2751.78859	0.04246
2749.86021	0.04304
2747.93184	0.04353
2746.00347	0.04387
2744.07509	0.04412
2742.14672	0.04437
2740.21835	0.04480
2738.28997	0.04561
2736.36160	0.04655
2734.43323	0.04726
2732.50485	0.04773
2730.57648	0.04808
2728.64811	0.04850
2726.71973	0.04914
2724.79136	0.04994
2722.86299	0.05086
2720.93461	0.05188
2719.00624	0.05281
2717.07787	0.05371
2715.14950	0.05472
2713.22112	0.05576
2711.29275	0.05657
2709.36438	0.05721
2707.43600	0.05795
2705.50763	0.05881
2703.57926	0.05954
2701.65088	0.06025
2699.72251	0.06117
2697.79414	0.06203
2695.86576	0.06263
2693.93739	0.06326
2692.00902	0.06425
2690.08064	0.06539
2688.15227	0.06620
2686.22390	0.06668
2684.29552	0.06732
2682.36715	0.06821
2680.43878	0.06891
2678.51040	0.06927
2676.58203	0.06972
2674.65366	0.07054
2672.72528	0.07145
2670.79691	0.07214
2668.86854	0.07277
2666.94016	0.07350
2665.01179	0.07425
2663.08342	0.07495
2661.15505	0.07564
2659.22667	0.07623
2657.29830	0.07666
2655.36993	0.07716
2653.44155	0.07767
2651.51318	0.07793
2649.58481	0.07826
2647.65643	0.07894
2645.72806	0.07959
2643.79969	0.07999
2641.87131	0.08040
2639.94294	0.08085
2638.01457	0.08114
2636.08619	0.08148
2634.15782	0.08226
2632.22945	0.08324
2630.30107	0.08382
2628.37270	0.08402
2626.44433	0.08425
2624.51595	0.08469
2622.58758	0.08524
2620.65921	0.08588
2618.73083	0.08672
2616.80246	0.08764
2614.87409	0.08828
2612.94571	0.08860
2611.01734	0.08900
2609.08897	0.08967
2607.16059	0.09048
2605.23222	0.09142
2603.30385	0.09243
2601.37548	0.09333
2599.44710	0.09425
2597.51873	0.09522
2595.59036	0.09597
2593.66198	0.09644
2591.73361	0.09683
2589.80524	0.09737
2587.87686	0.09807
2585.94849	0.09892
2584.02012	0.09990
2582.09174	0.10082
2580.16337	0.10162
2578.23500	0.10255
2576.30662	0.10361
2574.37825	0.10459
2572.44988	0.10551
2570.52150	0.10642
2568.59313	0.10730
2566.66476	0.10838
2564.73638	0.10980
2562.80801	0.11110
2560.87964	0.11201
2558.95126	0.11299
2557.02289	0.11443
2555.09452	0.11600
2553.16614	0.11731
2551.23777	0.11845
2549.30940	0.11959
2547.38103	0.12058
2545.45265	0.12129
2543.52428	0.12199
2541.59591	0.12287
2539.66753	0.12364
2537.73916	0.12414
2535.81079	0.12455
2533.88241	0.12503
2531.95404	0.12555
2530.02567	0.12604
2528.09729	0.12661
2526.16892	0.12745
2524.24055	0.12832
2522.31217	0.12890
2520.38380	0.12951
2518.45543	0.13030
2516.52705	0.13081
2514.59868	0.13108
2512.67031	0.13170
2510.74193	0.13270
2508.81356	0.13383
2506.88519	0.13503
2504.95681	0.13607
2503.02844	0.13674
2501.10007	0.13741
2499.17169	0.13846
2497.24332	0.13966
2495.31495	0.14060
2493.38657	0.14135
2491.45820	0.14232
2489.52983	0.14358
2487.60146	0.14470
2485.67308	0.14557
2483.74471	0.14646
2481.81634	0.14750
2479.88796	0.14876
2477.95959	0.15012
2476.03122	0.15138
2474.10284	0.15260
2472.17447	0.15386
2470.24610	0.15501
2468.31772	0.15608
2466.38935	0.15732
2464.46098	0.15871
2462.53260	0.16006
2460.60423	0.16133
2458.67586	0.16264
2456.74748	0.16403
2454.81911	0.16544
2452.89074	0.16675
2450.96236	0.16787
2449.03399	0.16898
2447.10562	0.17029
2445.17724	0.17158
2443.24887	0.17274
2441.32050	0.17387
2439.39212	0.17491
2437.46375	0.17584
2435.53538	0.17670
2433.60700	0.17755
2431.67863	0.17868
2429.75026	0.18021
2427.82189	0.18175
2425.89351	0.18284
2423.96514	0.18353
2422.03677	0.18437
2420.10839	0.18546
2418.18002	0.18657
2416.25165	0.18772
2414.32327	0.18891
2412.39490	0.18996
2410.46653	0.19096
2408.53815	0.19207
2406.60978	0.19334
2404.68141	0.19483
2402.75303	0.19646
2400.82466	0.19792
2398.89629	0.19917
2396.96791	0.20059
2395.03954	0.20231
2393.11117	0.20394
2391.18279	0.20533
2389.25442	0.20674
2387.32605	0.20821
2385.39767	0.20957
2383.46930	0.21088
2381.54093	0.21248
2379.61255	0.21447
2377.68418	0.21676
2375.75581	0.21905
2373.82744	0.22066
2371.89906	0.22166
2369.97069	0.22320
2368.04232	0.22643
2366.11394	0.23098
2364.18557	0.23470
2362.25720	0.23646
2360.32882	0.23701
2358.40045	0.23683
2356.47208	0.23641
2354.54370	0.23616
2352.61533	0.23570
2350.68696	0.23551
2348.75858	0.23633
2346.83021	0.23844
2344.90184	0.24163
2342.97346	0.24408
2341.04509	0.24478
2339.11672	0.24489
2337.18834	0.24474
2335.25997	0.24465
2333.33160	0.24531
2331.40322	0.24670
2329.47485	0.24787
2327.54648	0.24782
2325.61810	0.24721
2323.68973	0.24734
2321.76136	0.24809
2319.83298	0.24888
2317.90461	0.24968
2315.97624	0.25024
2314.04787	0.25052
2312.11949	0.25136
2310.19112	0.25301
2308.26275	0.25450
2306.33437	0.25550
2304.40600	0.25653
2302.47763	0.25760
2300.54925	0.25840
2298.62088	0.25894
2296.69251	0.25947
2294.76413	0.26012
2292.83576	0.26086
2290.90739	0.26154
2288.97901	0.26214
2287.05064	0.26275
2285.12227	0.26330
2283.19389	0.26373
2281.26552	0.26418
2279.33715	0.26468
2277.40877	0.26508
2275.48040	0.26538
2273.55203	0.26560
2271.62365	0.26575
2269.69528	0.26602
2267.76691	0.26644
2265.83853	0.26672
2263.91016	0.26684
2261.98179	0.26692
2260.05342	0.26693
2258.12504	0.26708
2256.19667	0.26754
2254.26830	0.26816
2252.33992	0.26878
2250.41155	0.26930
2248.48318	0.26962
2246.55480	0.26978
2244.62643	0.26992
2242.69806	0.27023
2240.76968	0.27068
2238.84131	0.27098
2236.91294	0.27106
2234.98456	0.27110
2233.05619	0.27112
2231.12782	0.27099
2229.19944	0.27079
2227.27107	0.27078
2225.34270	0.27099
2223.41432	0.27116
2221.48595	0.27115
2219.55758	0.27106
2217.62920	0.27088
2215.70083	0.27063
2213.77246	0.27047
2211.84408	0.27036
2209.91571	0.27017
2207.98734	0.26993
2206.05896	0.26976
2204.13059	0.26958
2202.20222	0.26931
2200.27385	0.26908
2198.34547	0.26886
2196.41710	0.26842
2194.48873	0.26800
2192.56035	0.26791
2190.63198	0.26789
2188.70361	0.26770
2186.77523	0.26739
2184.84686	0.26714
2182.91849	0.26706
2180.99011	0.26700
2179.06174	0.26688
2177.13337	0.26656
2175.20499	0.26601
2173.27662	0.26556
2171.34825	0.26538
2169.41987	0.26525
2167.49150	0.26504
2165.56313	0.26486
2163.63475	0.26480
2161.70638	0.26482
2159.77801	0.26481
2157.84963	0.26475
2155.92126	0.26476
2153.99289	0.26494
2152.06451	0.26514
2150.13614	0.26527
2148.20777	0.26539
2146.27940	0.26545
2144.35102	0.26555
2142.42265	0.26590
2140.49428	0.26647
2138.56590	0.26712
2136.63753	0.26763
2134.70916	0.26801
2132.78078	0.26851
2130.85241	0.26904
2128.92404	0.26961
2126.99566	0.27039
2125.06729	0.27122
2123.13892	0.27194
2121.21054	0.27267
2119.28217	0.27346
2117.35380	0.27424
2115.42542	0.27492
2113.49705	0.27552
2111.56868	0.27627
2109.64030	0.27720
2107.71193	0.27796
2105.78356	0.27840
2103.85518	0.27869
2101.92681	0.27910
2099.99844	0.27978
2098.07006	0.28057
2096.14169	0.28107
2094.21332	0.28133
2092.28494	0.28166
2090.35657	0.28199
2088.42820	0.28221
2086.49983	0.28245
2084.57145	0.28282
2082.64308	0.28321
2080.71471	0.28349
2078.78633	0.28386
2076.85796	0.28435
2074.92959	0.28468
2073.00121	0.28481
2071.07284	0.28509
2069.14447	0.28560
2067.21609	0.28622
2065.28772	0.28705
2063.35935	0.28807
2061.43097	0.28900
2059.50260	0.28982
2057.57423	0.29079
2055.64585	0.29199
2053.71748	0.29319
2051.78911	0.29444
2049.86073	0.29586
2047.93236	0.29722
2046.00399	0.29839
2044.07561	0.29940
2042.14724	0.30032
2040.21887	0.30128
2038.29049	0.30240
2036.36212	0.30346
2034.43375	0.30430
2032.50538	0.30496
2030.57700	0.30554
2028.64863	0.30599
2026.72026	0.30638
2024.79188	0.30691
2022.86351	0.30753
2020.93514	0.30817
2019.00676	0.30894
2017.07839	0.30969
2015.15002	0.31035
2013.22164	0.31113
2011.29327	0.31193
2009.36490	0.31271
2007.43652	0.31355
2005.50815	0.31440
2003.57978	0.31523
2001.65140	0.31607
1999.72303	0.31700
1997.79466	0.31806
1995.86628	0.31915
1993.93791	0.32003
1992.00954	0.32065
1990.08116	0.32124
1988.15279	0.32178
1986.22442	0.32202
1984.29604	0.32216
1982.36767	0.32234
1980.43930	0.32243
1978.51092	0.32265
1976.58255	0.32317
1974.65418	0.32360
1972.72581	0.32380
1970.79743	0.32400
1968.86906	0.32423
1966.94069	0.32440
1965.01231	0.32460
1963.08394	0.32487
1961.15557	0.32510
1959.22719	0.32545
1957.29882	0.32619
1955.37045	0.32700
1953.44207	0.32750
1951.51370	0.32798
1949.58533	0.32875
1947.65695	0.32973
1945.72858	0.33085
1943.80021	0.33209
1941.87183	0.33317
1939.94346	0.33386
1938.01509	0.33438
1936.08671	0.33493
1934.15834	0.33566
1932.22997	0.33645
1930.30159	0.33695
1928.37322	0.33743
1926.44485	0.33838
1924.51647	0.33950
1922.58810	0.34021
1920.65973	0.34058
1918.73135	0.34084
1916.80298	0.34094
1914.87461	0.34107
1912.94624	0.34137
1911.01786	0.34152
1909.08949	0.34144
1907.16112	0.34123
1905.23274	0.34082
1903.30437	0.34033
1901.37600	0.33997
1899.44762	0.33961
1897.51925	0.33909
1895.59088	0.33847
1893.66250	0.33788
1891.73413	0.33752
1889.80576	0.33742
1887.87738	0.33728
1885.94901	0.33698
1884.02064	0.33680
1882.09226	0.33689
1880.16389	0.33710
1878.23552	0.33726
1876.30714	0.33762
1874.37877	0.33814
1872.45040	0.33860
1870.52202	0.33906
1868.59365	0.33931
1866.66528	0.33911
1864.73690	0.33880
1862.80853	0.33869
1860.88016	0.33868
1858.95179	0.33873
1857.02341	0.33879
1855.09504	0.33851
1853.16667	0.33792
1851.23829	0.33753
1849.30992	0.33736
1847.38155	0.33708
1845.45317	0.33655
1843.52480	0.33569
1841.59643	0.33468
1839.66805	0.33388
1837.73968	0.33317
1835.81131	0.33245
1833.88293	0.33186
1831.95456	0.33154
1830.02619	0.33105
1828.09781	0.33002
1826.16944	0.32883
1824.24107	0.32731
1822.31269	0.32564
1820.38432	0.32444
1818.45595	0.32348
1816.52757	0.32221
1814.59920	0.32074
1812.67083	0.31948
1810.74245	0.31814
1808.81408	0.31629
1806.88571	0.31419
1804.95733	0.31215
1803.02896	0.30999
1801.10059	0.30742
1799.17222	0.30442
1797.24384	0.30102
1795.31547	0.29750
1793.38710	0.29353
1791.45872	0.28840
1789.53035	0.28327
1787.60198	0.27889
1785.67360	0.27438
1783.74523	0.26964
1781.81686	0.26504
1779.88848	0.26038
1777.96011	0.25615
1776.03174	0.25278
1774.10336	0.24944
1772.17499	0.24479
1770.24662	0.23915
1768.31824	0.23378
1766.38987	0.22895
1764.46150	0.22477
1762.53312	0.21987
1760.60475	0.21317
1758.67638	0.20583
1756.74800	0.19792
1754.81963	0.19017
1752.89126	0.18269
1750.96288	0.17318
1749.03451	0.16131
1747.10614	0.14992
1745.17777	0.13962
1743.24939	0.12947
1741.32102	0.11891
1739.39265	0.10808
1737.46427	0.09929
1735.53590	0.09162
1733.60753	0.08105
1731.67915	0.07053
1729.75078	0.06205
1727.82241	0.05394
1725.89403	0.04668
1723.96566	0.03993
1722.03729	0.03375
1720.10891	0.02875
1718.18054	0.02385
1716.25217	0.01869
1714.32379	0.01489
1712.39542	0.01188
1710.46705	0.00927
1708.53867	0.00688
1706.61030	0.00434
1704.68193	0.00213
1702.75355	0.00104
1700.82518	0.00064
1698.89681	0.00056
1696.96843	0.00105
1695.04006	0.00091
1693.11169	0.00044
1691.18331	0.00040
1689.25494	0.00059
1687.32657	0.00076
1685.39820	0.00087
1683.46982	0.00054
1681.54145	0.00048
1679.61308	0.00043
1677.68470	0.00065
1675.75633	0.00077
1673.82796	0.00051
1671.89958	0.00034
1669.97121	0.00098
1668.04284	0.00081
1666.11446	0.00062
1664.18609	0.00038
1662.25772	0.00057
1660.32934	0.00069
1658.40097	0.00080
1656.47260	0.00108
1654.54422	0.00118
1652.61585	0.00103
1650.68748	0.00106
1648.75910	0.00113
1646.83073	0.00091
1644.90236	0.00059
1642.97398	0.00064
1641.04561	0.00061
1639.11724	0.00078
1637.18886	0.00104
1635.26049	0.00096
1633.33212	0.00066
1631.40375	0.00049
1629.47537	0.00030
1627.54700	0.00023
1625.61863	0.00032
1623.69025	0.00047
1621.76188	0.00035
1619.83351	0.00034
1617.90513	0.00074
1615.97676	0.00095
1614.04839	0.00067
1612.12001	0.00051
1610.19164	0.00057
1608.26327	0.00063
1606.33489	0.00068
1604.40652	0.00064
1602.47815	0.00053
1600.54977	0.00075
1598.62140	0.00057
1596.69303	0.00065
1594.76465	0.00079
1592.83628	0.00070
1590.90791	0.00049
1588.97953	0.00024
1587.05116	0.00012
1585.12279	0.00020
1583.19441	0.00044
1581.26604	0.00067
1579.33767	0.00057
1577.40929	0.00027
1575.48092	0.00065
1573.55255	0.00078
1571.62418	0.00067
1569.69580	0.00042
1567.76743	0.00026
1565.83906	0.00059
1563.91068	0.00060
1561.98231	0.00040
1560.05394	0.00046
1558.12556	0.00099
1556.19719	0.00093
1554.26882	0.00042
1552.34044	0.00026
1550.41207	0.00047
1548.48370	0.00071
1546.55532	0.00062
1544.62695	0.00040
1542.69858	0.00121
1540.77020	0.00178
1538.84183	0.00169
1536.91346	0.00118
1534.98508	0.00089
1533.05671	0.00064
1531.12834	0.00064
1529.19996	0.00096
1527.27159	0.00105
1525.34322	0.00056
1523.41484	0.00057
1521.48647	0.00101
1519.55810	0.00127
1517.62972	0.00109
1515.70135	0.00083
1513.77298	0.00073
1511.84461	0.00070
1509.91623	0.00088
1507.98786	0.00126
1506.05949	0.00114
1504.13111	0.00061
1502.20274	0.00043
1500.27437	0.00067
1498.34599	0.00061
1496.41762	0.00061
1494.48925	0.00042
1492.56087	0.00048
1490.63250	0.00074
1488.70413	0.00086
1486.77575	0.00094
1484.84738	0.00096
1482.91901	0.00058
1480.99063	0.00040
1479.06226	0.00030
1477.13389	0.00047
1475.20551	0.00066
1473.27714	0.00076
1471.34877	0.00055
1469.42039	0.00041
1467.49202	0.00066
1465.56365	0.00072
1463.63527	0.00050
1461.70690	0.00044
1459.77853	0.00052
1457.85016	0.00124
1455.92178	0.00143
1453.99341	0.00098
1452.06504	0.00070
1450.13666	0.00041
1448.20829	0.00051
1446.27992	0.00061
1444.35154	0.00061
1442.42317	0.00052
1440.49480	0.00035
1438.56642	0.00032
1436.63805	0.00027
1434.70968	0.00050
1432.78130	0.00057
1430.85293	0.00062
1428.92456	0.00053
1426.99618	0.00067
1425.06781	0.00055
1423.13944	0.00065
1421.21106	0.00085
1419.28269	0.00073
1417.35432	0.00037
1415.42594	0.00056
1413.49757	0.00058
1411.56920	0.00048
1409.64082	0.00036
1407.71245	0.00045
1405.78408	0.00046
1403.85570	0.00060
1401.92733	0.00087
1399.99896	0.00103
1398.07059	0.00116
1396.14221	0.00114
1394.21384	0.00087
1392.28547	0.00051
1390.35709	0.00033
1388.42872	0.00080
1386.50035	0.00095
1384.57197	0.00061
1382.64360	0.00068
1380.71523	0.00057
1378.78685	0.00045
1376.85848	0.00074
1374.93011	0.00114
1373.00173	0.00108
1371.07336	0.00067
1369.14499	0.00039
1367.21661	0.00047
1365.28824	0.00075
1363.35987	0.00089
1361.43149	0.00088
1359.50312	0.00084
1357.57475	0.00083
1355.64637	0.00094
1353.71800	0.00103
1351.78963	0.00102
1349.86125	0.00088
1347.93288	0.00071
1346.00451	0.00053
1344.07614	0.00045
1342.14776	0.00061
1340.21939	0.00068
1338.29102	0.00085
1336.36264	0.00092
1334.43427	0.00086
1332.50590	0.00112
1330.57752	0.00085
1328.64915	0.00037
1326.72078	0.00043
1324.79240	0.00051
1322.86403	0.00081
1320.93566	0.00070
1319.00728	0.00055
1317.07891	0.00060
1315.15054	0.00036
1313.22216	0.00022
1311.29379	0.00035
1309.36542	0.00069
1307.43704	0.00058
1305.50867	0.00051
1303.58030	0.00051
1301.65192	0.00069
1299.72355	0.00088
1297.79518	0.00107
1295.86680	0.00125
1293.93843	0.00144
1292.01006	0.00164
1290.08168	0.00146
1288.15331	0.00067
1286.22494	0.00031
1284.29657	0.00050
1282.36819	0.00115
1280.43982	0.00148
1278.51145	0.00129
1276.58307	0.00121
1274.65470	0.00115
1272.72633	0.00087
1270.79795	0.00063
1268.86958	0.00057
1266.94121	0.00040
1265.01283	0.00065
1263.08446	0.00119
1261.15609	0.00115
1259.22771	0.00082
1257.29934	0.00055
1255.37097	0.00094
1253.44259	0.00128
1251.51422	0.00102
1249.58585	0.00054
1247.65747	0.00088
1245.72910	0.00138
1243.80073	0.00112
1241.87235	0.00060
1239.94398	0.00066
1238.01561	0.00110
1236.08723	0.00137
1234.15886	0.00127
1232.23049	0.00110
1230.30212	0.00114
1228.37374	0.00105
1226.44537	0.00128
1224.51700	0.00192
1222.58862	0.00159
1220.66025	0.00109
1218.73188	0.00166
1216.80350	0.00176
1214.87513	0.00100
1212.94676	0.00099
1211.01838	0.00156
1209.09001	0.00166
1207.16164	0.00180
1205.23326	0.00193
1203.30489	0.00196
1201.37652	0.00225
1199.44814	0.00251
1197.51977	0.00231
1195.59140	0.00182
1193.66302	0.00182
1191.73465	0.00250
1189.80628	0.00320
1187.87790	0.00331
1185.94953	0.00280
1184.02116	0.00236
1182.09278	0.00213
1180.16441	0.00157
1178.23604	0.00129
1176.30766	0.00221
1174.37929	0.00252
1172.45092	0.00229
1170.52255	0.00166
1168.59417	0.00076
1166.66580	0.00099
1164.73743	0.00144
1162.80905	0.00118
1160.88068	0.00083
1158.95231	0.00147
1157.02393	0.00145
1155.09556	0.00073
1153.16719	0.00118
1151.23881	0.00117
1149.31044	0.00139
1147.38207	0.00175
1145.45369	0.00161
1143.52532	0.00126
1141.59695	0.00127
1139.66857	0.00189
1137.74020	0.00222
1135.81183	0.00137
1133.88345	0.00081
1131.95508	0.00110
1130.02671	0.00154
1128.09833	0.00150
1126.16996	0.00125
1124.24159	0.00070
1122.31321	0.00082
1120.38484	0.00153
1118.45647	0.00162
1116.52809	0.00169
1114.59972	0.00141
1112.67135	0.00116
1110.74298	0.00157
1108.81460	0.00138
1106.88623	0.00090
1104.95786	0.00092
1103.02948	0.00174
1101.10111	0.00155
1099.17274	0.00101
1097.24436	0.00167
1095.31599	0.00229
1093.38762	0.00249
1091.45924	0.00216
1089.53087	0.00202
1087.60250	0.00154
1085.67412	0.00131
1083.74575	0.00241
1081.81738	0.00244
1079.88900	0.00291
1077.96063	0.00239
1076.03226	0.00126
1074.10388	0.00098
1072.17551	0.00153
1070.24714	0.00184
1068.31876	0.00179
1066.39039	0.00134
1064.46202	0.00113
1062.53364	0.00106
1060.60527	0.00067
1058.67690	0.00115
1056.74853	0.00064
1054.82015	0.00111
1052.89178	0.00078
1050.96341	0.00096
1049.03503	0.00138
1047.10666	0.00158
1045.17829	0.00160
1043.24991	0.00116
1041.32154	0.00134
1039.39317	0.00143
1037.46479	0.00143
1035.53642	0.00158
1033.60805	0.00151
1031.67967	0.00090
1029.75130	0.00125
1027.82293	0.00174
1025.89455	0.00186
1023.96618	0.00230
1022.03781	0.00242
1020.10943	0.00229
1018.18106	0.00162
1016.25269	0.00098
1014.32431	0.00134
1012.39594	0.00150
1010.46757	0.00078
1008.53919	0.00077
1006.61082	0.00125
1004.68245	0.00194
1002.75407	0.00186
1000.82570	0.00203
998.89733	0.00334
996.96896	0.00538
995.04058	0.00726
993.11221	0.00887
991.18384	0.01086
989.25546	0.01283
987.32709	0.01396
985.39872	0.01417
983.47034	0.01382
981.54197	0.01315
979.61360	0.01221
977.68522	0.01146
975.75685	0.01179
973.82848	0.01345
971.90010	0.01574
969.97173	0.01834
968.04336	0.02162
966.11498	0.02519
964.18661	0.02745
962.25824	0.02664
960.32986	0.02213
958.40149	0.01539
956.47312	0.00976
954.54474	0.00758
952.61637	0.00904
950.68800	0.01327
948.75962	0.01880
946.83125	0.02459
944.90288	0.03072
942.97451	0.03712
941.04613	0.04316
939.11776	0.04860
937.18939	0.05351
935.26101	0.05764
933.33264	0.06042
931.40427	0.06213
929.47589	0.06328
927.54752	0.06328
925.61915	0.06194
923.69077	0.06021
921.76240	0.05888
919.83403	0.05863
917.90565	0.06037
915.97728	0.06334
914.04891	0.06547
912.12053	0.06587
910.19216	0.06410
908.26379	0.05977
906.33541	0.05334
904.40704	0.04624
902.47867	0.04037
900.55029	0.03652
898.62192	0.03423
896.69355	0.03353
894.76517	0.03490
892.83680	0.03763
890.90843	0.04102
888.98005	0.04531
887.05168	0.04998
885.12331	0.05438
883.19494	0.05798
881.26656	0.05988
879.33819	0.06039
877.40982	0.06060
875.48144	0.06075
873.55307	0.06061
871.62470	0.06055
869.69632	0.06103
867.76795	0.06131
865.83958	0.06035
863.91120	0.05856
861.98283	0.05733
860.05446	0.05684
858.12608	0.05612
856.19771	0.05467
854.26934	0.05274
852.34096	0.05128
850.41259	0.05066
848.48422	0.04993
846.55584	0.04897
844.62747	0.04846
842.69910	0.04769
840.77072	0.04635
838.84235	0.04523
836.91398	0.04347
834.98560	0.04029
833.05723	0.03747
831.12886	0.03616
829.20049	0.03526
827.27211	0.03423
825.34374	0.03324
823.41537	0.03211
821.48699	0.03143
819.55862	0.03115
817.63025	0.03014
815.70187	0.02921
813.77350	0.02929
811.84513	0.02909
809.91675	0.02839
807.98838	0.02803
806.06001	0.02737
804.13163	0.02565
802.20326	0.02338
800.27489	0.02157
798.34651	0.02075
796.41814	0.01957
794.48977	0.01718
792.56139	0.01517
790.63302	0.01400
788.70465	0.01249
786.77627	0.01090
784.84790	0.01047
782.91953	0.01096
780.99115	0.01120
779.06278	0.01092
777.13441	0.01052
775.20603	0.01000
773.27766	0.00943
771.34929	0.00889
769.42092	0.00832
767.49254	0.00782
765.56417	0.00759
763.63580	0.00779
761.70742	0.00771
759.77905	0.00669
757.85068	0.00537
755.92230	0.00436
753.99393	0.00352
752.06556	0.00318
750.13718	0.00359
748.20881	0.00416
746.28044	0.00485
744.35206	0.00524
742.42369	0.00510
740.49532	0.00478
738.56694	0.00442
736.63857	0.00407
734.71020	0.00357
732.78182	0.00288
730.85345	0.00255
728.92508	0.00241
726.99670	0.00273
725.06833	0.00447
723.13996	0.00524
721.21158	0.00475
719.28321	0.00438
717.35484	0.00370
715.42647	0.00311
713.49809	0.00235
711.56972	0.00272
709.64135	0.00321
707.71297	0.00206
705.78460	0.00087
703.85623	0.00202
701.92785	0.00305
699.99948	0.00297
698.07111	0.00433
696.14273	0.00498
694.21436	0.00318
692.28599	0.00441
690.35761	0.00474
688.42924	0.00428
686.50087	0.00411
684.57249	0.00377
682.64412	0.00312
680.71575	0.00318
678.78737	0.00309
676.85900	0.00228
674.93063	0.00344
673.00225	0.00472
671.07388	0.00559
669.14551	0.00492
667.21713	0.00433
665.28876	0.00413
663.36039	0.00252
661.43201	0.00177
659.50364	0.00334
657.57527	0.00307
655.64690	0.00288
653.71852	0.00440
651.79015	0.00572
649.86178	0.00584
647.93340	0.00559
646.00503	0.00404
644.07666	0.00379
642.14828	0.00393
640.21991	0.00310
638.29154	0.00219
636.36316	0.00218
634.43479	0.00283
632.50642	0.00251
630.57804	0.00200
628.64967	0.00437
626.72130	0.00622
624.79292	0.00696
622.86455	0.00362
620.93618	0.00360
619.00780	0.00411
617.07943	0.00310
615.15106	0.00583
613.22268	0.00680
611.29431	0.00164
609.36594	0.00396
607.43756	0.00765
605.50919	0.01002
603.58082	0.00744
601.65244	0.01097
599.72407	0.01338
