3997.51769	0.25102
3995.58931	0.25144
3993.66094	0.25201
3991.73257	0.25225
3989.80419	0.25223
3987.87582	0.25239
3985.94745	0.25295
3984.01907	0.25332
3982.09070	0.25309
3980.16233	0.25302
3978.23396	0.25345
3976.30558	0.25381
3974.37721	0.25382
3972.44884	0.25383
3970.52046	0.25420
3968.59209	0.25469
3966.66372	0.25517
3964.73534	0.25601
3962.80697	0.25700
3960.87860	0.25730
3958.95022	0.25684
3957.02185	0.25658
3955.09348	0.25706
3953.16510	0.25799
3951.23673	0.25908
3949.30836	0.26025
3947.37998	0.26111
3945.45161	0.26125
3943.52324	0.26118
3941.59486	0.26135
3939.66649	0.26165
3937.73812	0.26213
3935.80974	0.26289
3933.88137	0.26379
3931.95300	0.26451
3930.02462	0.26467
3928.09625	0.26470
3926.16788	0.26522
3924.23950	0.26598
3922.31113	0.26646
3920.38276	0.26692
3918.45439	0.26746
3916.52601	0.26761
3914.59764	0.26747
3912.66927	0.26753
3910.74089	0.26811
3908.81252	0.26951
3906.88415	0.27153
3904.95577	0.27340
3903.02740	0.27447
3901.09903	0.27477
3899.17065	0.27451
3897.24228	0.27431
3895.31391	0.27462
3893.38553	0.27528
3891.45716	0.27585
3889.52879	0.27613
3887.60041	0.27654
3885.67204	0.27703
3883.74367	0.27732
3881.81529	0.27787
3879.88692	0.27882
3877.95855	0.27954
3876.03017	0.27999
3874.10180	0.28052
3872.17343	0.28134
3870.24505	0.28243
3868.31668	0.28329
3866.38831	0.28389
3864.45994	0.28454
3862.53156	0.28496
3860.60319	0.28532
3858.67482	0.28585
3856.74644	0.28627
3854.81807	0.28662
3852.88970	0.28674
3850.96132	0.28631
3849.03295	0.28606
3847.10458	0.28652
3845.17620	0.28745
3843.24783	0.28796
3841.31946	0.28819
3839.39108	0.28889
3837.46271	0.28940
3835.53434	0.28920
3833.60596	0.28908
3831.67759	0.28917
3829.74922	0.28918
3827.82084	0.28911
3825.89247	0.28910
3823.96410	0.28961
3822.03572	0.29074
3820.10735	0.29154
3818.17898	0.29204
3816.25060	0.29290
3814.32223	0.29309
3812.39386	0.29232
3810.46548	0.29170
3808.53711	0.29196
3806.60874	0.29272
3804.68037	0.29283
3802.75199	0.29286
3800.82362	0.29332
3798.89525	0.29356
3796.96687	0.29346
3795.03850	0.29314
3793.11013	0.29293
3791.18175	0.29279
3789.25338	0.29246
3787.32501	0.29216
3785.39663	0.29209
3783.46826	0.29227
3781.53989	0.29268
3779.61151	0.29283
3777.68314	0.29209
3775.75477	0.29129
3773.82639	0.29151
3771.89802	0.29229
3769.96965	0.29254
3768.04127	0.29212
3766.11290	0.29186
3764.18453	0.29168
3762.25615	0.29111
3760.32778	0.29033
3758.39941	0.28976
3756.47103	0.28964
3754.54266	0.28987
3752.61429	0.29059
3750.68591	0.29144
3748.75754	0.29110
3746.82917	0.29053
3744.90080	0.29058
3742.97242	0.28985
3741.04405	0.28819
3739.11568	0.28727
3737.18730	0.28718
3735.25893	0.28655
3733.33056	0.28475
3731.40218	0.28300
3729.47381	0.28207
3727.54544	0.28159
3725.61706	0.28100
3723.68869	0.27995
3721.76032	0.27842
3719.83194	0.27694
3717.90357	0.27579
3715.97520	0.27476
3714.04682	0.27390
3712.11845	0.27350
3710.19008	0.27210
3708.26170	0.26904
3706.33333	0.26601
3704.40496	0.26364
3702.47658	0.26144
3700.54821	0.25875
3698.61984	0.25587
3696.69146	0.25296
3694.76309	0.25026
3692.83472	0.24778
3690.90635	0.24430
3688.97797	0.23871
3687.04960	0.23214
3685.12123	0.22613
3683.19285	0.22035
3681.26448	0.21435
3679.33611	0.20834
3677.40773	0.20231
3675.47936	0.19437
3673.55099	0.18572
3671.62261	0.17878
3669.69424	0.17041
3667.76587	0.16099
3665.83749	0.15308
3663.90912	0.14555
3661.98075	0.13792
3660.05237	0.13068
3658.12400	0.12390
3656.19563	0.11645
3654.26725	0.10941
3652.33888	0.10389
3650.41051	0.09754
3648.48213	0.08888
3646.55376	0.08101
3644.62539	0.07548
3642.69701	0.07098
3640.76864	0.06646
3638.84027	0.06188
3636.91189	0.05758
3634.98352	0.05352
3633.05515	0.04943
3631.12678	0.04554
3629.19840	0.04176
3627.27003	0.03849
3625.34166	0.03605
3623.41328	0.03356
3621.48491	0.03081
3619.55654	0.02777
3617.62816	0.02496
3615.69979	0.02313
3613.77142	0.02173
3611.84304	0.01995
3609.91467	0.01797
3607.98630	0.01634
3606.05792	0.01503
3604.12955	0.01370
3602.20118	0.01224
3600.27280	0.01099
3598.34443	0.01020
3596.41606	0.00966
3594.48768	0.00907
3592.55931	0.00831
3590.63094	0.00764
3588.70256	0.00709
3586.77419	0.00647
3584.84582	0.00582
3582.91744	0.00514
3580.98907	0.00420
3579.06070	0.00326
3577.13233	0.00292
3575.20395	0.00306
3573.27558	0.00317
3571.34721	0.00302
3569.41883	0.00249
3567.49046	0.00187
3565.56209	0.00178
3563.63371	0.00189
3561.70534	0.00161
3559.77697	0.00122
3557.84859	0.00114
3555.92022	0.00124
3553.99185	0.00142
3552.06347	0.00141
3550.13510	0.00142
3548.20673	0.00164
3546.27835	0.00150
3544.34998	0.00087
3542.42161	0.00057
3540.49323	0.00059
3538.56486	0.00054
3536.63649	0.00063
3534.70811	0.00076
3532.77974	0.00074
3530.85137	0.00053
3528.92299	0.00030
3526.99462	0.00052
3525.06625	0.00099
3523.13787	0.00107
3521.20950	0.00075
3519.28113	0.00069
3517.35276	0.00056
3515.42438	0.00071
3513.49601	0.00075
3511.56764	0.00081
3509.63926	0.00079
3507.71089	0.00062
3505.78252	0.00070
3503.85414	0.00086
3501.92577	0.00098
3499.99740	0.00069
3498.06902	0.00072
3496.14065	0.00108
3494.21228	0.00114
3492.28390	0.00073
3490.35553	0.00062
3488.42716	0.00065
3486.49878	0.00086
3484.57041	0.00057
3482.64204	0.00044
3480.71366	0.00054
3478.78529	0.00046
3476.85692	0.00031
3474.92854	0.00076
3473.00017	0.00089
3471.07180	0.00036
3469.14342	0.00064
3467.21505	0.00117
3465.28668	0.00127
3463.35831	0.00099
3461.42993	0.00087
3459.50156	0.00096
3457.57319	0.00107
3455.64481	0.00121
3453.71644	0.00114
3451.78807	0.00088
3449.85969	0.00080
3447.93132	0.00084
3446.00295	0.00082
3444.07457	0.00039
3442.14620	0.00076
3440.21783	0.00122
3438.28945	0.00140
3436.36108	0.00119
3434.43271	0.00124
3432.50433	0.00114
3430.57596	0.00102
3428.64759	0.00154
3426.71921	0.00155
3424.79084	0.00103
3422.86247	0.00071
3420.93409	0.00061
3419.00572	0.00052
3417.07735	0.00074
3415.14897	0.00079
3413.22060	0.00049
3411.29223	0.00030
3409.36385	0.00072
3407.43548	0.00128
3405.50711	0.00131
3403.57874	0.00085
3401.65036	0.00074
3399.72199	0.00046
3397.79362	0.00051
3395.86524	0.00076
3393.93687	0.00077
3392.00850	0.00033
3390.08012	0.00024
3388.15175	0.00023
3386.22338	0.00026
3384.29500	0.00033
3382.36663	0.00037
3380.43826	0.00075
3378.50988	0.00068
3376.58151	0.00054
3374.65314	0.00046
3372.72476	0.00049
3370.79639	0.00080
3368.86802	0.00073
3366.93964	0.00062
3365.01127	0.00104
3363.08290	0.00089
3361.15452	0.00047
3359.22615	0.00066
3357.29778	0.00068
3355.36940	0.00050
3353.44103	0.00033
3351.51266	0.00064
3349.58428	0.00082
3347.65591	0.00084
3345.72754	0.00077
3343.79917	0.00064
3341.87079	0.00096
3339.94242	0.00101
3338.01405	0.00110
3336.08567	0.00132
3334.15730	0.00104
3332.22893	0.00054
3330.30055	0.00020
3328.37218	0.00044
3326.44381	0.00034
3324.51543	0.00089
3322.58706	0.00107
3320.65869	0.00084
3318.73031	0.00097
3316.80194	0.00057
3314.87357	0.00039
3312.94519	0.00077
3311.01682	0.00063
3309.08845	0.00074
3307.16007	0.00105
3305.23170	0.00086
3303.30333	0.00056
3301.37495	0.00094
3299.44658	0.00145
3297.51821	0.00146
3295.58983	0.00123
3293.66146	0.00107
3291.73309	0.00083
3289.80472	0.00064
3287.87634	0.00041
3285.94797	0.00027
3284.01960	0.00040
3282.09122	0.00042
3280.16285	0.00074
3278.23448	0.00115
3276.30610	0.00116
3274.37773	0.00102
3272.44936	0.00088
3270.52098	0.00060
3268.59261	0.00051
3266.66424	0.00038
3264.73586	0.00056
3262.80749	0.00071
3260.87912	0.00051
3258.95074	0.00044
3257.02237	0.00056
3255.09400	0.00056
3253.16562	0.00058
3251.23725	0.00055
3249.30888	0.00065
3247.38050	0.00051
3245.45213	0.00038
3243.52376	0.00051
3241.59538	0.00065
3239.66701	0.00060
3237.73864	0.00052
3235.81026	0.00055
3233.88189	0.00054
3231.95352	0.00082
3230.02515	0.00123
3228.09677	0.00099
3226.16840	0.00057
3224.24003	0.00074
3222.31165	0.00089
3220.38328	0.00137
3218.45491	0.00147
3216.52653	0.00127
3214.59816	0.00106
3212.66979	0.00099
3210.74141	0.00100
3208.81304	0.00107
3206.88467	0.00099
3204.95629	0.00101
3203.02792	0.00098
3201.09955	0.00075
3199.17117	0.00065
3197.24280	0.00080
3195.31443	0.00098
3193.38605	0.00100
3191.45768	0.00069
3189.52931	0.00033
3187.60093	0.00068
3185.67256	0.00050
3183.74419	0.00059
3181.81581	0.00051
3179.88744	0.00021
3177.95907	0.00046
3176.03070	0.00041
3174.10232	0.00061
3172.17395	0.00059
3170.24558	0.00088
3168.31720	0.00085
3166.38883	0.00086
3164.46046	0.00139
3162.53208	0.00172
3160.60371	0.00146
3158.67534	0.00102
3156.74696	0.00075
3154.81859	0.00088
3152.89022	0.00132
3150.96184	0.00105
3149.03347	0.00042
3147.10510	0.00051
3145.17672	0.00061
3143.24835	0.00072
3141.31998	0.00116
3139.39160	0.00110
3137.46323	0.00073
3135.53486	0.00099
3133.60648	0.00104
3131.67811	0.00072
3129.74974	0.00070
3127.82136	0.00068
3125.89299	0.00069
3123.96462	0.00100
3122.03624	0.00130
3120.10787	0.00112
3118.17950	0.00067
3116.25113	0.00047
3114.32275	0.00062
3112.39438	0.00084
3110.46601	0.00094
3108.53763	0.00075
3106.60926	0.00025
3104.68089	0.00048
3102.75251	0.00098
3100.82414	0.00113
3098.89577	0.00092
3096.96739	0.00087
3095.03902	0.00077
3093.11065	0.00057
3091.18227	0.00039
3089.25390	0.00039
3087.32553	0.00041
3085.39715	0.00047
3083.46878	0.00042
3081.54041	0.00038
3079.61203	0.00031
3077.68366	0.00025
3075.75529	0.00055
3073.82691	0.00074
3071.89854	0.00066
3069.97017	0.00059
3068.04179	0.00047
3066.11342	0.00055
3064.18505	0.00091
3062.25668	0.00095
3060.32830	0.00110
3058.39993	0.00106
3056.47156	0.00075
3054.54318	0.00071
3052.61481	0.00092
3050.68644	0.00094
3048.75806	0.00120
3046.82969	0.00144
3044.90132	0.00129
3042.97294	0.00133
3041.04457	0.00142
3039.11620	0.00167
3037.18782	0.00161
3035.25945	0.00124
3033.33108	0.00105
3031.40270	0.00128
3029.47433	0.00116
3027.54596	0.00102
3025.61758	0.00150
3023.68921	0.00198
3021.76084	0.00227
3019.83246	0.00247
3017.90409	0.00243
3015.97572	0.00236
3014.04734	0.00239
3012.11897	0.00242
3010.19060	0.00254
3008.26222	0.00243
3006.33385	0.00222
3004.40548	0.00228
3002.47711	0.00258
3000.54873	0.00255
2998.62036	0.00220
2996.69199	0.00199
2994.76361	0.00211
2992.83524	0.00239
2990.90687	0.00235
2988.97849	0.00172
2987.05012	0.00092
2985.12175	0.00076
2983.19337	0.00070
2981.26500	0.00098
2979.33663	0.00105
2977.40825	0.00083
2975.47988	0.00063
2973.55151	0.00105
2971.62313	0.00138
2969.69476	0.00129
2967.76639	0.00123
2965.83801	0.00111
2963.90964	0.00098
2961.98127	0.00126
2960.05289	0.00168
2958.12452	0.00166
2956.19615	0.00180
2954.26777	0.00166
2952.33940	0.00126
2950.41103	0.00133
2948.48266	0.00156
2946.55428	0.00168
2944.62591	0.00170
2942.69754	0.00160
2940.76916	0.00122
2938.84079	0.00073
2936.91242	0.00081
2934.98404	0.00087
2933.05567	0.00051
2931.12730	0.00097
2929.19892	0.00110
2927.27055	0.00161
2925.34218	0.00188
2923.41380	0.00191
2921.48543	0.00152
2919.55706	0.00069
2917.62868	0.00067
2915.70031	0.00100
2913.77194	0.00084
2911.84356	0.00081
2909.91519	0.00137
2907.98682	0.00201
2906.05844	0.00183
2904.13007	0.00117
2902.20170	0.00071
2900.27332	0.00041
2898.34495	0.00083
2896.41658	0.00115
2894.48820	0.00152
2892.55983	0.00143
2890.63146	0.00095
2888.70309	0.00098
2886.77471	0.00129
2884.84634	0.00135
2882.91797	0.00141
2880.98959	0.00147
2879.06122	0.00132
2877.13285	0.00132
2875.20447	0.00157
2873.27610	0.00180
2871.34773	0.00174
2869.41935	0.00149
2867.49098	0.00136
2865.56261	0.00144
2863.63423	0.00168
2861.70586	0.00214
2859.77749	0.00286
2857.84911	0.00351
2855.92074	0.00372
2853.99237	0.00385
2852.06399	0.00439
2850.13562	0.00510
2848.20725	0.00550
2846.27887	0.00560
2844.35050	0.00584
2842.42213	0.00633
2840.49375	0.00696
2838.56538	0.00772
2836.63701	0.00831
2834.70863	0.00852
2832.78026	0.00857
2830.85189	0.00882
2828.92352	0.00936
2826.99514	0.01001
2825.06677	0.01045
2823.13840	0.01079
2821.21002	0.01137
2819.28165	0.01212
2817.35328	0.01280
2815.42490	0.01338
2813.49653	0.01377
2811.56816	0.01407
2809.63978	0.01455
2807.71141	0.01505
2805.78304	0.01547
2803.85466	0.01599
2801.92629	0.01681
2799.99792	0.01783
2798.06954	0.01884
2796.14117	0.01960
2794.21280	0.02004
2792.28442	0.02048
2790.35605	0.02101
2788.42768	0.02137
2786.49930	0.02155
2784.57093	0.02187
2782.64256	0.02262
2780.71418	0.02350
2778.78581	0.02400
2776.85744	0.02431
2774.92907	0.02483
2773.00069	0.02532
2771.07232	0.02560
2769.14395	0.02600
2767.21557	0.02665
2765.28720	0.02737
2763.35883	0.02799
2761.43045	0.02837
2759.50208	0.02869
2757.57371	0.02934
2755.64533	0.03001
2753.71696	0.03034
2751.78859	0.03060
2749.86021	0.03106
2747.93184	0.03170
2746.00347	0.03243
2744.07509	0.03300
2742.14672	0.03327
2740.21835	0.03350
2738.28997	0.03399
2736.36160	0.03452
2734.43323	0.03488
2732.50485	0.03530
2730.57648	0.03578
2728.64811	0.03601
2726.71973	0.03614
2724.79136	0.03654
2722.86299	0.03734
2720.93461	0.03832
2719.00624	0.03925
2717.07787	0.04006
2715.14950	0.04069
2713.22112	0.04118
2711.29275	0.04183
2709.36438	0.04265
2707.43600	0.04337
2705.50763	0.04394
2703.57926	0.04440
2701.65088	0.04490
2699.72251	0.04549
2697.79414	0.04600
2695.86576	0.04649
2693.93739	0.04705
2692.00902	0.04750
2690.08064	0.04783
2688.15227	0.04825
2686.22390	0.04887
2684.29552	0.04952
2682.36715	0.04995
2680.43878	0.05018
2678.51040	0.05041
2676.58203	0.05092
2674.65366	0.05182
2672.72528	0.05283
2670.79691	0.05360
2668.86854	0.05413
2666.94016	0.05446
2665.01179	0.05463
2663.08342	0.05485
2661.15505	0.05532
2659.22667	0.05589
2657.29830	0.05636
2655.36993	0.05675
2653.44155	0.05706
2651.51318	0.05729
2649.58481	0.05743
2647.65643	0.05748
2645.72806	0.05783
2643.79969	0.05858
2641.87131	0.05916
2639.94294	0.05940
2638.01457	0.05965
2636.08619	0.05989
2634.15782	0.06004
2632.22945	0.06035
2630.30107	0.06090
2628.37270	0.06147
2626.44433	0.06190
2624.51595	0.06220
2622.58758	0.06256
2620.65921	0.06309
2618.73083	0.06357
2616.80246	0.06389
2614.87409	0.06429
2612.94571	0.06489
2611.01734	0.06552
2609.08897	0.06612
2607.16059	0.06674
2605.23222	0.06729
2603.30385	0.06779
2601.37548	0.06848
2599.44710	0.06929
2597.51873	0.06992
2595.59036	0.07035
2593.66198	0.07074
2591.73361	0.07122
2589.80524	0.07196
2587.87686	0.07285
2585.94849	0.07346
2584.02012	0.07376
2582.09174	0.07413
2580.16337	0.07483
2578.23500	0.07577
2576.30662	0.07663
2574.37825	0.07730
2572.44988	0.07789
2570.52150	0.07848
2568.59313	0.07916
2566.66476	0.08021
2564.73638	0.08163
2562.80801	0.08300
2560.87964	0.08417
2558.95126	0.08535
2557.02289	0.08660
2555.09452	0.08758
2553.16614	0.08804
2551.23777	0.08837
2549.30940	0.08902
2547.38103	0.08979
2545.45265	0.09039
2543.52428	0.09099
2541.59591	0.09180
2539.66753	0.09253
2537.73916	0.09289
2535.81079	0.09297
2533.88241	0.09311
2531.95404	0.09350
2530.02567	0.09414
2528.09729	0.09491
2526.16892	0.09556
2524.24055	0.09606
2522.31217	0.09644
2520.38380	0.09671
2518.45543	0.09693
2516.52705	0.09721
2514.59868	0.09772
2512.67031	0.09847
2510.74193	0.09920
2508.81356	0.09977
2506.88519	0.10025
2504.95681	0.10077
2503.02844	0.10144
2501.10007	0.10237
2499.17169	0.10350
2497.24332	0.10451
2495.31495	0.10522
2493.38657	0.10575
2491.45820	0.10631
2489.52983	0.10711
2487.60146	0.10821
2485.67308	0.10947
2483.74471	0.11054
2481.81634	0.11124
2479.88796	0.11184
2477.95959	0.11271
2476.03122	0.11367
2474.10284	0.11434
2472.17447	0.11489
2470.24610	0.11568
2468.31772	0.11662
2466.38935	0.11741
2464.46098	0.11818
2462.53260	0.11926
2460.60423	0.12053
2458.67586	0.12168
2456.74748	0.12269
2454.81911	0.12354
2452.89074	0.12428
2450.96236	0.12517
2449.03399	0.12616
2447.10562	0.12710
2445.17724	0.12821
2443.24887	0.12945
2441.32050	0.13055
2439.39212	0.13149
2437.46375	0.13232
2435.53538	0.13311
2433.60700	0.13391
2431.67863	0.13463
2429.75026	0.13533
2427.82189	0.13614
2425.89351	0.13705
2423.96514	0.13794
2422.03677	0.13881
2420.10839	0.13951
2418.18002	0.13996
2416.25165	0.14043
2414.32327	0.14128
2412.39490	0.14243
2410.46653	0.14366
2408.53815	0.14481
2406.60978	0.14591
2404.68141	0.14700
2402.75303	0.14812
2400.82466	0.14940
2398.89629	0.15070
2396.96791	0.15187
2395.03954	0.15300
2393.11117	0.15396
2391.18279	0.15470
2389.25442	0.15554
2387.32605	0.15655
2385.39767	0.15758
2383.46930	0.15865
2381.54093	0.15978
2379.61255	0.16082
2377.68418	0.16167
2375.75581	0.16269
2373.82744	0.16435
2371.89906	0.16635
2369.97069	0.16835
2368.04232	0.17108
2366.11394	0.17472
2364.18557	0.17786
2362.25720	0.17931
2360.32882	0.17987
2358.40045	0.18025
2356.47208	0.17952
2354.54370	0.17803
2352.61533	0.17710
2350.68696	0.17711
2348.75858	0.17781
2346.83021	0.17883
2344.90184	0.17990
2342.97346	0.18128
2341.04509	0.18266
2339.11672	0.18308
2337.18834	0.18308
2335.25997	0.18356
2333.33160	0.18385
2331.40322	0.18354
2329.47485	0.18338
2327.54648	0.18372
2325.61810	0.18411
2323.68973	0.18407
2321.76136	0.18354
2319.83298	0.18335
2317.90461	0.18388
2315.97624	0.18478
2314.04787	0.18570
2312.11949	0.18645
2310.19112	0.18704
2308.26275	0.18762
2306.33437	0.18819
2304.40600	0.18880
2302.47763	0.18948
2300.54925	0.19011
2298.62088	0.19061
2296.69251	0.19101
2294.76413	0.19144
2292.83576	0.19189
2290.90739	0.19218
2288.97901	0.19237
2287.05064	0.19263
2285.12227	0.19294
2283.19389	0.19317
2281.26552	0.19320
2279.33715	0.19317
2277.40877	0.19341
2275.48040	0.19382
2273.55203	0.19401
2271.62365	0.19396
2269.69528	0.19396
2267.76691	0.19406
2265.83853	0.19416
2263.91016	0.19424
2261.98179	0.19430
2260.05342	0.19441
2258.12504	0.19474
2256.19667	0.19520
2254.26830	0.19547
2252.33992	0.19561
2250.41155	0.19593
2248.48318	0.19647
2246.55480	0.19712
2244.62643	0.19766
2242.69806	0.19802
2240.76968	0.19840
2238.84131	0.19879
2236.91294	0.19898
2234.98456	0.19902
2233.05619	0.19911
2231.12782	0.19939
2229.19944	0.19987
2227.27107	0.20025
2225.34270	0.20024
2223.41432	0.20018
2221.48595	0.20034
2219.55758	0.20055
2217.62920	0.20058
2215.70083	0.20047
2213.77246	0.20038
2211.84408	0.20039
2209.91571	0.20032
2207.98734	0.20025
2206.05896	0.20046
2204.13059	0.20076
2202.20222	0.20087
2200.27385	0.20083
2198.34547	0.20070
2196.41710	0.20062
2194.48873	0.20062
2192.56035	0.20054
2190.63198	0.20034
2188.70361	0.20009
2186.77523	0.19992
2184.84686	0.19996
2182.91849	0.20019
2180.99011	0.20043
2179.06174	0.20055
2177.13337	0.20062
2175.20499	0.20075
2173.27662	0.20089
2171.34825	0.20084
2169.41987	0.20068
2167.49150	0.20069
2165.56313	0.20083
2163.63475	0.20098
2161.70638	0.20118
2159.77801	0.20140
2157.84963	0.20154
2155.92126	0.20165
2153.99289	0.20193
2152.06451	0.20232
2150.13614	0.20263
2148.20777	0.20275
2146.27940	0.20284
2144.35102	0.20295
2142.42265	0.20297
2140.49428	0.20310
2138.56590	0.20344
2136.63753	0.20382
2134.70916	0.20429
2132.78078	0.20480
2130.85241	0.20513
2128.92404	0.20535
2126.99566	0.20568
2125.06729	0.20604
2123.13892	0.20638
2121.21054	0.20685
2119.28217	0.20746
2117.35380	0.20812
2115.42542	0.20874
2113.49705	0.20922
2111.56868	0.20969
2109.64030	0.21031
2107.71193	0.21087
2105.78356	0.21113
2103.85518	0.21115
2101.92681	0.21117
2099.99844	0.21134
2098.07006	0.21165
2096.14169	0.21199
2094.21332	0.21226
2092.28494	0.21239
2090.35657	0.21240
2088.42820	0.21243
2086.49983	0.21264
2084.57145	0.21300
2082.64308	0.21323
2080.71471	0.21312
2078.78633	0.21278
2076.85796	0.21254
2074.92959	0.21255
2073.00121	0.21262
2071.07284	0.21272
2069.14447	0.21292
2067.21609	0.21323
2065.28772	0.21370
2063.35935	0.21421
2061.43097	0.21444
2059.50260	0.21450
2057.57423	0.21478
2055.64585	0.21533
2053.71748	0.21600
2051.78911	0.21669
2049.86073	0.21734
2047.93236	0.21797
2046.00399	0.21864
2044.07561	0.21942
2042.14724	0.22030
2040.21887	0.22118
2038.29049	0.22189
2036.36212	0.22237
2034.43375	0.22274
2032.50538	0.22320
2030.57700	0.22370
2028.64863	0.22415
2026.72026	0.22459
2024.79188	0.22503
2022.86351	0.22545
2020.93514	0.22579
2019.00676	0.22609
2017.07839	0.22654
2015.15002	0.22730
2013.22164	0.22817
2011.29327	0.22886
2009.36490	0.22941
2007.43652	0.22997
2005.50815	0.23063
2003.57978	0.23149
2001.65140	0.23247
1999.72303	0.23342
1997.79466	0.23430
1995.86628	0.23506
1993.93791	0.23562
1992.00954	0.23612
1990.08116	0.23675
1988.15279	0.23732
1986.22442	0.23761
1984.29604	0.23783
1982.36767	0.23812
1980.43930	0.23833
1978.51092	0.23859
1976.58255	0.23903
1974.65418	0.23949
1972.72581	0.23997
1970.79743	0.24061
1968.86906	0.24139
1966.94069	0.24205
1965.01231	0.24250
1963.08394	0.24298
1961.15557	0.24358
1959.22719	0.24419
1957.29882	0.24471
1955.37045	0.24531
1953.44207	0.24627
1951.51370	0.24752
1949.58533	0.24879
1947.65695	0.24997
1945.72858	0.25107
1943.80021	0.25213
1941.87183	0.25315
1939.94346	0.25411
1938.01509	0.25509
1936.08671	0.25608
1934.15834	0.25713
1932.22997	0.25807
1930.30159	0.25868
1928.37322	0.25923
1926.44485	0.26006
1924.51647	0.26103
1922.58810	0.26183
1920.65973	0.26234
1918.73135	0.26278
1916.80298	0.26317
1914.87461	0.26350
1912.94624	0.26397
1911.01786	0.26449
1909.08949	0.26475
1907.16112	0.26464
1905.23274	0.26442
1903.30437	0.26427
1901.37600	0.26407
1899.44762	0.26389
1897.51925	0.26377
1895.59088	0.26363
1893.66250	0.26362
1891.73413	0.26376
1889.80576	0.26380
1887.87738	0.26368
1885.94901	0.26361
1884.02064	0.26366
1882.09226	0.26375
1880.16389	0.26379
1878.23552	0.26378
1876.30714	0.26391
1874.37877	0.26419
1872.45040	0.26447
1870.52202	0.26468
1868.59365	0.26462
1866.66528	0.26428
1864.73690	0.26397
1862.80853	0.26378
1860.88016	0.26361
1858.95179	0.26351
1857.02341	0.26337
1855.09504	0.26315
1853.16667	0.26294
1851.23829	0.26271
1849.30992	0.26242
1847.38155	0.26208
1845.45317	0.26154
1843.52480	0.26074
1841.59643	0.26003
1839.66805	0.25955
1837.73968	0.25912
1835.81131	0.25862
1833.88293	0.25820
1831.95456	0.25804
1830.02619	0.25780
1828.09781	0.25709
1826.16944	0.25615
1824.24107	0.25495
1822.31269	0.25373
1820.38432	0.25281
1818.45595	0.25191
1816.52757	0.25088
1814.59920	0.24982
1812.67083	0.24874
1810.74245	0.24729
1808.81408	0.24554
1806.88571	0.24396
1804.95733	0.24254
1803.02896	0.24090
1801.10059	0.23873
1799.17222	0.23608
1797.24384	0.23339
1795.31547	0.23074
1793.38710	0.22749
1791.45872	0.22342
1789.53035	0.21976
1787.60198	0.21675
1785.67360	0.21371
1783.74523	0.21051
1781.81686	0.20739
1779.88848	0.20429
1777.96011	0.20123
1776.03174	0.19849
1774.10336	0.19584
1772.17499	0.19219
1770.24662	0.18763
1768.31824	0.18362
1766.38987	0.18024
1764.46150	0.17703
1762.53312	0.17294
1760.60475	0.16764
1758.67638	0.16210
1756.74800	0.15590
1754.81963	0.14956
1752.89126	0.14343
1750.96288	0.13563
1749.03451	0.12603
1747.10614	0.11707
1745.17777	0.10892
1743.24939	0.10080
1741.32102	0.09236
1739.39265	0.08357
1737.46427	0.07630
1735.53590	0.07006
1733.60753	0.06145
1731.67915	0.05272
1729.75078	0.04625
1727.82241	0.04053
1725.89403	0.03508
1723.96566	0.02970
1722.03729	0.02512
1720.10891	0.02165
1718.18054	0.01788
1716.25217	0.01364
1714.32379	0.01079
1712.39542	0.00838
1710.46705	0.00596
1708.53867	0.00404
1706.61030	0.00279
1704.68193	0.00200
1702.75355	0.00163
1700.82518	0.00146
1698.89681	0.00111
1696.96843	0.00098
1695.04006	0.00087
1693.11169	0.00071
1691.18331	0.00077
1689.25494	0.00080
1687.32657	0.00065
1685.39820	0.00075
1683.46982	0.00098
1681.54145	0.00068
1679.61308	0.00038
1677.68470	0.00048
1675.75633	0.00058
1673.82796	0.00070
1671.89958	0.00097
1669.97121	0.00120
1668.04284	0.00080
1666.11446	0.00053
1664.18609	0.00050
1662.25772	0.00033
1660.32934	0.00037
1658.40097	0.00042
1656.47260	0.00088
1654.54422	0.00144
1652.61585	0.00120
1650.68748	0.00080
1648.75910	0.00103
1646.83073	0.00093
1644.90236	0.00043
1642.97398	0.00036
1641.04561	0.00060
1639.11724	0.00076
1637.18886	0.00054
1635.26049	0.00048
1633.33212	0.00049
1631.40375	0.00046
1629.47537	0.00052
1627.54700	0.00085
1625.61863	0.00104
1623.69025	0.00085
1621.76188	0.00057
1619.83351	0.00043
1617.90513	0.00087
1615.97676	0.00117
1614.04839	0.00080
1612.12001	0.00057
1610.19164	0.00066
1608.26327	0.00074
1606.33489	0.00062
1604.40652	0.00048
1602.47815	0.00040
1600.54977	0.00042
1598.62140	0.00050
1596.69303	0.00053
1594.76465	0.00066
1592.83628	0.00068
1590.90791	0.00044
1588.97953	0.00047
1587.05116	0.00029
1585.12279	0.00044
1583.19441	0.00050
1581.26604	0.00049
1579.33767	0.00043
1577.40929	0.00047
1575.48092	0.00068
1573.55255	0.00076
1571.62418	0.00046
1569.69580	0.00069
1567.76743	0.00082
1565.83906	0.00049
1563.91068	0.00036
1561.98231	0.00041
1560.05394	0.00065
1558.12556	0.00083
1556.19719	0.00094
1554.26882	0.00042
1552.34044	0.00031
1550.41207	0.00048
1548.48370	0.00058
1546.55532	0.00082
1544.62695	0.00110
1542.69858	0.00088
1540.77020	0.00037
1538.84183	0.00067
1536.91346	0.00046
1534.98508	0.00034
1533.05671	0.00063
1531.12834	0.00095
1529.19996	0.00092
1527.27159	0.00069
1525.34322	0.00032
1523.41484	0.00066
1521.48647	0.00096
1519.55810	0.00063
1517.62972	0.00103
1515.70135	0.00124
1513.77298	0.00100
1511.84461	0.00077
1509.91623	0.00066
1507.98786	0.00080
1506.05949	0.00109
1504.13111	0.00083
1502.20274	0.00061
1500.27437	0.00067
1498.34599	0.00059
1496.41762	0.00048
1494.48925	0.00082
1492.56087	0.00103
1490.63250	0.00114
1488.70413	0.00092
1486.77575	0.00067
1484.84738	0.00060
1482.91901	0.00059
1480.99063	0.00058
1479.06226	0.00073
1477.13389	0.00074
1475.20551	0.00070
1473.27714	0.00075
1471.34877	0.00046
1469.42039	0.00022
1467.49202	0.00068
1465.56365	0.00081
1463.63527	0.00050
1461.70690	0.00034
1459.77853	0.00062
1457.85016	0.00101
1455.92178	0.00110
1453.99341	0.00076
1452.06504	0.00051
1450.13666	0.00081
1448.20829	0.00080
1446.27992	0.00058
1444.35154	0.00041
1442.42317	0.00015
1440.49480	0.00020
1438.56642	0.00065
1436.63805	0.00103
1434.70968	0.00061
1432.78130	0.00042
1430.85293	0.00047
1428.92456	0.00034
1426.99618	0.00022
1425.06781	0.00042
1423.13944	0.00066
1421.21106	0.00074
1419.28269	0.00096
1417.35432	0.00094
1415.42594	0.00051
1413.49757	0.00046
1411.56920	0.00041
1409.64082	0.00060
1407.71245	0.00055
1405.78408	0.00057
1403.85570	0.00060
1401.92733	0.00023
1399.99896	0.00051
1398.07059	0.00104
1396.14221	0.00081
1394.21384	0.00102
1392.28547	0.00110
1390.35709	0.00090
1388.42872	0.00093
1386.50035	0.00078
1384.57197	0.00028
1382.64360	0.00038
1380.71523	0.00060
1378.78685	0.00056
1376.85848	0.00080
1374.93011	0.00099
1373.00173	0.00069
1371.07336	0.00077
1369.14499	0.00064
1367.21661	0.00013
1365.28824	0.00029
1363.35987	0.00036
1361.43149	0.00059
1359.50312	0.00054
1357.57475	0.00018
1355.64637	0.00040
1353.71800	0.00066
1351.78963	0.00077
1349.86125	0.00092
1347.93288	0.00123
1346.00451	0.00134
1344.07614	0.00095
1342.14776	0.00063
1340.21939	0.00049
1338.29102	0.00067
1336.36264	0.00068
1334.43427	0.00079
1332.50590	0.00078
1330.57752	0.00060
1328.64915	0.00073
1326.72078	0.00068
1324.79240	0.00062
1322.86403	0.00058
1320.93566	0.00061
1319.00728	0.00071
1317.07891	0.00079
1315.15054	0.00066
1313.22216	0.00046
1311.29379	0.00061
1309.36542	0.00080
1307.43704	0.00089
1305.50867	0.00093
1303.58030	0.00087
1301.65192	0.00059
1299.72355	0.00040
1297.79518	0.00035
1295.86680	0.00047
1293.93843	0.00077
1292.01006	0.00078
1290.08168	0.00091
1288.15331	0.00108
1286.22494	0.00119
1284.29657	0.00084
1282.36819	0.00075
1280.43982	0.00108
1278.51145	0.00098
1276.58307	0.00035
1274.65470	0.00106
1272.72633	0.00138
1270.79795	0.00126
1268.86958	0.00119
1266.94121	0.00084
1265.01283	0.00080
1263.08446	0.00076
1261.15609	0.00080
1259.22771	0.00091
1257.29934	0.00078
1255.37097	0.00058
1253.44259	0.00096
1251.51422	0.00115
1249.58585	0.00138
1247.65747	0.00137
1245.72910	0.00096
1243.80073	0.00057
1241.87235	0.00045
1239.94398	0.00073
1238.01561	0.00089
1236.08723	0.00084
1234.15886	0.00110
1232.23049	0.00113
1230.30212	0.00093
1228.37374	0.00081
1226.44537	0.00124
1224.51700	0.00193
1222.58862	0.00202
1220.66025	0.00213
1218.73188	0.00247
1216.80350	0.00220
1214.87513	0.00161
1212.94676	0.00105
1211.01838	0.00108
1209.09001	0.00118
1207.16164	0.00106
1205.23326	0.00129
1203.30489	0.00152
1201.37652	0.00138
1199.44814	0.00139
1197.51977	0.00116
1195.59140	0.00172
1193.66302	0.00202
1191.73465	0.00214
1189.80628	0.00232
1187.87790	0.00264
1185.94953	0.00295
1184.02116	0.00299
1182.09278	0.00248
1180.16441	0.00203
1178.23604	0.00214
1176.30766	0.00228
1174.37929	0.00219
1172.45092	0.00159
1170.52255	0.00056
1168.59417	0.00074
1166.66580	0.00062
1164.73743	0.00086
1162.80905	0.00132
1160.88068	0.00135
1158.95231	0.00106
1157.02393	0.00078
1155.09556	0.00121
1153.16719	0.00083
1151.23881	0.00054
1149.31044	0.00073
1147.38207	0.00114
1145.45369	0.00152
1143.52532	0.00151
1141.59695	0.00086
1139.66857	0.00117
1137.74020	0.00169
1135.81183	0.00169
1133.88345	0.00117
1131.95508	0.00133
1130.02671	0.00144
1128.09833	0.00111
1126.16996	0.00141
1124.24159	0.00149
1122.31321	0.00134
1120.38484	0.00120
1118.45647	0.00134
1116.52809	0.00144
1114.59972	0.00113
1112.67135	0.00136
1110.74298	0.00163
1108.81460	0.00166
1106.88623	0.00112
1104.95786	0.00060
1103.02948	0.00072
1101.10111	0.00128
1099.17274	0.00145
1097.24436	0.00157
1095.31599	0.00139
1093.38762	0.00088
1091.45924	0.00153
1089.53087	0.00180
1087.60250	0.00161
1085.67412	0.00189
1083.74575	0.00235
1081.81738	0.00230
1079.88900	0.00187
1077.96063	0.00123
1076.03226	0.00055
1074.10388	0.00106
1072.17551	0.00193
1070.24714	0.00164
1068.31876	0.00099
1066.39039	0.00186
1064.46202	0.00218
1062.53364	0.00151
1060.60527	0.00113
1058.67690	0.00097
1056.74853	0.00164
1054.82015	0.00171
1052.89178	0.00159
1050.96341	0.00207
1049.03503	0.00183
1047.10666	0.00058
1045.17829	0.00145
1043.24991	0.00267
1041.32154	0.00261
1039.39317	0.00212
1037.46479	0.00145
1035.53642	0.00103
1033.60805	0.00192
1031.67967	0.00191
1029.75130	0.00172
1027.82293	0.00119
1025.89455	0.00056
1023.96618	0.00096
1022.03781	0.00095
1020.10943	0.00071
1018.18106	0.00068
1016.25269	0.00110
1014.32431	0.00121
1012.39594	0.00129
1010.46757	0.00129
1008.53919	0.00123
1006.61082	0.00089
1004.68245	0.00058
1002.75407	0.00080
1000.82570	0.00123
998.89733	0.00194
996.96896	0.00356
995.04058	0.00517
993.11221	0.00625
991.18384	0.00729
989.25546	0.00844
987.32709	0.00944
985.39872	0.00989
983.47034	0.00974
981.54197	0.00924
979.61360	0.00853
977.68522	0.00768
975.75685	0.00714
973.82848	0.00767
971.90010	0.00955
969.97173	0.01219
968.04336	0.01484
966.11498	0.01699
964.18661	0.01808
962.25824	0.01737
960.32986	0.01433
958.40149	0.00989
956.47312	0.00604
954.54474	0.00423
952.61637	0.00489
950.68800	0.00730
948.75962	0.01061
946.83125	0.01475
944.90288	0.01953
942.97451	0.02452
941.04613	0.02931
939.11776	0.03345
937.18939	0.03687
935.26101	0.03972
933.33264	0.04218
931.40427	0.04398
929.47589	0.04478
927.54752	0.04479
925.61915	0.04409
923.69077	0.04288
921.76240	0.04213
919.83403	0.04266
917.90565	0.04489
915.97728	0.04818
914.04891	0.05049
912.12053	0.05064
910.19216	0.04911
908.26379	0.04616
906.33541	0.04179
904.40704	0.03674
902.47867	0.03190
900.55029	0.02821
898.62192	0.02644
896.69355	0.02601
894.76517	0.02637
892.83680	0.02797
890.90843	0.03058
888.98005	0.03377
887.05168	0.03770
885.12331	0.04176
883.19494	0.04430
881.26656	0.04527
879.33819	0.04623
877.40982	0.04741
875.48144	0.04793
873.55307	0.04830
871.62470	0.04885
869.69632	0.04892
867.76795	0.04892
865.83958	0.04909
863.91120	0.04867
861.98283	0.04782
860.05446	0.04723
858.12608	0.04675
856.19771	0.04585
854.26934	0.04406
852.34096	0.04104
850.41259	0.03800
848.48422	0.03675
846.55584	0.03646
844.62747	0.03628
842.69910	0.03652
840.77072	0.03637
838.84235	0.03506
836.91398	0.03323
834.98560	0.03174
833.05723	0.03081
831.12886	0.03022
829.20049	0.02925
827.27211	0.02775
825.34374	0.02673
823.41537	0.02640
821.48699	0.02580
819.55862	0.02451
817.63025	0.02342
815.70187	0.02339
813.77350	0.02368
811.84513	0.02341
809.91675	0.02244
807.98838	0.02146
806.06001	0.02100
804.13163	0.02018
802.20326	0.01875
800.27489	0.01684
798.34651	0.01431
796.41814	0.01236
794.48977	0.01194
792.56139	0.01207
790.63302	0.01154
788.70465	0.01084
786.77627	0.01009
784.84790	0.00895
782.91953	0.00776
780.99115	0.00729
779.06278	0.00736
777.13441	0.00728
775.20603	0.00704
773.27766	0.00676
771.34929	0.00637
769.42092	0.00592
767.49254	0.00545
765.56417	0.00505
763.63580	0.00474
761.70742	0.00368
759.77905	0.00250
757.85068	0.00256
755.92230	0.00335
753.99393	0.00350
752.06556	0.00328
750.13718	0.00308
748.20881	0.00315
746.28044	0.00308
744.35206	0.00330
742.42369	0.00296
740.49532	0.00230
738.56694	0.00250
736.63857	0.00226
734.71020	0.00158
732.78182	0.00119
730.85345	0.00243
728.92508	0.00353
726.99670	0.00349
725.06833	0.00390
723.13996	0.00413
721.21158	0.00342
719.28321	0.00263
717.35484	0.00241
715.42647	0.00278
713.49809	0.00237
711.56972	0.00148
709.64135	0.00262
707.71297	0.00240
705.78460	0.00095
703.85623	0.00193
701.92785	0.00275
699.99948	0.00231
698.07111	0.00317
696.14273	0.00320
694.21436	0.00300
692.28599	0.00242
690.35761	0.00208
688.42924	0.00282
686.50087	0.00443
684.57249	0.00436
682.64412	0.00216
680.71575	0.00220
678.78737	0.00305
676.85900	0.00305
674.93063	0.00201
673.00225	0.00112
671.07388	0.00204
669.14551	0.00361
667.21713	0.00258
665.28876	0.00590
663.36039	0.00540
661.43201	0.00358
659.50364	0.00383
657.57527	0.00571
655.64690	0.00621
653.71852	0.00569
651.79015	0.00463
649.86178	0.00546
647.93340	0.00628
646.00503	0.00469
644.07666	0.00200
642.14828	0.00143
640.21991	0.00196
638.29154	0.00343
636.36316	0.00556
634.43479	0.00623
632.50642	0.00612
630.57804	0.00484
628.64967	0.00154
626.72130	0.00445
624.79292	0.00694
622.86455	0.00653
620.93618	0.00483
619.00780	0.00484
617.07943	0.00405
615.15106	0.00513
613.22268	0.00615
611.29431	0.00754
609.36594	0.00951
607.43756	0.01081
605.50919	0.01142
603.58082	0.00801
601.65244	0.00518
599.72407	0.00530
