3997.51769	0.92102
3995.58931	0.92057
3993.66094	0.92050
3991.73257	0.92068
3989.80419	0.92109
3987.87582	0.92126
3985.94745	0.92132
3984.01907	0.92174
3982.09070	0.92192
3980.16233	0.92146
3978.23396	0.92113
3976.30558	0.92143
3974.37721	0.92208
3972.44884	0.92259
3970.52046	0.92238
3968.59209	0.92193
3966.66372	0.92255
3964.73534	0.92397
3962.80697	0.92537
3960.87860	0.92637
3958.95022	0.92666
3957.02185	0.92666
3955.09348	0.92657
3953.16510	0.92645
3951.23673	0.92714
3949.30836	0.92810
3947.37998	0.92750
3945.45161	0.92588
3943.52324	0.92550
3941.59486	0.92663
3939.66649	0.92787
3937.73812	0.92845
3935.80974	0.92837
3933.88137	0.92856
3931.95300	0.92942
3930.02462	0.92942
3928.09625	0.92877
3926.16788	0.92906
3924.23950	0.92959
3922.31113	0.92939
3920.38276	0.92951
3918.45439	0.93059
3916.52601	0.93118
3914.59764	0.93040
3912.66927	0.92957
3910.74089	0.92941
3908.81252	0.92976
3906.88415	0.93056
3904.95577	0.93194
3903.02740	0.93403
3901.09903	0.93520
3899.17065	0.93406
3897.24228	0.93248
3895.31391	0.93243
3893.38553	0.93379
3891.45716	0.93487
3889.52879	0.93458
3887.60041	0.93437
3885.67204	0.93482
3883.74367	0.93497
3881.81529	0.93490
3879.88692	0.93481
3877.95855	0.93451
3876.03017	0.93473
3874.10180	0.93567
3872.17343	0.93687
3870.24505	0.93776
3868.31668	0.93780
3866.38831	0.93784
3864.45994	0.93830
3862.53156	0.93786
3860.60319	0.93674
3858.67482	0.93623
3856.74644	0.93646
3854.81807	0.93758
3852.88970	0.93886
3850.96132	0.93755
3849.03295	0.93543
3847.10458	0.93450
3845.17620	0.93528
3843.24783	0.93715
3841.31946	0.93879
3839.39108	0.93960
3837.46271	0.93959
3835.53434	0.93894
3833.60596	0.93791
3831.67759	0.93673
3829.74922	0.93601
3827.82084	0.93612
3825.89247	0.93647
3823.96410	0.93696
3822.03572	0.93800
3820.10735	0.93815
3818.17898	0.93785
3816.25060	0.93892
3814.32223	0.93879
3812.39386	0.93655
3810.46548	0.93515
3808.53711	0.93595
3806.60874	0.93748
3804.68037	0.93825
3802.75199	0.93951
3800.82362	0.93992
3798.89525	0.93776
3796.96687	0.93568
3795.03850	0.93477
3793.11013	0.93469
3791.18175	0.93498
3789.25338	0.93505
3787.32501	0.93494
3785.39663	0.93498
3783.46826	0.93523
3781.53989	0.93571
3779.61151	0.93564
3777.68314	0.93471
3775.75477	0.93429
3773.82639	0.93490
3771.89802	0.93607
3769.96965	0.93699
3768.04127	0.93690
3766.11290	0.93639
3764.18453	0.93568
3762.25615	0.93459
3760.32778	0.93387
3758.39941	0.93385
3756.47103	0.93380
3754.54266	0.93390
3752.61429	0.93514
3750.68591	0.93657
3748.75754	0.93676
3746.82917	0.93782
3744.90080	0.93939
3742.97242	0.93806
3741.04405	0.93537
3739.11568	0.93422
3737.18730	0.93536
3735.25893	0.93722
3733.33056	0.93626
3731.40218	0.93400
3729.47381	0.93284
3727.54544	0.93236
3725.61706	0.93197
3723.68869	0.93153
3721.76032	0.93134
3719.83194	0.93135
3717.90357	0.93081
3715.97520	0.92991
3714.04682	0.93004
3712.11845	0.93170
3710.19008	0.93216
3708.26170	0.93016
3706.33333	0.92825
3704.40496	0.92726
3702.47658	0.92696
3700.54821	0.92669
3698.61984	0.92558
3696.69146	0.92396
3694.76309	0.92350
3692.83472	0.92485
3690.90635	0.92580
3688.97797	0.92345
3687.04960	0.91984
3685.12123	0.91803
3683.19285	0.91713
3681.26448	0.91629
3679.33611	0.91568
3677.40773	0.91537
3675.47936	0.91457
3673.55099	0.91303
3671.62261	0.91170
3669.69424	0.90942
3667.76587	0.90586
3665.83749	0.90232
3663.90912	0.89887
3661.98075	0.89619
3660.05237	0.89481
3658.12400	0.89363
3656.19563	0.89143
3654.26725	0.88957
3652.33888	0.88968
3650.41051	0.89027
3648.48213	0.88682
3646.55376	0.87994
3644.62539	0.87493
3642.69701	0.87202
3640.76864	0.86940
3638.84027	0.86629
3636.91189	0.86339
3634.98352	0.86096
3633.05515	0.85887
3631.12678	0.85738
3629.19840	0.85493
3627.27003	0.84999
3625.34166	0.84541
3623.41328	0.84203
3621.48491	0.83916
3619.55654	0.83604
3617.62816	0.83258
3615.69979	0.82953
3613.77142	0.82657
3611.84304	0.82343
3609.91467	0.82060
3607.98630	0.81768
3606.05792	0.81376
3604.12955	0.80961
3602.20118	0.80567
3600.27280	0.80113
3598.34443	0.79636
3596.41606	0.79270
3594.48768	0.78982
3592.55931	0.78699
3590.63094	0.78478
3588.70256	0.78286
3586.77419	0.77909
3584.84582	0.77345
3582.91744	0.76818
3580.98907	0.76355
3579.06070	0.75940
3577.13233	0.75599
3575.20395	0.75263
3573.27558	0.74880
3571.34721	0.74527
3569.41883	0.74255
3567.49046	0.73933
3565.56209	0.73455
3563.63371	0.72985
3561.70534	0.72574
3559.77697	0.72189
3557.84859	0.71825
3555.92022	0.71465
3553.99185	0.71077
3552.06347	0.70619
3550.13510	0.70197
3548.20673	0.69908
3546.27835	0.69621
3544.34998	0.69202
3542.42161	0.68745
3540.49323	0.68365
3538.56486	0.68063
3536.63649	0.67773
3534.70811	0.67457
3532.77974	0.67135
3530.85137	0.66799
3528.92299	0.66449
3526.99462	0.66108
3525.06625	0.65793
3523.13787	0.65500
3521.20950	0.65185
3519.28113	0.64836
3517.35276	0.64474
3515.42438	0.64161
3513.49601	0.63906
3511.56764	0.63589
3509.63926	0.63189
3507.71089	0.62844
3505.78252	0.62593
3503.85414	0.62327
3501.92577	0.61994
3499.99740	0.61623
3498.06902	0.61241
3496.14065	0.60898
3494.21228	0.60646
3492.28390	0.60458
3490.35553	0.60261
3488.42716	0.60018
3486.49878	0.59731
3484.57041	0.59460
3482.64204	0.59267
3480.71366	0.59115
3478.78529	0.58920
3476.85692	0.58655
3474.92854	0.58372
3473.00017	0.58131
3471.07180	0.57953
3469.14342	0.57803
3467.21505	0.57582
3465.28668	0.57279
3463.35831	0.57028
3461.42993	0.56859
3459.50156	0.56679
3457.57319	0.56471
3455.64481	0.56257
3453.71644	0.56031
3451.78807	0.55811
3449.85969	0.55611
3447.93132	0.55391
3446.00295	0.55147
3444.07457	0.54946
3442.14620	0.54769
3440.21783	0.54523
3438.28945	0.54244
3436.36108	0.54048
3434.43271	0.53938
3432.50433	0.53832
3430.57596	0.53686
3428.64759	0.53456
3426.71921	0.53152
3424.79084	0.52902
3422.86247	0.52752
3420.93409	0.52601
3419.00572	0.52378
3417.07735	0.52136
3415.14897	0.51928
3413.22060	0.51749
3411.29223	0.51579
3409.36385	0.51398
3407.43548	0.51198
3405.50711	0.51010
3403.57874	0.50834
3401.65036	0.50650
3399.72199	0.50480
3397.79362	0.50301
3395.86524	0.50085
3393.93687	0.49884
3392.00850	0.49721
3390.08012	0.49543
3388.15175	0.49330
3386.22338	0.49087
3384.29500	0.48791
3382.36663	0.48486
3380.43826	0.48235
3378.50988	0.47987
3376.58151	0.47717
3374.65314	0.47462
3372.72476	0.47215
3370.79639	0.46987
3368.86802	0.46777
3366.93964	0.46500
3365.01127	0.46151
3363.08290	0.45808
3361.15452	0.45453
3359.22615	0.45044
3357.29778	0.44613
3355.36940	0.44186
3353.44103	0.43765
3351.51266	0.43366
3349.58428	0.42973
3347.65591	0.42525
3345.72754	0.42030
3343.79917	0.41536
3341.87079	0.41040
3339.94242	0.40508
3338.01405	0.39949
3336.08567	0.39415
3334.15730	0.38923
3332.22893	0.38421
3330.30055	0.37875
3328.37218	0.37281
3326.44381	0.36647
3324.51543	0.36018
3322.58706	0.35424
3320.65869	0.34826
3318.73031	0.34208
3316.80194	0.33594
3314.87357	0.32972
3312.94519	0.32354
3311.01682	0.31795
3309.08845	0.31271
3307.16007	0.30745
3305.23170	0.30264
3303.30333	0.29883
3301.37495	0.29563
3299.44658	0.29221
3297.51821	0.28904
3295.58983	0.28711
3293.66146	0.28650
3291.73309	0.28697
3289.80472	0.28826
3287.87634	0.29008
3285.94797	0.29273
3284.01960	0.29624
3282.09122	0.29997
3280.16285	0.30410
3278.23448	0.30917
3276.30610	0.31484
3274.37773	0.32087
3272.44936	0.32744
3270.52098	0.33436
3268.59261	0.34126
3266.66424	0.34819
3264.73586	0.35527
3262.80749	0.36242
3260.87912	0.36961
3258.95074	0.37691
3257.02237	0.38470
3255.09400	0.39311
3253.16562	0.40140
3251.23725	0.40884
3249.30888	0.41547
3247.38050	0.42201
3245.45213	0.42915
3243.52376	0.43649
3241.59538	0.44298
3239.66701	0.44839
3237.73864	0.45329
3235.81026	0.45804
3233.88189	0.46273
3231.95352	0.46717
3230.02515	0.47127
3228.09677	0.47539
3226.16840	0.47959
3224.24003	0.48369
3222.31165	0.48772
3220.38328	0.49137
3218.45491	0.49441
3216.52653	0.49749
3214.59816	0.50114
3212.66979	0.50500
3210.74141	0.50878
3208.81304	0.51265
3206.88467	0.51656
3204.95629	0.52017
3203.02792	0.52324
3201.09955	0.52642
3199.17117	0.53054
3197.24280	0.53481
3195.31443	0.53827
3193.38605	0.54187
3191.45768	0.54613
3189.52931	0.54987
3187.60093	0.55305
3185.67256	0.55662
3183.74419	0.56052
3181.81581	0.56447
3179.88744	0.56830
3177.95907	0.57208
3176.03070	0.57600
3174.10232	0.57979
3172.17395	0.58322
3170.24558	0.58644
3168.31720	0.58973
3166.38883	0.59323
3164.46046	0.59660
3162.53208	0.59928
3160.60371	0.60153
3158.67534	0.60437
3156.74696	0.60790
3154.81859	0.61109
3152.89022	0.61348
3150.96184	0.61532
3149.03347	0.61707
3147.10510	0.61915
3145.17672	0.62135
3143.24835	0.62323
3141.31998	0.62484
3139.39160	0.62645
3137.46323	0.62834
3135.53486	0.63038
3133.60648	0.63189
3131.67811	0.63290
3129.74974	0.63385
3127.82136	0.63452
3125.89299	0.63483
3123.96462	0.63490
3122.03624	0.63490
3120.10787	0.63505
3118.17950	0.63490
3116.25113	0.63421
3114.32275	0.63353
3112.39438	0.63325
3110.46601	0.63322
3108.53763	0.63276
3106.60926	0.63174
3104.68089	0.63073
3102.75251	0.62961
3100.82414	0.62788
3098.89577	0.62598
3096.96739	0.62468
3095.03902	0.62387
3093.11065	0.62306
3091.18227	0.62207
3089.25390	0.62087
3087.32553	0.61965
3085.39715	0.61865
3083.46878	0.61785
3081.54041	0.61720
3079.61203	0.61671
3077.68366	0.61649
3075.75529	0.61684
3073.82691	0.61768
3071.89854	0.61858
3069.97017	0.61944
3068.04179	0.62013
3066.11342	0.62087
3064.18505	0.62207
3062.25668	0.62365
3060.32830	0.62581
3058.39993	0.62882
3056.47156	0.63185
3054.54318	0.63429
3052.61481	0.63664
3050.68644	0.63939
3048.75806	0.64265
3046.82969	0.64627
3044.90132	0.64979
3042.97294	0.65308
3041.04457	0.65646
3039.11620	0.65977
3037.18782	0.66266
3035.25945	0.66535
3033.33108	0.66807
3031.40270	0.67087
3029.47433	0.67345
3027.54596	0.67534
3025.61758	0.67704
3023.68921	0.67948
3021.76084	0.68258
3019.83246	0.68576
3017.90409	0.68871
3015.97572	0.69119
3014.04734	0.69306
3012.11897	0.69445
3010.19060	0.69534
3008.26222	0.69566
3006.33385	0.69566
3004.40548	0.69557
3002.47711	0.69528
3000.54873	0.69460
2998.62036	0.69313
2996.69199	0.69086
2994.76361	0.68830
2992.83524	0.68525
2990.90687	0.68103
2988.97849	0.67577
2987.05012	0.66971
2985.12175	0.66287
2983.19337	0.65598
2981.26500	0.64966
2979.33663	0.64345
2977.40825	0.63702
2975.47988	0.63053
2973.55151	0.62381
2971.62313	0.61697
2969.69476	0.61091
2967.76639	0.60650
2965.83801	0.60335
2963.90964	0.60082
2961.98127	0.59987
2960.05289	0.60131
2958.12452	0.60437
2956.19615	0.60889
2954.26777	0.61509
2952.33940	0.62168
2950.41103	0.62707
2948.48266	0.63063
2946.55428	0.63208
2944.62591	0.63156
2942.69754	0.62961
2940.76916	0.62653
2938.84079	0.62288
2936.91242	0.61986
2934.98404	0.61797
2933.05567	0.61675
2931.12730	0.61623
2929.19892	0.61687
2927.27055	0.61897
2925.34218	0.62209
2923.41380	0.62529
2921.48543	0.62850
2919.55706	0.63249
2917.62868	0.63788
2915.70031	0.64520
2913.77194	0.65403
2911.84356	0.66239
2909.91519	0.66930
2907.98682	0.67581
2906.05844	0.68215
2904.13007	0.68740
2902.20170	0.69170
2900.27332	0.69556
2898.34495	0.69854
2896.41658	0.70031
2894.48820	0.70134
2892.55983	0.70242
2890.63146	0.70390
2888.70309	0.70493
2886.77471	0.70488
2884.84634	0.70388
2882.91797	0.70213
2880.98959	0.69994
2879.06122	0.69733
2877.13285	0.69499
2875.20447	0.69444
2873.27610	0.69649
2871.34773	0.70112
2869.41935	0.70759
2867.49098	0.71464
2865.56261	0.72128
2863.63423	0.72681
2861.70586	0.73101
2859.77749	0.73414
2857.84911	0.73658
2855.92074	0.73831
2853.99237	0.73893
2852.06399	0.73854
2850.13562	0.73903
2848.20725	0.74317
2846.27887	0.75116
2844.35050	0.75992
2842.42213	0.76672
2840.49375	0.77128
2838.56538	0.77463
2836.63701	0.77771
2834.70863	0.78073
2832.78026	0.78333
2830.85189	0.78537
2828.92352	0.78714
2826.99514	0.78881
2825.06677	0.79024
2823.13840	0.79152
2821.21002	0.79301
2819.28165	0.79467
2817.35328	0.79598
2815.42490	0.79705
2813.49653	0.79862
2811.56816	0.80040
2809.63978	0.80177
2807.71141	0.80314
2805.78304	0.80474
2803.85466	0.80608
2801.92629	0.80713
2799.99792	0.80850
2798.06954	0.81046
2796.14117	0.81234
2794.21280	0.81350
2792.28442	0.81445
2790.35605	0.81592
2788.42768	0.81772
2786.49930	0.81942
2784.57093	0.82091
2782.64256	0.82227
2780.71418	0.82371
2778.78581	0.82521
2776.85744	0.82655
2774.92907	0.82780
2773.00069	0.82912
2771.07232	0.83037
2769.14395	0.83131
2767.21557	0.83231
2765.28720	0.83368
2763.35883	0.83507
2761.43045	0.83622
2759.50208	0.83708
2757.57371	0.83805
2755.64533	0.83972
2753.71696	0.84157
2751.78859	0.84275
2749.86021	0.84343
2747.93184	0.84423
2746.00347	0.84530
2744.07509	0.84627
2742.14672	0.84713
2740.21835	0.84841
2738.28997	0.85007
2736.36160	0.85142
2734.43323	0.85213
2732.50485	0.85258
2730.57648	0.85330
2728.64811	0.85440
2726.71973	0.85562
2724.79136	0.85698
2722.86299	0.85873
2720.93461	0.86047
2719.00624	0.86177
2717.07787	0.86287
2715.14950	0.86394
2713.22112	0.86486
2711.29275	0.86578
2709.36438	0.86686
2707.43600	0.86789
2705.50763	0.86865
2703.57926	0.86944
2701.65088	0.87057
2699.72251	0.87190
2697.79414	0.87316
2695.86576	0.87403
2693.93739	0.87439
2692.00902	0.87475
2690.08064	0.87556
2688.15227	0.87659
2686.22390	0.87758
2684.29552	0.87844
2682.36715	0.87918
2680.43878	0.87961
2678.51040	0.87982
2676.58203	0.88056
2674.65366	0.88201
2672.72528	0.88329
2670.79691	0.88385
2668.86854	0.88415
2666.94016	0.88475
2665.01179	0.88573
2663.08342	0.88675
2661.15505	0.88750
2659.22667	0.88822
2657.29830	0.88899
2655.36993	0.88931
2653.44155	0.88922
2651.51318	0.88954
2649.58481	0.89033
2647.65643	0.89094
2645.72806	0.89156
2643.79969	0.89242
2641.87131	0.89317
2639.94294	0.89375
2638.01457	0.89437
2636.08619	0.89528
2634.15782	0.89627
2632.22945	0.89690
2630.30107	0.89736
2628.37270	0.89807
2626.44433	0.89879
2624.51595	0.89914
2622.58758	0.89957
2620.65921	0.90034
2618.73083	0.90088
2616.80246	0.90125
2614.87409	0.90166
2612.94571	0.90183
2611.01734	0.90202
2609.08897	0.90271
2607.16059	0.90380
2605.23222	0.90479
2603.30385	0.90519
2601.37548	0.90527
2599.44710	0.90556
2597.51873	0.90606
2595.59036	0.90663
2593.66198	0.90737
2591.73361	0.90832
2589.80524	0.90918
2587.87686	0.90986
2585.94849	0.91058
2584.02012	0.91125
2582.09174	0.91177
2580.16337	0.91255
2578.23500	0.91342
2576.30662	0.91363
2574.37825	0.91354
2572.44988	0.91402
2570.52150	0.91487
2568.59313	0.91567
2566.66476	0.91646
2564.73638	0.91726
2562.80801	0.91791
2560.87964	0.91826
2558.95126	0.91862
2557.02289	0.91938
2555.09452	0.92009
2553.16614	0.92049
2551.23777	0.92083
2549.30940	0.92103
2547.38103	0.92125
2545.45265	0.92175
2543.52428	0.92226
2541.59591	0.92265
2539.66753	0.92314
2537.73916	0.92365
2535.81079	0.92383
2533.88241	0.92387
2531.95404	0.92429
2530.02567	0.92502
2528.09729	0.92559
2526.16892	0.92560
2524.24055	0.92523
2522.31217	0.92522
2520.38380	0.92596
2518.45543	0.92680
2516.52705	0.92714
2514.59868	0.92736
2512.67031	0.92746
2510.74193	0.92732
2508.81356	0.92750
2506.88519	0.92797
2504.95681	0.92829
2503.02844	0.92863
2501.10007	0.92914
2499.17169	0.92964
2497.24332	0.93003
2495.31495	0.93025
2493.38657	0.93034
2491.45820	0.93039
2489.52983	0.93024
2487.60146	0.93002
2485.67308	0.93030
2483.74471	0.93090
2481.81634	0.93103
2479.88796	0.93098
2477.95959	0.93128
2476.03122	0.93144
2474.10284	0.93128
2472.17447	0.93134
2470.24610	0.93169
2468.31772	0.93220
2466.38935	0.93268
2464.46098	0.93280
2462.53260	0.93275
2460.60423	0.93289
2458.67586	0.93318
2456.74748	0.93341
2454.81911	0.93345
2452.89074	0.93335
2450.96236	0.93349
2449.03399	0.93382
2447.10562	0.93399
2445.17724	0.93409
2443.24887	0.93412
2441.32050	0.93390
2439.39212	0.93375
2437.46375	0.93409
2435.53538	0.93454
2433.60700	0.93463
2431.67863	0.93456
2429.75026	0.93467
2427.82189	0.93495
2425.89351	0.93523
2423.96514	0.93508
2422.03677	0.93452
2420.10839	0.93417
2418.18002	0.93418
2416.25165	0.93439
2414.32327	0.93469
2412.39490	0.93497
2410.46653	0.93513
2408.53815	0.93495
2406.60978	0.93460
2404.68141	0.93441
2402.75303	0.93442
2400.82466	0.93464
2398.89629	0.93502
2396.96791	0.93535
2395.03954	0.93531
2393.11117	0.93501
2391.18279	0.93488
2389.25442	0.93483
2387.32605	0.93464
2385.39767	0.93462
2383.46930	0.93520
2381.54093	0.93620
2379.61255	0.93708
2377.68418	0.93790
2375.75581	0.93940
2373.82744	0.94195
2371.89906	0.94487
2369.97069	0.94714
2368.04232	0.94904
2366.11394	0.95150
2364.18557	0.95358
2362.25720	0.95400
2360.32882	0.95347
2358.40045	0.95201
2356.47208	0.94906
2354.54370	0.94524
2352.61533	0.94183
2350.68696	0.93996
2348.75858	0.93940
2346.83021	0.93979
2344.90184	0.94128
2342.97346	0.94293
2341.04509	0.94318
2339.11672	0.94284
2337.18834	0.94270
2335.25997	0.94165
2333.33160	0.93963
2331.40322	0.93883
2329.47485	0.93958
2327.54648	0.93945
2325.61810	0.93804
2323.68973	0.93680
2321.76136	0.93568
2319.83298	0.93416
2317.90461	0.93275
2315.97624	0.93182
2314.04787	0.93108
2312.11949	0.93052
2310.19112	0.93009
2308.26275	0.92919
2306.33437	0.92777
2304.40600	0.92645
2302.47763	0.92570
2300.54925	0.92533
2298.62088	0.92478
2296.69251	0.92413
2294.76413	0.92390
2292.83576	0.92404
2290.90739	0.92382
2288.97901	0.92300
2287.05064	0.92226
2285.12227	0.92195
2283.19389	0.92155
2281.26552	0.92081
2279.33715	0.92006
2277.40877	0.91952
2275.48040	0.91926
2273.55203	0.91938
2271.62365	0.91963
2269.69528	0.91945
2267.76691	0.91871
2265.83853	0.91797
2263.91016	0.91756
2261.98179	0.91711
2260.05342	0.91651
2258.12504	0.91607
2256.19667	0.91573
2254.26830	0.91522
2252.33992	0.91458
2250.41155	0.91403
2248.48318	0.91367
2246.55480	0.91333
2244.62643	0.91286
2242.69806	0.91249
2240.76968	0.91215
2238.84131	0.91152
2236.91294	0.91084
2234.98456	0.91041
2233.05619	0.91014
2231.12782	0.90999
2229.19944	0.90965
2227.27107	0.90891
2225.34270	0.90825
2223.41432	0.90782
2221.48595	0.90726
2219.55758	0.90678
2217.62920	0.90662
2215.70083	0.90655
2213.77246	0.90647
2211.84408	0.90619
2209.91571	0.90547
2207.98734	0.90454
2206.05896	0.90369
2204.13059	0.90300
2202.20222	0.90251
2200.27385	0.90213
2198.34547	0.90186
2196.41710	0.90163
2194.48873	0.90120
2192.56035	0.90067
2190.63198	0.90019
2188.70361	0.89971
2186.77523	0.89916
2184.84686	0.89865
2182.91849	0.89839
2180.99011	0.89808
2179.06174	0.89754
2177.13337	0.89726
2175.20499	0.89701
2173.27662	0.89637
2171.34825	0.89582
2169.41987	0.89559
2167.49150	0.89530
2165.56313	0.89484
2163.63475	0.89449
2161.70638	0.89421
2159.77801	0.89369
2157.84963	0.89288
2155.92126	0.89204
2153.99289	0.89142
2152.06451	0.89111
2150.13614	0.89095
2148.20777	0.89079
2146.27940	0.89041
2144.35102	0.88971
2142.42265	0.88913
2140.49428	0.88892
2138.56590	0.88858
2136.63753	0.88791
2134.70916	0.88751
2132.78078	0.88758
2130.85241	0.88743
2128.92404	0.88680
2126.99566	0.88617
2125.06729	0.88580
2123.13892	0.88559
2121.21054	0.88545
2119.28217	0.88531
2117.35380	0.88511
2115.42542	0.88461
2113.49705	0.88383
2111.56868	0.88322
2109.64030	0.88296
2107.71193	0.88295
2105.78356	0.88289
2103.85518	0.88248
2101.92681	0.88182
2099.99844	0.88116
2098.07006	0.88071
2096.14169	0.88068
2094.21332	0.88094
2092.28494	0.88084
2090.35657	0.88024
2088.42820	0.87977
2086.49983	0.87966
2084.57145	0.87972
2082.64308	0.87969
2080.71471	0.87931
2078.78633	0.87869
2076.85796	0.87832
2074.92959	0.87835
2073.00121	0.87834
2071.07284	0.87808
2069.14447	0.87753
2067.21609	0.87696
2065.28772	0.87684
2063.35935	0.87690
2061.43097	0.87668
2059.50260	0.87643
2057.57423	0.87641
2055.64585	0.87646
2053.71748	0.87643
2051.78911	0.87633
2049.86073	0.87618
2047.93236	0.87600
2046.00399	0.87568
2044.07561	0.87516
2042.14724	0.87484
2040.21887	0.87494
2038.29049	0.87507
2036.36212	0.87506
2034.43375	0.87515
2032.50538	0.87532
2030.57700	0.87527
2028.64863	0.87503
2026.72026	0.87478
2024.79188	0.87458
2022.86351	0.87451
2020.93514	0.87464
2019.00676	0.87478
2017.07839	0.87453
2015.15002	0.87407
2013.22164	0.87393
2011.29327	0.87392
2009.36490	0.87361
2007.43652	0.87309
2005.50815	0.87277
2003.57978	0.87269
2001.65140	0.87277
1999.72303	0.87298
1997.79466	0.87305
1995.86628	0.87284
1993.93791	0.87271
1992.00954	0.87259
1990.08116	0.87241
1988.15279	0.87248
1986.22442	0.87276
1984.29604	0.87285
1982.36767	0.87259
1980.43930	0.87211
1978.51092	0.87191
1976.58255	0.87211
1974.65418	0.87220
1972.72581	0.87204
1970.79743	0.87214
1968.86906	0.87253
1966.94069	0.87255
1965.01231	0.87210
1963.08394	0.87185
1961.15557	0.87190
1959.22719	0.87197
1957.29882	0.87205
1955.37045	0.87203
1953.44207	0.87195
1951.51370	0.87203
1949.58533	0.87229
1947.65695	0.87267
1945.72858	0.87311
1943.80021	0.87352
1941.87183	0.87381
1939.94346	0.87403
1938.01509	0.87410
1936.08671	0.87384
1934.15834	0.87358
1932.22997	0.87350
1930.30159	0.87339
1928.37322	0.87351
1926.44485	0.87398
1924.51647	0.87466
1922.58810	0.87525
1920.65973	0.87547
1918.73135	0.87535
1916.80298	0.87516
1914.87461	0.87515
1912.94624	0.87541
1911.01786	0.87603
1909.08949	0.87685
1907.16112	0.87721
1905.23274	0.87694
1903.30437	0.87671
1901.37600	0.87684
1899.44762	0.87703
1897.51925	0.87705
1895.59088	0.87710
1893.66250	0.87736
1891.73413	0.87774
1889.80576	0.87803
1887.87738	0.87826
1885.94901	0.87862
1884.02064	0.87889
1882.09226	0.87901
1880.16389	0.87921
1878.23552	0.87934
1876.30714	0.87948
1874.37877	0.87989
1872.45040	0.88059
1870.52202	0.88163
1868.59365	0.88268
1866.66528	0.88302
1864.73690	0.88309
1862.80853	0.88346
1860.88016	0.88383
1858.95179	0.88387
1857.02341	0.88382
1855.09504	0.88398
1853.16667	0.88442
1851.23829	0.88502
1849.30992	0.88570
1847.38155	0.88654
1845.45317	0.88752
1843.52480	0.88822
1841.59643	0.88820
1839.66805	0.88791
1837.73968	0.88788
1835.81131	0.88817
1833.88293	0.88877
1831.95456	0.88982
1830.02619	0.89092
1828.09781	0.89126
1826.16944	0.89130
1824.24107	0.89138
1822.31269	0.89125
1820.38432	0.89126
1818.45595	0.89150
1816.52757	0.89180
1814.59920	0.89224
1812.67083	0.89297
1810.74245	0.89386
1808.81408	0.89430
1806.88571	0.89425
1804.95733	0.89432
1803.02896	0.89497
1801.10059	0.89593
1799.17222	0.89661
1797.24384	0.89686
1795.31547	0.89696
1793.38710	0.89727
1791.45872	0.89724
1789.53035	0.89659
1787.60198	0.89616
1785.67360	0.89623
1783.74523	0.89641
1781.81686	0.89645
1779.88848	0.89649
1777.96011	0.89656
1776.03174	0.89691
1774.10336	0.89781
1772.17499	0.89879
1770.24662	0.89868
1768.31824	0.89775
1766.38987	0.89694
1764.46150	0.89665
1762.53312	0.89673
1760.60475	0.89622
1758.67638	0.89536
1756.74800	0.89466
1754.81963	0.89407
1752.89126	0.89404
1750.96288	0.89389
1749.03451	0.89200
1747.10614	0.88888
1745.17777	0.88620
1743.24939	0.88388
1741.32102	0.88085
1739.39265	0.87706
1737.46427	0.87382
1735.53590	0.87147
1733.60753	0.86750
1731.67915	0.86158
1729.75078	0.85544
1727.82241	0.84894
1725.89403	0.84243
1723.96566	0.83509
1722.03729	0.82783
1720.10891	0.82177
1718.18054	0.81399
1716.25217	0.80041
1714.32379	0.78505
1712.39542	0.77047
1710.46705	0.75419
1708.53867	0.73505
1706.61030	0.70988
1704.68193	0.68018
1702.75355	0.65353
1700.82518	0.62255
1698.89681	0.58568
1696.96843	0.55462
1695.04006	0.52276
1693.11169	0.49509
1691.18331	0.47114
1689.25494	0.44412
1687.32657	0.41895
1685.39820	0.39252
1683.46982	0.35731
1681.54145	0.33058
1679.61308	0.31255
1677.68470	0.29575
1675.75633	0.27712
1673.82796	0.25799
1671.89958	0.24226
1669.97121	0.22614
1668.04284	0.20914
1666.11446	0.19631
1664.18609	0.18416
1662.25772	0.16944
1660.32934	0.15591
1658.40097	0.14585
1656.47260	0.13816
1654.54422	0.13055
1652.61585	0.12270
1650.68748	0.12057
1648.75910	0.12240
1646.83073	0.12757
1644.90236	0.13397
1642.97398	0.13855
1641.04561	0.14204
1639.11724	0.14440
1637.18886	0.14432
1635.26049	0.14148
1633.33212	0.13938
1631.40375	0.13954
1629.47537	0.14309
1627.54700	0.15256
1625.61863	0.16953
1623.69025	0.19714
1621.76188	0.23151
1619.83351	0.26116
1617.90513	0.29208
1615.97676	0.33112
1614.04839	0.36330
1612.12001	0.38744
1610.19164	0.41109
1608.26327	0.43440
1606.33489	0.45469
1604.40652	0.47149
1602.47815	0.48565
1600.54977	0.49716
1598.62140	0.50632
1596.69303	0.51390
1594.76465	0.52043
1592.83628	0.52602
1590.90791	0.53036
1588.97953	0.53292
1587.05116	0.53352
1585.12279	0.53228
1583.19441	0.52915
1581.26604	0.52471
1579.33767	0.51955
1577.40929	0.51210
1575.48092	0.49962
1573.55255	0.48728
1571.62418	0.47618
1569.69580	0.46066
1567.76743	0.44267
1565.83906	0.42650
1563.91068	0.41113
1561.98231	0.39799
1560.05394	0.38147
1558.12556	0.35255
1556.19719	0.33247
1554.26882	0.31985
1552.34044	0.30864
1550.41207	0.29995
1548.48370	0.29428
1546.55532	0.29151
1544.62695	0.29053
1542.69858	0.29111
1540.77020	0.29389
1538.84183	0.29759
1536.91346	0.30007
1534.98508	0.30319
1533.05671	0.30821
1531.12834	0.31353
1529.19996	0.31821
1527.27159	0.32321
1525.34322	0.32803
1523.41484	0.33198
1521.48647	0.33638
1519.55810	0.34080
1517.62972	0.34610
1515.70135	0.35520
1513.77298	0.36827
1511.84461	0.38446
1509.91623	0.40229
1507.98786	0.42536
1506.05949	0.45831
1504.13111	0.48121
1502.20274	0.49640
1500.27437	0.51356
1498.34599	0.53483
1496.41762	0.55798
1494.48925	0.57690
1492.56087	0.59154
1490.63250	0.60728
1488.70413	0.62386
1486.77575	0.63545
1484.84738	0.64249
1482.91901	0.64684
1480.99063	0.64887
1479.06226	0.64831
1477.13389	0.64469
1475.20551	0.63771
1473.27714	0.62630
1471.34877	0.61212
1469.42039	0.60142
1467.49202	0.59403
1465.56365	0.58581
1463.63527	0.57578
1461.70690	0.56750
1459.77853	0.56060
1457.85016	0.55020
1455.92178	0.53707
1453.99341	0.52988
1452.06504	0.52694
1450.13666	0.52627
1448.20829	0.52828
1446.27992	0.53285
1444.35154	0.53881
1442.42317	0.54614
1440.49480	0.55462
1438.56642	0.56433
1436.63805	0.57680
1434.70968	0.58898
1432.78130	0.59852
1430.85293	0.60859
1428.92456	0.61905
1426.99618	0.62665
1425.06781	0.63129
1423.13944	0.63374
1421.21106	0.63419
1419.28269	0.63316
1417.35432	0.63114
1415.42594	0.62883
1413.49757	0.62695
1411.56920	0.62594
1409.64082	0.62584
1407.71245	0.62684
1405.78408	0.62902
1403.85570	0.63117
1401.92733	0.63243
1399.99896	0.63346
1398.07059	0.63416
1396.14221	0.63370
1394.21384	0.63168
1392.28547	0.62864
1390.35709	0.62601
1388.42872	0.62448
1386.50035	0.62409
1384.57197	0.62484
1382.64360	0.62704
1380.71523	0.63060
1378.78685	0.63466
1376.85848	0.63871
1374.93011	0.64274
1373.00173	0.64670
1371.07336	0.65086
1369.14499	0.65635
1367.21661	0.66374
1365.28824	0.67210
1363.35987	0.68038
1361.43149	0.68706
1359.50312	0.69148
1357.57475	0.69469
1355.64637	0.69698
1353.71800	0.69792
1351.78963	0.69767
1349.86125	0.69696
1347.93288	0.69603
1346.00451	0.69459
1344.07614	0.69257
1342.14776	0.69049
1340.21939	0.68856
1338.29102	0.68674
1336.36264	0.68561
1334.43427	0.68533
1332.50590	0.68533
1330.57752	0.68574
1328.64915	0.68682
1326.72078	0.68831
1324.79240	0.69002
1322.86403	0.69165
1320.93566	0.69267
1319.00728	0.69272
1317.07891	0.69170
1315.15054	0.68984
1313.22216	0.68759
1311.29379	0.68541
1309.36542	0.68343
1307.43704	0.68163
1305.50867	0.68018
1303.58030	0.67897
1301.65192	0.67782
1299.72355	0.67718
1297.79518	0.67717
1295.86680	0.67666
1293.93843	0.67475
1292.01006	0.67184
1290.08168	0.66855
1288.15331	0.66513
1286.22494	0.66195
1284.29657	0.65949
1282.36819	0.65812
1280.43982	0.65783
1278.51145	0.65807
1276.58307	0.65797
1274.65470	0.65688
1272.72633	0.65502
1270.79795	0.65303
1268.86958	0.65134
1266.94121	0.65041
1265.01283	0.65029
1263.08446	0.65038
1261.15609	0.65039
1259.22771	0.65003
1257.29934	0.64863
1255.37097	0.64652
1253.44259	0.64422
1251.51422	0.64146
1249.58585	0.63833
1247.65747	0.63512
1245.72910	0.63183
1243.80073	0.62888
1241.87235	0.62658
1239.94398	0.62478
1238.01561	0.62365
1236.08723	0.62415
1234.15886	0.62681
1232.23049	0.63106
1230.30212	0.63658
1228.37374	0.64322
1226.44537	0.65085
1224.51700	0.65967
1222.58862	0.66939
1220.66025	0.67936
1218.73188	0.68925
1216.80350	0.69845
1214.87513	0.70587
1212.94676	0.71129
1211.01838	0.71546
1209.09001	0.71955
1207.16164	0.72417
1205.23326	0.72814
1203.30489	0.73072
1201.37652	0.73333
1199.44814	0.73732
1197.51977	0.74272
1195.59140	0.74898
1193.66302	0.75561
1191.73465	0.76210
1189.80628	0.76740
1187.87790	0.77098
1185.94953	0.77425
1184.02116	0.77775
1182.09278	0.77945
1180.16441	0.77906
1178.23604	0.77800
1176.30766	0.77568
1174.37929	0.77157
1172.45092	0.76735
1170.52255	0.76442
1168.59417	0.76224
1166.66580	0.75990
1164.73743	0.75794
1162.80905	0.75804
1160.88068	0.76131
1158.95231	0.76685
1157.02393	0.77306
1155.09556	0.77956
1153.16719	0.78630
1151.23881	0.79273
1149.31044	0.79844
1147.38207	0.80337
1145.45369	0.80768
1143.52532	0.81113
1141.59695	0.81370
1139.66857	0.81558
1137.74020	0.81628
1135.81183	0.81530
1133.88345	0.81228
1131.95508	0.80748
1130.02671	0.80238
1128.09833	0.79805
1126.16996	0.79468
1124.24159	0.79208
1122.31321	0.79025
1120.38484	0.78955
1118.45647	0.78962
1116.52809	0.78996
1114.59972	0.79041
1112.67135	0.79069
1110.74298	0.79121
1108.81460	0.79266
1106.88623	0.79469
1104.95786	0.79634
1103.02948	0.79708
1101.10111	0.79770
1099.17274	0.79862
1097.24436	0.79889
1095.31599	0.79815
1093.38762	0.79651
1091.45924	0.79433
1089.53087	0.79209
1087.60250	0.78842
1085.67412	0.78221
1083.74575	0.77537
1081.81738	0.77009
1079.88900	0.76699
1077.96063	0.76622
1076.03226	0.76777
1074.10388	0.77120
1072.17551	0.77592
1070.24714	0.78089
1068.31876	0.78517
1066.39039	0.78864
1064.46202	0.79124
1062.53364	0.79286
1060.60527	0.79418
1058.67690	0.79581
1056.74853	0.79766
1054.82015	0.79965
1052.89178	0.80145
1050.96341	0.80287
1049.03503	0.80368
1047.10666	0.80272
1045.17829	0.80041
1043.24991	0.79836
1041.32154	0.79584
1039.39317	0.79184
1037.46479	0.78766
1035.53642	0.78481
1033.60805	0.78313
1031.67967	0.78188
1029.75130	0.78155
1027.82293	0.78258
1025.89455	0.78469
1023.96618	0.78825
1022.03781	0.79232
1020.10943	0.79592
1018.18106	0.80044
1016.25269	0.80557
1014.32431	0.80968
1012.39594	0.81342
1010.46757	0.81758
1008.53919	0.82201
1006.61082	0.82620
1004.68245	0.82915
1002.75407	0.83137
1000.82570	0.83433
998.89733	0.83742
996.96896	0.83934
995.04058	0.84035
993.11221	0.84117
991.18384	0.84219
989.25546	0.84309
987.32709	0.84333
985.39872	0.84337
983.47034	0.84391
981.54197	0.84496
979.61360	0.84601
977.68522	0.84633
975.75685	0.84636
973.82848	0.84747
971.90010	0.84910
969.97173	0.84991
968.04336	0.85019
966.11498	0.85039
964.18661	0.85016
962.25824	0.84940
960.32986	0.84805
958.40149	0.84582
956.47312	0.84325
954.54474	0.84165
952.61637	0.84161
950.68800	0.84237
948.75962	0.84273
946.83125	0.84263
944.90288	0.84264
942.97451	0.84273
941.04613	0.84239
939.11776	0.84149
937.18939	0.84109
935.26101	0.84132
933.33264	0.84077
931.40427	0.83901
929.47589	0.83699
927.54752	0.83582
925.61915	0.83576
923.69077	0.83617
921.76240	0.83646
919.83403	0.83642
917.90565	0.83586
915.97728	0.83475
914.04891	0.83361
912.12053	0.83278
910.19216	0.83206
908.26379	0.83125
906.33541	0.83039
904.40704	0.82919
902.47867	0.82729
900.55029	0.82624
898.62192	0.82727
896.69355	0.82818
894.76517	0.82683
892.83680	0.82427
890.90843	0.82240
888.98005	0.82162
887.05168	0.82158
885.12331	0.82182
883.19494	0.82188
881.26656	0.82105
879.33819	0.81847
877.40982	0.81547
875.48144	0.81416
873.55307	0.81364
871.62470	0.81269
869.69632	0.81215
867.76795	0.81250
865.83958	0.81310
863.91120	0.81340
861.98283	0.81318
860.05446	0.81216
858.12608	0.81005
856.19771	0.80671
854.26934	0.80268
852.34096	0.79956
850.41259	0.79870
848.48422	0.79889
846.55584	0.79790
844.62747	0.79634
842.69910	0.79562
840.77072	0.79442
838.84235	0.79124
836.91398	0.78784
834.98560	0.78669
833.05723	0.78657
831.12886	0.78511
829.20049	0.78354
827.27211	0.78327
825.34374	0.78275
823.41537	0.78088
821.48699	0.77886
819.55862	0.77818
817.63025	0.77776
815.70187	0.77582
813.77350	0.77356
811.84513	0.77185
809.91675	0.76987
807.98838	0.76856
806.06001	0.76863
804.13163	0.76835
802.20326	0.76651
800.27489	0.76382
798.34651	0.76127
796.41814	0.75878
794.48977	0.75570
792.56139	0.75192
790.63302	0.74867
788.70465	0.74760
786.77627	0.74709
784.84790	0.74472
782.91953	0.74258
780.99115	0.74251
779.06278	0.74234
777.13441	0.74050
775.20603	0.73770
773.27766	0.73510
771.34929	0.73277
769.42092	0.73027
767.49254	0.72815
765.56417	0.72661
763.63580	0.72531
761.70742	0.72454
759.77905	0.72402
757.85068	0.72261
755.92230	0.72038
753.99393	0.71789
752.06556	0.71490
750.13718	0.71183
748.20881	0.70971
746.28044	0.70871
744.35206	0.70821
742.42369	0.70736
740.49532	0.70578
738.56694	0.70369
736.63857	0.70130
734.71020	0.69879
732.78182	0.69692
730.85345	0.69623
728.92508	0.69490
726.99670	0.69128
725.06833	0.68707
723.13996	0.68375
721.21158	0.68119
719.28321	0.68004
717.35484	0.67966
715.42647	0.67730
713.49809	0.67271
711.56972	0.66807
709.64135	0.66364
707.71297	0.65981
705.78460	0.65809
703.85623	0.65705
701.92785	0.65470
699.99948	0.65239
698.07111	0.65133
696.14273	0.65132
694.21436	0.65169
692.28599	0.65091
690.35761	0.64965
688.42924	0.64996
686.50087	0.65086
684.57249	0.65073
682.64412	0.64953
680.71575	0.64651
678.78737	0.64146
676.85900	0.63709
674.93063	0.63555
673.00225	0.63552
671.07388	0.63504
669.14551	0.63502
667.21713	0.63703
665.28876	0.63794
663.36039	0.63752
661.43201	0.63683
659.50364	0.63590
657.57527	0.63506
655.64690	0.63479
653.71852	0.63394
651.79015	0.63109
649.86178	0.62937
647.93340	0.63152
646.00503	0.63318
644.07666	0.63169
642.14828	0.63057
640.21991	0.63152
638.29154	0.63192
636.36316	0.63099
634.43479	0.63057
632.50642	0.63108
630.57804	0.63173
628.64967	0.63105
626.72130	0.62828
624.79292	0.62622
622.86455	0.62666
620.93618	0.62673
619.00780	0.62585
617.07943	0.62740
615.15106	0.63037
613.22268	0.62985
611.29431	0.62747
609.36594	0.63033
607.43756	0.63474
605.50919	0.63299
603.58082	0.63043
601.65244	0.63179
599.72407	0.63510
