3997.51769	0.46058
3995.58931	0.46139
3993.66094	0.46245
3991.73257	0.46371
3989.80419	0.46556
3987.87582	0.46801
3985.94745	0.47043
3984.01907	0.47263
3982.09070	0.47471
3980.16233	0.47655
3978.23396	0.47812
3976.30558	0.47929
3974.37721	0.47990
3972.44884	0.48039
3970.52046	0.48134
3968.59209	0.48295
3966.66372	0.48493
3964.73534	0.48646
3962.80697	0.48713
3960.87860	0.48788
3958.95022	0.48924
3957.02185	0.49065
3955.09348	0.49190
3953.16510	0.49259
3951.23673	0.49208
3949.30836	0.49134
3947.37998	0.49229
3945.45161	0.49398
3943.52324	0.49458
3941.59486	0.49557
3939.66649	0.49803
3937.73812	0.50026
3935.80974	0.50073
3933.88137	0.49919
3931.95300	0.49782
3930.02462	0.49918
3928.09625	0.50147
3926.16788	0.50188
3924.23950	0.50191
3922.31113	0.50339
3920.38276	0.50424
3918.45439	0.50381
3916.52601	0.50507
3914.59764	0.50891
3912.66927	0.51244
3910.74089	0.51407
3908.81252	0.51380
3906.88415	0.51072
3904.95577	0.50552
3903.02740	0.50226
3901.09903	0.50318
3899.17065	0.50765
3897.24228	0.51414
3895.31391	0.51821
3893.38553	0.51755
3891.45716	0.51650
3889.52879	0.51890
3887.60041	0.52015
3885.67204	0.51860
3883.74367	0.51799
3881.81529	0.51803
3879.88692	0.52006
3877.95855	0.52519
3876.03017	0.52685
3874.10180	0.52393
3872.17343	0.52095
3870.24505	0.52012
3868.31668	0.52269
3866.38831	0.52516
3864.45994	0.52529
3862.53156	0.52769
3860.60319	0.53255
3858.67482	0.53447
3856.74644	0.53159
3854.81807	0.52495
3852.88970	0.52086
3850.96132	0.52761
3849.03295	0.53663
3847.10458	0.54097
3845.17620	0.53976
3843.24783	0.53519
3841.31946	0.53009
3839.39108	0.52653
3837.46271	0.52715
3835.53434	0.53133
3833.60596	0.53513
3831.67759	0.53820
3829.74922	0.54088
3827.82084	0.54185
3825.89247	0.54161
3823.96410	0.53956
3822.03572	0.53374
3820.10735	0.53073
3818.17898	0.53421
3816.25060	0.53825
3814.32223	0.54377
3812.39386	0.54944
3810.46548	0.55072
3808.53711	0.54711
3806.60874	0.54287
3804.68037	0.54075
3802.75199	0.53721
3800.82362	0.53524
3798.89525	0.53860
3796.96687	0.54257
3795.03850	0.54719
3793.11013	0.55207
3791.18175	0.55422
3789.25338	0.55411
3787.32501	0.55274
3785.39663	0.55080
3783.46826	0.54992
3781.53989	0.54857
3779.61151	0.54638
3777.68314	0.54760
3775.75477	0.55105
3773.82639	0.55151
3771.89802	0.54765
3769.96965	0.54292
3768.04127	0.54154
3766.11290	0.54245
3764.18453	0.54387
3762.25615	0.54364
3760.32778	0.53982
3758.39941	0.53640
3756.47103	0.53630
3754.54266	0.53437
3752.61429	0.52718
3750.68591	0.52014
3748.75754	0.52082
3746.82917	0.52271
3744.90080	0.52202
3742.97242	0.52437
3741.04405	0.52798
3739.11568	0.52674
3737.18730	0.51941
3735.25893	0.51166
3733.33056	0.51310
3731.40218	0.52147
3729.47381	0.52703
3727.54544	0.52619
3725.61706	0.52240
3723.68869	0.52005
3721.76032	0.51972
3719.83194	0.52071
3717.90357	0.52165
3715.97520	0.52010
3714.04682	0.51380
3712.11845	0.50421
3710.19008	0.49981
3708.26170	0.50346
3706.33333	0.50699
3704.40496	0.50505
3702.47658	0.49902
3700.54821	0.49435
3698.61984	0.49222
3696.69146	0.48861
3694.76309	0.48172
3692.83472	0.47113
3690.90635	0.45731
3688.97797	0.44562
3687.04960	0.44065
3685.12123	0.43706
3683.19285	0.42949
3681.26448	0.41707
3679.33611	0.40147
3677.40773	0.38334
3675.47936	0.36369
3673.55099	0.35005
3671.62261	0.33984
3669.69424	0.32615
3667.76587	0.31416
3665.83749	0.30512
3663.90912	0.29388
3661.98075	0.28015
3660.05237	0.26562
3658.12400	0.25050
3656.19563	0.23459
3654.26725	0.22032
3652.33888	0.20700
3650.41051	0.19070
3648.48213	0.17461
3646.55376	0.16507
3644.62539	0.15871
3642.69701	0.15126
3640.76864	0.14217
3638.84027	0.13272
3636.91189	0.12369
3634.98352	0.11485
3633.05515	0.10634
3631.12678	0.09833
3629.19840	0.08958
3627.27003	0.08193
3625.34166	0.07714
3623.41328	0.07244
3621.48491	0.06670
3619.55654	0.06044
3617.62816	0.05515
3615.69979	0.05120
3613.77142	0.04746
3611.84304	0.04368
3609.91467	0.04003
3607.98630	0.03661
3606.05792	0.03369
3604.12955	0.03109
3602.20118	0.02831
3600.27280	0.02553
3598.34443	0.02312
3596.41606	0.02097
3594.48768	0.01900
3592.55931	0.01717
3590.63094	0.01548
3588.70256	0.01390
3586.77419	0.01250
3584.84582	0.01124
3582.91744	0.01006
3580.98907	0.00909
3579.06070	0.00825
3577.13233	0.00732
3575.20395	0.00630
3573.27558	0.00540
3571.34721	0.00467
3569.41883	0.00411
3567.49046	0.00375
3565.56209	0.00337
3563.63371	0.00291
3561.70534	0.00244
3559.77697	0.00215
3557.84859	0.00201
3555.92022	0.00178
3553.99185	0.00145
3552.06347	0.00123
3550.13510	0.00125
3548.20673	0.00117
3546.27835	0.00086
3544.34998	0.00092
3542.42161	0.00097
3540.49323	0.00065
3538.56486	0.00040
3536.63649	0.00028
3534.70811	0.00037
3532.77974	0.00036
3530.85137	0.00055
3528.92299	0.00063
3526.99462	0.00062
3525.06625	0.00066
3523.13787	0.00066
3521.20950	0.00059
3519.28113	0.00060
3517.35276	0.00060
3515.42438	0.00059
3513.49601	0.00070
3511.56764	0.00085
3509.63926	0.00078
3507.71089	0.00065
3505.78252	0.00081
3503.85414	0.00085
3501.92577	0.00073
3499.99740	0.00071
3498.06902	0.00070
3496.14065	0.00056
3494.21228	0.00041
3492.28390	0.00051
3490.35553	0.00057
3488.42716	0.00062
3486.49878	0.00077
3484.57041	0.00077
3482.64204	0.00062
3480.71366	0.00052
3478.78529	0.00045
3476.85692	0.00050
3474.92854	0.00058
3473.00017	0.00060
3471.07180	0.00038
3469.14342	0.00029
3467.21505	0.00049
3465.28668	0.00056
3463.35831	0.00057
3461.42993	0.00048
3459.50156	0.00052
3457.57319	0.00060
3455.64481	0.00053
3453.71644	0.00055
3451.78807	0.00075
3449.85969	0.00090
3447.93132	0.00088
3446.00295	0.00078
3444.07457	0.00076
3442.14620	0.00086
3440.21783	0.00095
3438.28945	0.00094
3436.36108	0.00091
3434.43271	0.00082
3432.50433	0.00054
3430.57596	0.00044
3428.64759	0.00057
3426.71921	0.00072
3424.79084	0.00078
3422.86247	0.00074
3420.93409	0.00060
3419.00572	0.00065
3417.07735	0.00071
3415.14897	0.00063
3413.22060	0.00034
3411.29223	0.00037
3409.36385	0.00043
3407.43548	0.00045
3405.50711	0.00070
3403.57874	0.00093
3401.65036	0.00101
3399.72199	0.00090
3397.79362	0.00080
3395.86524	0.00073
3393.93687	0.00062
3392.00850	0.00055
3390.08012	0.00065
3388.15175	0.00089
3386.22338	0.00116
3384.29500	0.00134
3382.36663	0.00118
3380.43826	0.00082
3378.50988	0.00058
3376.58151	0.00061
3374.65314	0.00083
3372.72476	0.00104
3370.79639	0.00099
3368.86802	0.00076
3366.93964	0.00060
3365.01127	0.00047
3363.08290	0.00047
3361.15452	0.00064
3359.22615	0.00071
3357.29778	0.00079
3355.36940	0.00107
3353.44103	0.00110
3351.51266	0.00081
3349.58428	0.00064
3347.65591	0.00071
3345.72754	0.00058
3343.79917	0.00042
3341.87079	0.00059
3339.94242	0.00095
3338.01405	0.00105
3336.08567	0.00093
3334.15730	0.00092
3332.22893	0.00096
3330.30055	0.00090
3328.37218	0.00078
3326.44381	0.00075
3324.51543	0.00076
3322.58706	0.00071
3320.65869	0.00059
3318.73031	0.00069
3316.80194	0.00086
3314.87357	0.00083
3312.94519	0.00062
3311.01682	0.00045
3309.08845	0.00044
3307.16007	0.00048
3305.23170	0.00055
3303.30333	0.00053
3301.37495	0.00038
3299.44658	0.00034
3297.51821	0.00033
3295.58983	0.00032
3293.66146	0.00037
3291.73309	0.00040
3289.80472	0.00041
3287.87634	0.00051
3285.94797	0.00070
3284.01960	0.00072
3282.09122	0.00068
3280.16285	0.00083
3278.23448	0.00084
3276.30610	0.00075
3274.37773	0.00083
3272.44936	0.00098
3270.52098	0.00091
3268.59261	0.00065
3266.66424	0.00052
3264.73586	0.00056
3262.80749	0.00071
3260.87912	0.00082
3258.95074	0.00066
3257.02237	0.00042
3255.09400	0.00041
3253.16562	0.00068
3251.23725	0.00097
3249.30888	0.00099
3247.38050	0.00080
3245.45213	0.00069
3243.52376	0.00068
3241.59538	0.00067
3239.66701	0.00069
3237.73864	0.00066
3235.81026	0.00062
3233.88189	0.00058
3231.95352	0.00065
3230.02515	0.00068
3228.09677	0.00050
3226.16840	0.00033
3224.24003	0.00041
3222.31165	0.00059
3220.38328	0.00066
3218.45491	0.00061
3216.52653	0.00056
3214.59816	0.00055
3212.66979	0.00049
3210.74141	0.00047
3208.81304	0.00054
3206.88467	0.00060
3204.95629	0.00073
3203.02792	0.00092
3201.09955	0.00094
3199.17117	0.00084
3197.24280	0.00079
3195.31443	0.00074
3193.38605	0.00062
3191.45768	0.00063
3189.52931	0.00074
3187.60093	0.00069
3185.67256	0.00059
3183.74419	0.00060
3181.81581	0.00069
3179.88744	0.00075
3177.95907	0.00063
3176.03070	0.00046
3174.10232	0.00042
3172.17395	0.00046
3170.24558	0.00054
3168.31720	0.00054
3166.38883	0.00051
3164.46046	0.00050
3162.53208	0.00041
3160.60371	0.00040
3158.67534	0.00048
3156.74696	0.00066
3154.81859	0.00074
3152.89022	0.00064
3150.96184	0.00045
3149.03347	0.00027
3147.10510	0.00015
3145.17672	0.00032
3143.24835	0.00055
3141.31998	0.00067
3139.39160	0.00063
3137.46323	0.00057
3135.53486	0.00055
3133.60648	0.00062
3131.67811	0.00068
3129.74974	0.00059
3127.82136	0.00042
3125.89299	0.00044
3123.96462	0.00051
3122.03624	0.00051
3120.10787	0.00040
3118.17950	0.00012
3116.25113	0.00021
3114.32275	0.00037
3112.39438	0.00036
3110.46601	0.00030
3108.53763	0.00020
3106.60926	0.00021
3104.68089	0.00031
3102.75251	0.00040
3100.82414	0.00050
3098.89577	0.00058
3096.96739	0.00054
3095.03902	0.00037
3093.11065	0.00046
3091.18227	0.00072
3089.25390	0.00079
3087.32553	0.00067
3085.39715	0.00052
3083.46878	0.00046
3081.54041	0.00057
3079.61203	0.00073
3077.68366	0.00076
3075.75529	0.00067
3073.82691	0.00060
3071.89854	0.00059
3069.97017	0.00069
3068.04179	0.00082
3066.11342	0.00092
3064.18505	0.00102
3062.25668	0.00113
3060.32830	0.00125
3058.39993	0.00139
3056.47156	0.00164
3054.54318	0.00199
3052.61481	0.00218
3050.68644	0.00225
3048.75806	0.00235
3046.82969	0.00248
3044.90132	0.00268
3042.97294	0.00300
3041.04457	0.00329
3039.11620	0.00349
3037.18782	0.00379
3035.25945	0.00419
3033.33108	0.00445
3031.40270	0.00459
3029.47433	0.00484
3027.54596	0.00518
3025.61758	0.00539
3023.68921	0.00545
3021.76084	0.00555
3019.83246	0.00569
3017.90409	0.00584
3015.97572	0.00601
3014.04734	0.00606
3012.11897	0.00592
3010.19060	0.00571
3008.26222	0.00560
3006.33385	0.00560
3004.40548	0.00549
3002.47711	0.00526
3000.54873	0.00505
2998.62036	0.00488
2996.69199	0.00460
2994.76361	0.00411
2992.83524	0.00354
2990.90687	0.00307
2988.97849	0.00265
2987.05012	0.00216
2985.12175	0.00160
2983.19337	0.00116
2981.26500	0.00101
2979.33663	0.00083
2977.40825	0.00071
2975.47988	0.00074
2973.55151	0.00067
2971.62313	0.00048
2969.69476	0.00053
2967.76639	0.00065
2965.83801	0.00078
2963.90964	0.00095
2961.98127	0.00098
2960.05289	0.00070
2958.12452	0.00042
2956.19615	0.00057
2954.26777	0.00055
2952.33940	0.00051
2950.41103	0.00073
2948.48266	0.00101
2946.55428	0.00110
2944.62591	0.00093
2942.69754	0.00078
2940.76916	0.00078
2938.84079	0.00073
2936.91242	0.00073
2934.98404	0.00082
2933.05567	0.00081
2931.12730	0.00082
2929.19892	0.00078
2927.27055	0.00059
2925.34218	0.00046
2923.41380	0.00045
2921.48543	0.00062
2919.55706	0.00082
2917.62868	0.00084
2915.70031	0.00069
2913.77194	0.00056
2911.84356	0.00072
2909.91519	0.00105
2907.98682	0.00117
2906.05844	0.00117
2904.13007	0.00125
2902.20170	0.00128
2900.27332	0.00113
2898.34495	0.00098
2896.41658	0.00101
2894.48820	0.00094
2892.55983	0.00072
2890.63146	0.00051
2888.70309	0.00057
2886.77471	0.00089
2884.84634	0.00119
2882.91797	0.00125
2880.98959	0.00098
2879.06122	0.00059
2877.13285	0.00044
2875.20447	0.00047
2873.27610	0.00051
2871.34773	0.00080
2869.41935	0.00113
2867.49098	0.00146
2865.56261	0.00195
2863.63423	0.00250
2861.70586	0.00291
2859.77749	0.00324
2857.84911	0.00358
2855.92074	0.00401
2853.99237	0.00467
2852.06399	0.00549
2850.13562	0.00632
2848.20725	0.00728
2846.27887	0.00853
2844.35050	0.00994
2842.42213	0.01130
2840.49375	0.01248
2838.56538	0.01343
2836.63701	0.01431
2834.70863	0.01521
2832.78026	0.01613
2830.85189	0.01710
2828.92352	0.01810
2826.99514	0.01906
2825.06677	0.02010
2823.13840	0.02119
2821.21002	0.02212
2819.28165	0.02301
2817.35328	0.02400
2815.42490	0.02506
2813.49653	0.02628
2811.56816	0.02766
2809.63978	0.02897
2807.71141	0.03024
2805.78304	0.03165
2803.85466	0.03315
2801.92629	0.03466
2799.99792	0.03621
2798.06954	0.03777
2796.14117	0.03926
2794.21280	0.04070
2792.28442	0.04218
2790.35605	0.04359
2788.42768	0.04475
2786.49930	0.04577
2784.57093	0.04680
2782.64256	0.04791
2780.71418	0.04899
2778.78581	0.04987
2776.85744	0.05061
2774.92907	0.05138
2773.00069	0.05219
2771.07232	0.05303
2769.14395	0.05399
2767.21557	0.05501
2765.28720	0.05597
2763.35883	0.05699
2761.43045	0.05824
2759.50208	0.05953
2757.57371	0.06071
2755.64533	0.06195
2753.71696	0.06324
2751.78859	0.06435
2749.86021	0.06529
2747.93184	0.06624
2746.00347	0.06725
2744.07509	0.06823
2742.14672	0.06909
2740.21835	0.06984
2738.28997	0.07067
2736.36160	0.07157
2734.43323	0.07234
2732.50485	0.07297
2730.57648	0.07356
2728.64811	0.07421
2726.71973	0.07508
2724.79136	0.07612
2722.86299	0.07706
2720.93461	0.07794
2719.00624	0.07903
2717.07787	0.08022
2715.14950	0.08129
2713.22112	0.08245
2711.29275	0.08385
2709.36438	0.08531
2707.43600	0.08672
2705.50763	0.08815
2703.57926	0.08958
2701.65088	0.09094
2699.72251	0.09230
2697.79414	0.09374
2695.86576	0.09525
2693.93739	0.09681
2692.00902	0.09832
2690.08064	0.09974
2688.15227	0.10112
2686.22390	0.10254
2684.29552	0.10395
2682.36715	0.10536
2680.43878	0.10686
2678.51040	0.10844
2676.58203	0.11004
2674.65366	0.11166
2672.72528	0.11329
2670.79691	0.11483
2668.86854	0.11624
2666.94016	0.11756
2665.01179	0.11880
2663.08342	0.12001
2661.15505	0.12128
2659.22667	0.12247
2657.29830	0.12347
2655.36993	0.12439
2653.44155	0.12522
2651.51318	0.12591
2649.58481	0.12665
2647.65643	0.12760
2645.72806	0.12860
2643.79969	0.12945
2641.87131	0.13008
2639.94294	0.13064
2638.01457	0.13143
2636.08619	0.13246
2634.15782	0.13351
2632.22945	0.13449
2630.30107	0.13548
2628.37270	0.13649
2626.44433	0.13742
2624.51595	0.13833
2622.58758	0.13941
2620.65921	0.14070
2618.73083	0.14199
2616.80246	0.14308
2614.87409	0.14410
2612.94571	0.14520
2611.01734	0.14637
2609.08897	0.14761
2607.16059	0.14884
2605.23222	0.15005
2603.30385	0.15124
2601.37548	0.15236
2599.44710	0.15332
2597.51873	0.15409
2595.59036	0.15473
2593.66198	0.15532
2591.73361	0.15590
2589.80524	0.15651
2587.87686	0.15719
2585.94849	0.15795
2584.02012	0.15880
2582.09174	0.15973
2580.16337	0.16068
2578.23500	0.16161
2576.30662	0.16261
2574.37825	0.16387
2572.44988	0.16542
2570.52150	0.16717
2568.59313	0.16900
2566.66476	0.17085
2564.73638	0.17289
2562.80801	0.17520
2560.87964	0.17763
2558.95126	0.18009
2557.02289	0.18260
2555.09452	0.18505
2553.16614	0.18728
2551.23777	0.18926
2549.30940	0.19107
2547.38103	0.19274
2545.45265	0.19420
2543.52428	0.19543
2541.59591	0.19652
2539.66753	0.19750
2537.73916	0.19844
2535.81079	0.19937
2533.88241	0.20027
2531.95404	0.20116
2530.02567	0.20216
2528.09729	0.20327
2526.16892	0.20453
2524.24055	0.20594
2522.31217	0.20737
2520.38380	0.20878
2518.45543	0.21022
2516.52705	0.21162
2514.59868	0.21300
2512.67031	0.21449
2510.74193	0.21612
2508.81356	0.21778
2506.88519	0.21939
2504.95681	0.22099
2503.02844	0.22260
2501.10007	0.22416
2499.17169	0.22571
2497.24332	0.22729
2495.31495	0.22893
2493.38657	0.23066
2491.45820	0.23249
2489.52983	0.23437
2487.60146	0.23627
2485.67308	0.23817
2483.74471	0.24011
2481.81634	0.24202
2479.88796	0.24378
2477.95959	0.24540
2476.03122	0.24697
2474.10284	0.24862
2472.17447	0.25047
2470.24610	0.25243
2468.31772	0.25430
2466.38935	0.25607
2464.46098	0.25773
2462.53260	0.25937
2460.60423	0.26112
2458.67586	0.26286
2456.74748	0.26447
2454.81911	0.26605
2452.89074	0.26772
2450.96236	0.26938
2449.03399	0.27096
2447.10562	0.27254
2445.17724	0.27410
2443.24887	0.27560
2441.32050	0.27714
2439.39212	0.27885
2437.46375	0.28066
2435.53538	0.28253
2433.60700	0.28443
2431.67863	0.28632
2429.75026	0.28824
2427.82189	0.29019
2425.89351	0.29195
2423.96514	0.29339
2422.03677	0.29463
2420.10839	0.29588
2418.18002	0.29716
2416.25165	0.29847
2414.32327	0.29982
2412.39490	0.30128
2410.46653	0.30289
2408.53815	0.30462
2406.60978	0.30645
2404.68141	0.30838
2402.75303	0.31029
2400.82466	0.31213
2398.89629	0.31411
2396.96791	0.31626
2395.03954	0.31833
2393.11117	0.32012
2391.18279	0.32173
2389.25442	0.32334
2387.32605	0.32495
2385.39767	0.32631
2383.46930	0.32729
2381.54093	0.32788
2379.61255	0.32816
2377.68418	0.32833
2375.75581	0.32852
2373.82744	0.32868
2371.89906	0.32886
2369.97069	0.32924
2368.04232	0.32988
2366.11394	0.33059
2364.18557	0.33107
2362.25720	0.33144
2360.32882	0.33239
2358.40045	0.33402
2356.47208	0.33574
2354.54370	0.33751
2352.61533	0.33943
2350.68696	0.34100
2348.75858	0.34181
2346.83021	0.34181
2344.90184	0.34127
2342.97346	0.34091
2341.04509	0.34108
2339.11672	0.34175
2337.18834	0.34273
2335.25997	0.34357
2333.33160	0.34413
2331.40322	0.34464
2329.47485	0.34513
2327.54648	0.34558
2325.61810	0.34618
2323.68973	0.34724
2321.76136	0.34891
2319.83298	0.35100
2317.90461	0.35314
2315.97624	0.35518
2314.04787	0.35732
2312.11949	0.35975
2310.19112	0.36236
2308.26275	0.36491
2306.33437	0.36729
2304.40600	0.36950
2302.47763	0.37148
2300.54925	0.37319
2298.62088	0.37468
2296.69251	0.37604
2294.76413	0.37730
2292.83576	0.37844
2290.90739	0.37939
2288.97901	0.38012
2287.05064	0.38071
2285.12227	0.38128
2283.19389	0.38174
2281.26552	0.38193
2279.33715	0.38181
2277.40877	0.38154
2275.48040	0.38129
2273.55203	0.38111
2271.62365	0.38101
2269.69528	0.38094
2267.76691	0.38077
2265.83853	0.38057
2263.91016	0.38050
2261.98179	0.38064
2260.05342	0.38092
2258.12504	0.38140
2256.19667	0.38206
2254.26830	0.38278
2252.33992	0.38355
2250.41155	0.38439
2248.48318	0.38537
2246.55480	0.38641
2244.62643	0.38738
2242.69806	0.38825
2240.76968	0.38905
2238.84131	0.38976
2236.91294	0.39035
2234.98456	0.39075
2233.05619	0.39094
2231.12782	0.39109
2229.19944	0.39135
2227.27107	0.39159
2225.34270	0.39163
2223.41432	0.39150
2221.48595	0.39133
2219.55758	0.39107
2217.62920	0.39062
2215.70083	0.39001
2213.77246	0.38933
2211.84408	0.38869
2209.91571	0.38808
2207.98734	0.38742
2206.05896	0.38669
2204.13059	0.38595
2202.20222	0.38526
2200.27385	0.38453
2198.34547	0.38370
2196.41710	0.38279
2194.48873	0.38184
2192.56035	0.38084
2190.63198	0.37995
2188.70361	0.37923
2186.77523	0.37867
2184.84686	0.37823
2182.91849	0.37781
2180.99011	0.37738
2179.06174	0.37691
2177.13337	0.37640
2175.20499	0.37583
2173.27662	0.37516
2171.34825	0.37451
2169.41987	0.37410
2167.49150	0.37382
2165.56313	0.37342
2163.63475	0.37290
2161.70638	0.37249
2159.77801	0.37230
2157.84963	0.37227
2155.92126	0.37234
2153.99289	0.37244
2152.06451	0.37256
2150.13614	0.37276
2148.20777	0.37301
2146.27940	0.37328
2144.35102	0.37360
2142.42265	0.37399
2140.49428	0.37442
2138.56590	0.37468
2136.63753	0.37475
2134.70916	0.37487
2132.78078	0.37514
2130.85241	0.37553
2128.92404	0.37600
2126.99566	0.37656
2125.06729	0.37729
2123.13892	0.37829
2121.21054	0.37949
2119.28217	0.38072
2117.35380	0.38182
2115.42542	0.38287
2113.49705	0.38405
2111.56868	0.38533
2109.64030	0.38656
2107.71193	0.38763
2105.78356	0.38850
2103.85518	0.38921
2101.92681	0.38986
2099.99844	0.39050
2098.07006	0.39109
2096.14169	0.39158
2094.21332	0.39196
2092.28494	0.39214
2090.35657	0.39211
2088.42820	0.39210
2086.49983	0.39222
2084.57145	0.39226
2082.64308	0.39215
2080.71471	0.39204
2078.78633	0.39196
2076.85796	0.39190
2074.92959	0.39186
2073.00121	0.39193
2071.07284	0.39227
2069.14447	0.39278
2067.21609	0.39328
2065.28772	0.39397
2063.35935	0.39518
2061.43097	0.39675
2059.50260	0.39849
2057.57423	0.40042
2055.64585	0.40238
2053.71748	0.40436
2051.78911	0.40649
2049.86073	0.40863
2047.93236	0.41048
2046.00399	0.41204
2044.07561	0.41343
2042.14724	0.41481
2040.21887	0.41633
2038.29049	0.41780
2036.36212	0.41903
2034.43375	0.42007
2032.50538	0.42099
2030.57700	0.42173
2028.64863	0.42232
2026.72026	0.42280
2024.79188	0.42322
2022.86351	0.42362
2020.93514	0.42393
2019.00676	0.42408
2017.07839	0.42460
2015.15002	0.42588
2013.22164	0.42748
2011.29327	0.42892
2009.36490	0.43025
2007.43652	0.43158
2005.50815	0.43301
2003.57978	0.43436
2001.65140	0.43550
1999.72303	0.43661
1997.79466	0.43777
1995.86628	0.43842
1993.93791	0.43803
1992.00954	0.43761
1990.08116	0.43843
1988.15279	0.43982
1986.22442	0.44092
1984.29604	0.44172
1982.36767	0.44220
1980.43930	0.44248
1978.51092	0.44281
1976.58255	0.44327
1974.65418	0.44380
1972.72581	0.44438
1970.79743	0.44464
1968.86906	0.44423
1966.94069	0.44423
1965.01231	0.44564
1963.08394	0.44739
1961.15557	0.44862
1959.22719	0.44972
1957.29882	0.45079
1955.37045	0.45184
1953.44207	0.45328
1951.51370	0.45500
1949.58533	0.45652
1947.65695	0.45750
1945.72858	0.45759
1943.80021	0.45719
1941.87183	0.45837
1939.94346	0.46161
1938.01509	0.46439
1936.08671	0.46571
1934.15834	0.46641
1932.22997	0.46712
1930.30159	0.46787
1928.37322	0.46847
1926.44485	0.46826
1924.51647	0.46685
1922.58810	0.46582
1920.65973	0.46585
1918.73135	0.46576
1916.80298	0.46680
1914.87461	0.46923
1912.94624	0.47034
1911.01786	0.46958
1909.08949	0.46886
1907.16112	0.46934
1905.23274	0.47012
1903.30437	0.47024
1901.37600	0.46985
1899.44762	0.46900
1897.51925	0.46733
1895.59088	0.46544
1893.66250	0.46421
1891.73413	0.46249
1889.80576	0.46053
1887.87738	0.46084
1885.94901	0.46250
1884.02064	0.46343
1882.09226	0.46394
1880.16389	0.46442
1878.23552	0.46489
1876.30714	0.46545
1874.37877	0.46570
1872.45040	0.46404
1870.52202	0.45951
1868.59365	0.45602
1866.66528	0.45830
1864.73690	0.46277
1862.80853	0.46479
1860.88016	0.46460
1858.95179	0.46382
1857.02341	0.46309
1855.09504	0.46231
1853.16667	0.46127
1851.23829	0.45956
1849.30992	0.45656
1847.38155	0.45194
1845.45317	0.44652
1843.52480	0.44455
1841.59643	0.44720
1839.66805	0.44891
1837.73968	0.44780
1835.81131	0.44610
1833.88293	0.44378
1831.95456	0.43864
1830.02619	0.43260
1828.09781	0.43005
1826.16944	0.42927
1824.24107	0.42852
1822.31269	0.42864
1820.38432	0.42763
1818.45595	0.42455
1816.52757	0.42090
1814.59920	0.41672
1812.67083	0.41100
1810.74245	0.40495
1808.81408	0.40079
1806.88571	0.39745
1804.95733	0.39243
1803.02896	0.38485
1801.10059	0.37633
1799.17222	0.36963
1797.24384	0.36405
1795.31547	0.35641
1793.38710	0.34583
1791.45872	0.33659
1789.53035	0.33194
1787.60198	0.32711
1785.67360	0.31902
1783.74523	0.30943
1781.81686	0.29995
1779.88848	0.29101
1777.96011	0.28288
1776.03174	0.27386
1774.10336	0.26212
1772.17499	0.24962
1770.24662	0.24100
1768.31824	0.23503
1766.38987	0.22814
1764.46150	0.21932
1762.53312	0.20775
1760.60475	0.19519
1758.67638	0.18326
1756.74800	0.16982
1754.81963	0.15542
1752.89126	0.13996
1750.96288	0.12108
1749.03451	0.10114
1747.10614	0.08381
1745.17777	0.06813
1743.24939	0.05322
1741.32102	0.03959
1739.39265	0.02770
1737.46427	0.01914
1735.53590	0.01299
1733.60753	0.00738
1731.67915	0.00378
1729.75078	0.00213
1727.82241	0.00115
1725.89403	0.00061
1723.96566	0.00044
1722.03729	0.00050
1720.10891	0.00086
1718.18054	0.00100
1716.25217	0.00077
1714.32379	0.00052
1712.39542	0.00052
1710.46705	0.00057
1708.53867	0.00051
1706.61030	0.00049
1704.68193	0.00068
1702.75355	0.00095
1700.82518	0.00114
1698.89681	0.00114
1696.96843	0.00103
1695.04006	0.00095
1693.11169	0.00088
1691.18331	0.00078
1689.25494	0.00071
1687.32657	0.00071
1685.39820	0.00086
1683.46982	0.00095
1681.54145	0.00090
1679.61308	0.00085
1677.68470	0.00086
1675.75633	0.00089
1673.82796	0.00089
1671.89958	0.00085
1669.97121	0.00074
1668.04284	0.00065
1666.11446	0.00062
1664.18609	0.00062
1662.25772	0.00052
1660.32934	0.00036
1658.40097	0.00032
1656.47260	0.00038
1654.54422	0.00049
1652.61585	0.00061
1650.68748	0.00066
1648.75910	0.00064
1646.83073	0.00059
1644.90236	0.00051
1642.97398	0.00046
1641.04561	0.00052
1639.11724	0.00068
1637.18886	0.00078
1635.26049	0.00079
1633.33212	0.00070
1631.40375	0.00046
1629.47537	0.00024
1627.54700	0.00020
1625.61863	0.00023
1623.69025	0.00028
1621.76188	0.00035
1619.83351	0.00048
1617.90513	0.00072
1615.97676	0.00082
1614.04839	0.00069
1612.12001	0.00057
1610.19164	0.00051
1608.26327	0.00044
1606.33489	0.00038
1604.40652	0.00040
1602.47815	0.00037
1600.54977	0.00042
1598.62140	0.00053
1596.69303	0.00045
1594.76465	0.00033
1592.83628	0.00030
1590.90791	0.00031
1588.97953	0.00040
1587.05116	0.00040
1585.12279	0.00035
1583.19441	0.00045
1581.26604	0.00057
1579.33767	0.00063
1577.40929	0.00074
1575.48092	0.00081
1573.55255	0.00064
1571.62418	0.00043
1569.69580	0.00031
1567.76743	0.00029
1565.83906	0.00028
1563.91068	0.00032
1561.98231	0.00039
1560.05394	0.00055
1558.12556	0.00065
1556.19719	0.00059
1554.26882	0.00047
1552.34044	0.00039
1550.41207	0.00037
1548.48370	0.00038
1546.55532	0.00046
1544.62695	0.00058
1542.69858	0.00069
1540.77020	0.00079
1538.84183	0.00082
1536.91346	0.00072
1534.98508	0.00067
1533.05671	0.00068
1531.12834	0.00066
1529.19996	0.00057
1527.27159	0.00050
1525.34322	0.00050
1523.41484	0.00049
1521.48647	0.00053
1519.55810	0.00056
1517.62972	0.00049
1515.70135	0.00048
1513.77298	0.00059
1511.84461	0.00068
1509.91623	0.00065
1507.98786	0.00059
1506.05949	0.00049
1504.13111	0.00037
1502.20274	0.00041
1500.27437	0.00059
1498.34599	0.00067
1496.41762	0.00059
1494.48925	0.00055
1492.56087	0.00059
1490.63250	0.00070
1488.70413	0.00088
1486.77575	0.00105
1484.84738	0.00112
1482.91901	0.00108
1480.99063	0.00095
1479.06226	0.00083
1477.13389	0.00067
1475.20551	0.00050
1473.27714	0.00053
1471.34877	0.00068
1469.42039	0.00075
1467.49202	0.00080
1465.56365	0.00083
1463.63527	0.00083
1461.70690	0.00079
1459.77853	0.00068
1457.85016	0.00060
1455.92178	0.00061
1453.99341	0.00061
1452.06504	0.00056
1450.13666	0.00058
1448.20829	0.00063
1446.27992	0.00059
1444.35154	0.00051
1442.42317	0.00043
1440.49480	0.00040
1438.56642	0.00051
1436.63805	0.00062
1434.70968	0.00060
1432.78130	0.00056
1430.85293	0.00058
1428.92456	0.00062
1426.99618	0.00058
1425.06781	0.00054
1423.13944	0.00053
1421.21106	0.00056
1419.28269	0.00066
1417.35432	0.00063
1415.42594	0.00053
1413.49757	0.00051
1411.56920	0.00055
1409.64082	0.00051
1407.71245	0.00039
1405.78408	0.00048
1403.85570	0.00064
1401.92733	0.00064
1399.99896	0.00060
1398.07059	0.00061
1396.14221	0.00060
1394.21384	0.00057
1392.28547	0.00056
1390.35709	0.00057
1388.42872	0.00064
1386.50035	0.00068
1384.57197	0.00064
1382.64360	0.00066
1380.71523	0.00074
1378.78685	0.00076
1376.85848	0.00074
1374.93011	0.00072
1373.00173	0.00060
1371.07336	0.00052
1369.14499	0.00048
1367.21661	0.00054
1365.28824	0.00061
1363.35987	0.00072
1361.43149	0.00082
1359.50312	0.00070
1357.57475	0.00047
1355.64637	0.00046
1353.71800	0.00049
1351.78963	0.00056
1349.86125	0.00065
1347.93288	0.00065
1346.00451	0.00063
1344.07614	0.00068
1342.14776	0.00072
1340.21939	0.00069
1338.29102	0.00061
1336.36264	0.00053
1334.43427	0.00045
1332.50590	0.00040
1330.57752	0.00047
1328.64915	0.00058
1326.72078	0.00062
1324.79240	0.00056
1322.86403	0.00053
1320.93566	0.00061
1319.00728	0.00068
1317.07891	0.00064
1315.15054	0.00058
1313.22216	0.00060
1311.29379	0.00073
1309.36542	0.00078
1307.43704	0.00068
1305.50867	0.00048
1303.58030	0.00032
1301.65192	0.00039
1299.72355	0.00060
1297.79518	0.00057
1295.86680	0.00074
1293.93843	0.00093
1292.01006	0.00098
1290.08168	0.00086
1288.15331	0.00073
1286.22494	0.00066
1284.29657	0.00067
1282.36819	0.00071
1280.43982	0.00068
1278.51145	0.00053
1276.58307	0.00054
1274.65470	0.00047
1272.72633	0.00031
1270.79795	0.00053
1268.86958	0.00082
1266.94121	0.00109
1265.01283	0.00132
1263.08446	0.00128
1261.15609	0.00094
1259.22771	0.00073
1257.29934	0.00072
1255.37097	0.00077
1253.44259	0.00081
1251.51422	0.00073
1249.58585	0.00062
1247.65747	0.00055
1245.72910	0.00063
1243.80073	0.00084
1241.87235	0.00097
1239.94398	0.00098
1238.01561	0.00102
1236.08723	0.00108
1234.15886	0.00111
1232.23049	0.00134
1230.30212	0.00156
1228.37374	0.00152
1226.44537	0.00127
1224.51700	0.00103
1222.58862	0.00129
1220.66025	0.00144
1218.73188	0.00153
1216.80350	0.00150
1214.87513	0.00139
1212.94676	0.00145
1211.01838	0.00164
1209.09001	0.00161
1207.16164	0.00125
1205.23326	0.00101
1203.30489	0.00119
1201.37652	0.00149
1199.44814	0.00150
1197.51977	0.00125
1195.59140	0.00106
1193.66302	0.00110
1191.73465	0.00127
1189.80628	0.00133
1187.87790	0.00111
1185.94953	0.00087
1184.02116	0.00082
1182.09278	0.00092
1180.16441	0.00092
1178.23604	0.00087
1176.30766	0.00090
1174.37929	0.00128
1172.45092	0.00168
1170.52255	0.00152
1168.59417	0.00118
1166.66580	0.00111
1164.73743	0.00117
1162.80905	0.00102
1160.88068	0.00090
1158.95231	0.00088
1157.02393	0.00087
1155.09556	0.00096
1153.16719	0.00118
1151.23881	0.00135
1149.31044	0.00135
1147.38207	0.00134
1145.45369	0.00129
1143.52532	0.00120
1141.59695	0.00130
1139.66857	0.00148
1137.74020	0.00141
1135.81183	0.00129
1133.88345	0.00149
1131.95508	0.00172
1130.02671	0.00171
1128.09833	0.00142
1126.16996	0.00109
1124.24159	0.00096
1122.31321	0.00102
1120.38484	0.00125
1118.45647	0.00141
1116.52809	0.00154
1114.59972	0.00162
1112.67135	0.00144
1110.74298	0.00116
1108.81460	0.00103
1106.88623	0.00097
1104.95786	0.00097
1103.02948	0.00108
1101.10111	0.00135
1099.17274	0.00161
1097.24436	0.00161
1095.31599	0.00130
1093.38762	0.00106
1091.45924	0.00081
1089.53087	0.00095
1087.60250	0.00117
1085.67412	0.00121
1083.74575	0.00136
1081.81738	0.00161
1079.88900	0.00172
1077.96063	0.00162
1076.03226	0.00146
1074.10388	0.00125
1072.17551	0.00095
1070.24714	0.00096
1068.31876	0.00120
1066.39039	0.00132
1064.46202	0.00129
1062.53364	0.00127
1060.60527	0.00133
1058.67690	0.00159
1056.74853	0.00181
1054.82015	0.00175
1052.89178	0.00151
1050.96341	0.00134
1049.03503	0.00131
1047.10666	0.00147
1045.17829	0.00178
1043.24991	0.00194
1041.32154	0.00186
1039.39317	0.00158
1037.46479	0.00132
1035.53642	0.00121
1033.60805	0.00118
1031.67967	0.00127
1029.75130	0.00116
1027.82293	0.00091
1025.89455	0.00073
1023.96618	0.00090
1022.03781	0.00092
1020.10943	0.00081
1018.18106	0.00097
1016.25269	0.00112
1014.32431	0.00100
1012.39594	0.00089
1010.46757	0.00088
1008.53919	0.00075
1006.61082	0.00068
1004.68245	0.00075
1002.75407	0.00071
1000.82570	0.00064
998.89733	0.00085
996.96896	0.00112
995.04058	0.00128
993.11221	0.00149
991.18384	0.00193
989.25546	0.00256
987.32709	0.00328
985.39872	0.00387
983.47034	0.00415
981.54197	0.00426
979.61360	0.00430
977.68522	0.00441
975.75685	0.00491
973.82848	0.00597
971.90010	0.00779
969.97173	0.01073
968.04336	0.01435
966.11498	0.01743
964.18661	0.01893
962.25824	0.01797
960.32986	0.01410
958.40149	0.00883
956.47312	0.00489
954.54474	0.00341
952.61637	0.00371
950.68800	0.00488
948.75962	0.00628
946.83125	0.00733
944.90288	0.00811
942.97451	0.00946
941.04613	0.01212
939.11776	0.01606
937.18939	0.02080
935.26101	0.02570
933.33264	0.03015
931.40427	0.03374
929.47589	0.03616
927.54752	0.03729
925.61915	0.03728
923.69077	0.03652
921.76240	0.03596
919.83403	0.03685
917.90565	0.03960
915.97728	0.04318
914.04891	0.04605
912.12053	0.04720
910.19216	0.04612
908.26379	0.04295
906.33541	0.03858
904.40704	0.03383
902.47867	0.02934
900.55029	0.02618
898.62192	0.02510
896.69355	0.02573
894.76517	0.02749
892.83680	0.03031
890.90843	0.03380
888.98005	0.03666
887.05168	0.03742
885.12331	0.03675
883.19494	0.03792
881.26656	0.04311
879.33819	0.05020
877.40982	0.05546
875.48144	0.05808
873.55307	0.05928
871.62470	0.05985
869.69632	0.06006
867.76795	0.05978
865.83958	0.05867
863.91120	0.05709
861.98283	0.05553
860.05446	0.05384
858.12608	0.05173
856.19771	0.04930
854.26934	0.04703
852.34096	0.04549
850.41259	0.04467
848.48422	0.04421
846.55584	0.04386
844.62747	0.04355
842.69910	0.04334
840.77072	0.04314
838.84235	0.04308
836.91398	0.04342
834.98560	0.04398
833.05723	0.04437
831.12886	0.04424
829.20049	0.04345
827.27211	0.04234
825.34374	0.04103
823.41537	0.03963
821.48699	0.03863
819.55862	0.03810
817.63025	0.03778
815.70187	0.03741
813.77350	0.03661
811.84513	0.03539
809.91675	0.03395
807.98838	0.03245
806.06001	0.03113
804.13163	0.02989
802.20326	0.02854
800.27489	0.02709
798.34651	0.02545
796.41814	0.02351
794.48977	0.02120
792.56139	0.01859
790.63302	0.01593
788.70465	0.01347
786.77627	0.01144
784.84790	0.00974
782.91953	0.00789
780.99115	0.00591
779.06278	0.00421
777.13441	0.00294
775.20603	0.00209
773.27766	0.00169
771.34929	0.00147
769.42092	0.00121
767.49254	0.00084
765.56417	0.00118
763.63580	0.00166
761.70742	0.00200
759.77905	0.00197
757.85068	0.00173
755.92230	0.00167
753.99393	0.00187
752.06556	0.00182
750.13718	0.00169
748.20881	0.00168
746.28044	0.00151
744.35206	0.00137
742.42369	0.00160
740.49532	0.00177
738.56694	0.00178
736.63857	0.00271
734.71020	0.00349
732.78182	0.00369
730.85345	0.00369
728.92508	0.00363
726.99670	0.00326
725.06833	0.00279
723.13996	0.00253
721.21158	0.00246
719.28321	0.00214
717.35484	0.00190
715.42647	0.00197
713.49809	0.00231
711.56972	0.00295
709.64135	0.00342
707.71297	0.00333
705.78460	0.00300
703.85623	0.00294
701.92785	0.00311
699.99948	0.00325
698.07111	0.00306
696.14273	0.00282
694.21436	0.00268
692.28599	0.00244
690.35761	0.00238
688.42924	0.00268
686.50087	0.00321
684.57249	0.00353
682.64412	0.00369
680.71575	0.00374
678.78737	0.00349
676.85900	0.00381
674.93063	0.00504
673.00225	0.00565
671.07388	0.00538
669.14551	0.00555
667.21713	0.00502
665.28876	0.00357
663.36039	0.00293
661.43201	0.00301
659.50364	0.00313
657.57527	0.00360
655.64690	0.00397
653.71852	0.00353
651.79015	0.00275
649.86178	0.00251
647.93340	0.00273
646.00503	0.00274
644.07666	0.00322
642.14828	0.00373
640.21991	0.00387
638.29154	0.00393
636.36316	0.00406
634.43479	0.00410
632.50642	0.00359
630.57804	0.00323
628.64967	0.00382
626.72130	0.00483
624.79292	0.00654
622.86455	0.00729
620.93618	0.00677
619.00780	0.00597
617.07943	0.00507
615.15106	0.00523
613.22268	0.00587
611.29431	0.00612
609.36594	0.00671
607.43756	0.00817
605.50919	0.00910
603.58082	0.00953
601.65244	0.01076
599.72407	0.01114
