3997.51769	0.44541
3995.58931	0.44596
3993.66094	0.44663
3991.73257	0.44774
3989.80419	0.44937
3987.87582	0.45135
3985.94745	0.45339
3984.01907	0.45528
3982.09070	0.45707
3980.16233	0.45869
3978.23396	0.45987
3976.30558	0.46052
3974.37721	0.46095
3972.44884	0.46168
3970.52046	0.46304
3968.59209	0.46492
3966.66372	0.46666
3964.73534	0.46760
3962.80697	0.46790
3960.87860	0.46861
3958.95022	0.46989
3957.02185	0.47106
3955.09348	0.47201
3953.16510	0.47249
3951.23673	0.47213
3949.30836	0.47196
3947.37998	0.47316
3945.45161	0.47433
3943.52324	0.47433
3941.59486	0.47528
3939.66649	0.47789
3937.73812	0.48006
3935.80974	0.48043
3933.88137	0.47890
3931.95300	0.47757
3930.02462	0.47897
3928.09625	0.48141
3926.16788	0.48195
3924.23950	0.48173
3922.31113	0.48281
3920.38276	0.48375
3918.45439	0.48368
3916.52601	0.48509
3914.59764	0.48900
3912.66927	0.49267
3910.74089	0.49440
3908.81252	0.49408
3906.88415	0.49075
3904.95577	0.48512
3903.02740	0.48147
3901.09903	0.48233
3899.17065	0.48688
3897.24228	0.49337
3895.31391	0.49745
3893.38553	0.49681
3891.45716	0.49556
3889.52879	0.49753
3887.60041	0.49855
3885.67204	0.49706
3883.74367	0.49648
3881.81529	0.49645
3879.88692	0.49851
3877.95855	0.50395
3876.03017	0.50596
3874.10180	0.50314
3872.17343	0.49990
3870.24505	0.49866
3868.31668	0.50108
3866.38831	0.50362
3864.45994	0.50368
3862.53156	0.50603
3860.60319	0.51107
3858.67482	0.51299
3856.74644	0.50972
3854.81807	0.50269
3852.88970	0.49881
3850.96132	0.50603
3849.03295	0.51518
3847.10458	0.51955
3845.17620	0.51846
3843.24783	0.51394
3841.31946	0.50882
3839.39108	0.50523
3837.46271	0.50584
3835.53434	0.51021
3833.60596	0.51436
3831.67759	0.51761
3829.74922	0.52021
3827.82084	0.52092
3825.89247	0.52022
3823.96410	0.51780
3822.03572	0.51216
3820.10735	0.50980
3818.17898	0.51369
3816.25060	0.51769
3814.32223	0.52318
3812.39386	0.52905
3810.46548	0.53037
3808.53711	0.52648
3806.60874	0.52203
3804.68037	0.52007
3802.75199	0.51688
3800.82362	0.51516
3798.89525	0.51839
3796.96687	0.52209
3795.03850	0.52650
3793.11013	0.53132
3791.18175	0.53369
3789.25338	0.53385
3787.32501	0.53256
3785.39663	0.53061
3783.46826	0.52977
3781.53989	0.52837
3779.61151	0.52606
3777.68314	0.52750
3775.75477	0.53133
3773.82639	0.53192
3771.89802	0.52814
3769.96965	0.52370
3768.04127	0.52263
3766.11290	0.52366
3764.18453	0.52501
3762.25615	0.52464
3760.32778	0.52081
3758.39941	0.51751
3756.47103	0.51733
3754.54266	0.51524
3752.61429	0.50812
3750.68591	0.50124
3748.75754	0.50199
3746.82917	0.50405
3744.90080	0.50352
3742.97242	0.50573
3741.04405	0.50925
3739.11568	0.50794
3737.18730	0.50061
3735.25893	0.49334
3733.33056	0.49521
3731.40218	0.50354
3729.47381	0.50924
3727.54544	0.50878
3725.61706	0.50506
3723.68869	0.50247
3721.76032	0.50211
3719.83194	0.50338
3717.90357	0.50461
3715.97520	0.50318
3714.04682	0.49691
3712.11845	0.48733
3710.19008	0.48299
3708.26170	0.48691
3706.33333	0.49091
3704.40496	0.48933
3702.47658	0.48354
3700.54821	0.47937
3698.61984	0.47783
3696.69146	0.47464
3694.76309	0.46801
3692.83472	0.45730
3690.90635	0.44310
3688.97797	0.43161
3687.04960	0.42770
3685.12123	0.42536
3683.19285	0.41898
3681.26448	0.40760
3679.33611	0.39272
3677.40773	0.37518
3675.47936	0.35636
3673.55099	0.34373
3671.62261	0.33438
3669.69424	0.32153
3667.76587	0.31053
3665.83749	0.30252
3663.90912	0.29205
3661.98075	0.27875
3660.05237	0.26468
3658.12400	0.25023
3656.19563	0.23492
3654.26725	0.22096
3652.33888	0.20774
3650.41051	0.19142
3648.48213	0.17541
3646.55376	0.16621
3644.62539	0.16009
3642.69701	0.15265
3640.76864	0.14374
3638.84027	0.13453
3636.91189	0.12541
3634.98352	0.11650
3633.05515	0.10811
3631.12678	0.10007
3629.19840	0.09118
3627.27003	0.08338
3625.34166	0.07848
3623.41328	0.07380
3621.48491	0.06817
3619.55654	0.06193
3617.62816	0.05637
3615.69979	0.05206
3613.77142	0.04810
3611.84304	0.04433
3609.91467	0.04070
3607.98630	0.03701
3606.05792	0.03382
3604.12955	0.03135
3602.20118	0.02888
3600.27280	0.02618
3598.34443	0.02348
3596.41606	0.02099
3594.48768	0.01888
3592.55931	0.01714
3590.63094	0.01566
3588.70256	0.01407
3586.77419	0.01248
3584.84582	0.01132
3582.91744	0.01041
3580.98907	0.00943
3579.06070	0.00844
3577.13233	0.00756
3575.20395	0.00678
3573.27558	0.00622
3571.34721	0.00583
3569.41883	0.00527
3567.49046	0.00436
3565.56209	0.00336
3563.63371	0.00280
3561.70534	0.00272
3559.77697	0.00269
3557.84859	0.00244
3555.92022	0.00209
3553.99185	0.00171
3552.06347	0.00136
3550.13510	0.00114
3548.20673	0.00091
3546.27835	0.00073
3544.34998	0.00063
3542.42161	0.00051
3540.49323	0.00044
3538.56486	0.00054
3536.63649	0.00043
3534.70811	0.00032
3532.77974	0.00047
3530.85137	0.00074
3528.92299	0.00072
3526.99462	0.00057
3525.06625	0.00075
3523.13787	0.00084
3521.20950	0.00084
3519.28113	0.00079
3517.35276	0.00073
3515.42438	0.00080
3513.49601	0.00086
3511.56764	0.00080
3509.63926	0.00069
3507.71089	0.00055
3505.78252	0.00036
3503.85414	0.00034
3501.92577	0.00031
3499.99740	0.00046
3498.06902	0.00080
3496.14065	0.00114
3494.21228	0.00127
3492.28390	0.00106
3490.35553	0.00076
3488.42716	0.00038
3486.49878	0.00034
3484.57041	0.00028
3482.64204	0.00019
3480.71366	0.00040
3478.78529	0.00047
3476.85692	0.00036
3474.92854	0.00047
3473.00017	0.00042
3471.07180	0.00039
3469.14342	0.00040
3467.21505	0.00023
3465.28668	0.00035
3463.35831	0.00040
3461.42993	0.00040
3459.50156	0.00037
3457.57319	0.00048
3455.64481	0.00058
3453.71644	0.00054
3451.78807	0.00032
3449.85969	0.00025
3447.93132	0.00027
3446.00295	0.00029
3444.07457	0.00021
3442.14620	0.00017
3440.21783	0.00029
3438.28945	0.00044
3436.36108	0.00045
3434.43271	0.00043
3432.50433	0.00050
3430.57596	0.00043
3428.64759	0.00034
3426.71921	0.00042
3424.79084	0.00028
3422.86247	0.00014
3420.93409	0.00032
3419.00572	0.00030
3417.07735	0.00049
3415.14897	0.00050
3413.22060	0.00041
3411.29223	0.00032
3409.36385	0.00026
3407.43548	0.00038
3405.50711	0.00049
3403.57874	0.00049
3401.65036	0.00058
3399.72199	0.00078
3397.79362	0.00079
3395.86524	0.00053
3393.93687	0.00032
3392.00850	0.00027
3390.08012	0.00041
3388.15175	0.00062
3386.22338	0.00071
3384.29500	0.00072
3382.36663	0.00070
3380.43826	0.00048
3378.50988	0.00032
3376.58151	0.00042
3374.65314	0.00045
3372.72476	0.00033
3370.79639	0.00052
3368.86802	0.00068
3366.93964	0.00059
3365.01127	0.00044
3363.08290	0.00023
3361.15452	0.00010
3359.22615	0.00012
3357.29778	0.00022
3355.36940	0.00040
3353.44103	0.00056
3351.51266	0.00055
3349.58428	0.00033
3347.65591	0.00020
3345.72754	0.00022
3343.79917	0.00041
3341.87079	0.00061
3339.94242	0.00073
3338.01405	0.00074
3336.08567	0.00062
3334.15730	0.00060
3332.22893	0.00062
3330.30055	0.00054
3328.37218	0.00057
3326.44381	0.00066
3324.51543	0.00070
3322.58706	0.00059
3320.65869	0.00037
3318.73031	0.00021
3316.80194	0.00028
3314.87357	0.00037
3312.94519	0.00027
3311.01682	0.00031
3309.08845	0.00050
3307.16007	0.00049
3305.23170	0.00053
3303.30333	0.00069
3301.37495	0.00053
3299.44658	0.00029
3297.51821	0.00023
3295.58983	0.00035
3293.66146	0.00044
3291.73309	0.00036
3289.80472	0.00038
3287.87634	0.00034
3285.94797	0.00031
3284.01960	0.00051
3282.09122	0.00064
3280.16285	0.00073
3278.23448	0.00087
3276.30610	0.00080
3274.37773	0.00049
3272.44936	0.00041
3270.52098	0.00051
3268.59261	0.00058
3266.66424	0.00050
3264.73586	0.00050
3262.80749	0.00049
3260.87912	0.00036
3258.95074	0.00029
3257.02237	0.00039
3255.09400	0.00043
3253.16562	0.00031
3251.23725	0.00029
3249.30888	0.00042
3247.38050	0.00046
3245.45213	0.00035
3243.52376	0.00025
3241.59538	0.00032
3239.66701	0.00038
3237.73864	0.00049
3235.81026	0.00050
3233.88189	0.00047
3231.95352	0.00056
3230.02515	0.00050
3228.09677	0.00048
3226.16840	0.00031
3224.24003	0.00017
3222.31165	0.00026
3220.38328	0.00030
3218.45491	0.00055
3216.52653	0.00072
3214.59816	0.00063
3212.66979	0.00042
3210.74141	0.00040
3208.81304	0.00035
3206.88467	0.00031
3204.95629	0.00037
3203.02792	0.00045
3201.09955	0.00038
3199.17117	0.00033
3197.24280	0.00057
3195.31443	0.00071
3193.38605	0.00056
3191.45768	0.00039
3189.52931	0.00036
3187.60093	0.00034
3185.67256	0.00014
3183.74419	0.00023
3181.81581	0.00039
3179.88744	0.00057
3177.95907	0.00048
3176.03070	0.00028
3174.10232	0.00042
3172.17395	0.00044
3170.24558	0.00050
3168.31720	0.00035
3166.38883	0.00024
3164.46046	0.00039
3162.53208	0.00045
3160.60371	0.00041
3158.67534	0.00035
3156.74696	0.00022
3154.81859	0.00014
3152.89022	0.00029
3150.96184	0.00053
3149.03347	0.00053
3147.10510	0.00046
3145.17672	0.00068
3143.24835	0.00062
3141.31998	0.00039
3139.39160	0.00032
3137.46323	0.00020
3135.53486	0.00012
3133.60648	0.00021
3131.67811	0.00044
3129.74974	0.00045
3127.82136	0.00022
3125.89299	0.00012
3123.96462	0.00027
3122.03624	0.00019
3120.10787	0.00020
3118.17950	0.00032
3116.25113	0.00041
3114.32275	0.00039
3112.39438	0.00036
3110.46601	0.00041
3108.53763	0.00026
3106.60926	0.00015
3104.68089	0.00016
3102.75251	0.00022
3100.82414	0.00039
3098.89577	0.00044
3096.96739	0.00042
3095.03902	0.00040
3093.11065	0.00042
3091.18227	0.00061
3089.25390	0.00068
3087.32553	0.00049
3085.39715	0.00019
3083.46878	0.00029
3081.54041	0.00035
3079.61203	0.00021
3077.68366	0.00029
3075.75529	0.00043
3073.82691	0.00053
3071.89854	0.00056
3069.97017	0.00047
3068.04179	0.00042
3066.11342	0.00044
3064.18505	0.00045
3062.25668	0.00056
3060.32830	0.00078
3058.39993	0.00089
3056.47156	0.00083
3054.54318	0.00074
3052.61481	0.00086
3050.68644	0.00108
3048.75806	0.00120
3046.82969	0.00123
3044.90132	0.00132
3042.97294	0.00153
3041.04457	0.00168
3039.11620	0.00179
3037.18782	0.00198
3035.25945	0.00215
3033.33108	0.00223
3031.40270	0.00232
3029.47433	0.00244
3027.54596	0.00251
3025.61758	0.00258
3023.68921	0.00270
3021.76084	0.00279
3019.83246	0.00279
3017.90409	0.00273
3015.97572	0.00261
3014.04734	0.00258
3012.11897	0.00271
3010.19060	0.00277
3008.26222	0.00264
3006.33385	0.00252
3004.40548	0.00251
3002.47711	0.00250
3000.54873	0.00236
2998.62036	0.00219
2996.69199	0.00216
2994.76361	0.00217
2992.83524	0.00197
2990.90687	0.00157
2988.97849	0.00119
2987.05012	0.00094
2985.12175	0.00070
2983.19337	0.00043
2981.26500	0.00031
2979.33663	0.00033
2977.40825	0.00024
2975.47988	0.00029
2973.55151	0.00037
2971.62313	0.00047
2969.69476	0.00050
2967.76639	0.00038
2965.83801	0.00027
2963.90964	0.00038
2961.98127	0.00050
2960.05289	0.00055
2958.12452	0.00041
2956.19615	0.00028
2954.26777	0.00039
2952.33940	0.00033
2950.41103	0.00056
2948.48266	0.00057
2946.55428	0.00038
2944.62591	0.00024
2942.69754	0.00025
2940.76916	0.00026
2938.84079	0.00027
2936.91242	0.00036
2934.98404	0.00048
2933.05567	0.00056
2931.12730	0.00061
2929.19892	0.00048
2927.27055	0.00023
2925.34218	0.00013
2923.41380	0.00026
2921.48543	0.00044
2919.55706	0.00049
2917.62868	0.00048
2915.70031	0.00058
2913.77194	0.00055
2911.84356	0.00047
2909.91519	0.00033
2907.98682	0.00019
2906.05844	0.00015
2904.13007	0.00033
2902.20170	0.00042
2900.27332	0.00041
2898.34495	0.00052
2896.41658	0.00062
2894.48820	0.00050
2892.55983	0.00037
2890.63146	0.00031
2888.70309	0.00026
2886.77471	0.00030
2884.84634	0.00029
2882.91797	0.00023
2880.98959	0.00038
2879.06122	0.00058
2877.13285	0.00063
2875.20447	0.00054
2873.27610	0.00044
2871.34773	0.00049
2869.41935	0.00067
2867.49098	0.00079
2865.56261	0.00108
2863.63423	0.00144
2861.70586	0.00162
2859.77749	0.00185
2857.84911	0.00212
2855.92074	0.00221
2853.99237	0.00231
2852.06399	0.00262
2850.13562	0.00305
2848.20725	0.00358
2846.27887	0.00426
2844.35050	0.00500
2842.42213	0.00580
2840.49375	0.00661
2838.56538	0.00724
2836.63701	0.00767
2834.70863	0.00798
2832.78026	0.00835
2830.85189	0.00889
2828.92352	0.00944
2826.99514	0.00984
2825.06677	0.01027
2823.13840	0.01077
2821.21002	0.01118
2819.28165	0.01153
2817.35328	0.01198
2815.42490	0.01254
2813.49653	0.01314
2811.56816	0.01383
2809.63978	0.01458
2807.71141	0.01535
2805.78304	0.01612
2803.85466	0.01677
2801.92629	0.01734
2799.99792	0.01800
2798.06954	0.01879
2796.14117	0.01960
2794.21280	0.02041
2792.28442	0.02117
2790.35605	0.02176
2788.42768	0.02223
2786.49930	0.02279
2784.57093	0.02343
2782.64256	0.02394
2780.71418	0.02429
2778.78581	0.02463
2776.85744	0.02507
2774.92907	0.02564
2773.00069	0.02627
2771.07232	0.02688
2769.14395	0.02740
2767.21557	0.02789
2765.28720	0.02846
2763.35883	0.02910
2761.43045	0.02975
2759.50208	0.03038
2757.57371	0.03106
2755.64533	0.03178
2753.71696	0.03249
2751.78859	0.03324
2749.86021	0.03396
2747.93184	0.03452
2746.00347	0.03499
2744.07509	0.03555
2742.14672	0.03614
2740.21835	0.03658
2738.28997	0.03693
2736.36160	0.03741
2734.43323	0.03806
2732.50485	0.03869
2730.57648	0.03921
2728.64811	0.03969
2726.71973	0.04020
2724.79136	0.04072
2722.86299	0.04128
2720.93461	0.04191
2719.00624	0.04256
2717.07787	0.04316
2715.14950	0.04378
2713.22112	0.04454
2711.29275	0.04533
2709.36438	0.04595
2707.43600	0.04646
2705.50763	0.04716
2703.57926	0.04817
2701.65088	0.04912
2699.72251	0.04984
2697.79414	0.05054
2695.86576	0.05132
2693.93739	0.05202
2692.00902	0.05264
2690.08064	0.05335
2688.15227	0.05414
2686.22390	0.05492
2684.29552	0.05576
2682.36715	0.05670
2680.43878	0.05756
2678.51040	0.05835
2676.58203	0.05922
2674.65366	0.06012
2672.72528	0.06099
2670.79691	0.06193
2668.86854	0.06292
2666.94016	0.06385
2665.01179	0.06477
2663.08342	0.06569
2661.15505	0.06651
2659.22667	0.06726
2657.29830	0.06802
2655.36993	0.06873
2653.44155	0.06935
2651.51318	0.07001
2649.58481	0.07070
2647.65643	0.07136
2645.72806	0.07201
2643.79969	0.07269
2641.87131	0.07342
2639.94294	0.07416
2638.01457	0.07484
2636.08619	0.07547
2634.15782	0.07617
2632.22945	0.07703
2630.30107	0.07796
2628.37270	0.07883
2626.44433	0.07967
2624.51595	0.08047
2622.58758	0.08125
2620.65921	0.08212
2618.73083	0.08309
2616.80246	0.08415
2614.87409	0.08530
2612.94571	0.08642
2611.01734	0.08744
2609.08897	0.08838
2607.16059	0.08932
2605.23222	0.09033
2603.30385	0.09137
2601.37548	0.09245
2599.44710	0.09352
2597.51873	0.09444
2595.59036	0.09517
2593.66198	0.09588
2591.73361	0.09660
2589.80524	0.09731
2587.87686	0.09808
2585.94849	0.09891
2584.02012	0.09971
2582.09174	0.10058
2580.16337	0.10158
2578.23500	0.10270
2576.30662	0.10384
2574.37825	0.10494
2572.44988	0.10607
2570.52150	0.10731
2568.59313	0.10870
2566.66476	0.11030
2564.73638	0.11206
2562.80801	0.11376
2560.87964	0.11544
2558.95126	0.11718
2557.02289	0.11892
2555.09452	0.12066
2553.16614	0.12239
2551.23777	0.12397
2549.30940	0.12533
2547.38103	0.12655
2545.45265	0.12766
2543.52428	0.12860
2541.59591	0.12949
2539.66753	0.13043
2537.73916	0.13135
2535.81079	0.13216
2533.88241	0.13292
2531.95404	0.13373
2530.02567	0.13458
2528.09729	0.13544
2526.16892	0.13641
2524.24055	0.13766
2522.31217	0.13902
2520.38380	0.14025
2518.45543	0.14141
2516.52705	0.14261
2514.59868	0.14386
2512.67031	0.14508
2510.74193	0.14627
2508.81356	0.14755
2506.88519	0.14890
2504.95681	0.15017
2503.02844	0.15138
2501.10007	0.15264
2499.17169	0.15397
2497.24332	0.15536
2495.31495	0.15669
2493.38657	0.15798
2491.45820	0.15940
2489.52983	0.16099
2487.60146	0.16262
2485.67308	0.16418
2483.74471	0.16562
2481.81634	0.16697
2479.88796	0.16831
2477.95959	0.16973
2476.03122	0.17123
2474.10284	0.17273
2472.17447	0.17423
2470.24610	0.17584
2468.31772	0.17756
2466.38935	0.17922
2464.46098	0.18077
2462.53260	0.18224
2460.60423	0.18382
2458.67586	0.18552
2456.74748	0.18716
2454.81911	0.18868
2452.89074	0.19018
2450.96236	0.19173
2449.03399	0.19332
2447.10562	0.19486
2445.17724	0.19634
2443.24887	0.19786
2441.32050	0.19945
2439.39212	0.20108
2437.46375	0.20273
2435.53538	0.20443
2433.60700	0.20618
2431.67863	0.20796
2429.75026	0.20981
2427.82189	0.21163
2425.89351	0.21324
2423.96514	0.21471
2422.03677	0.21619
2420.10839	0.21767
2418.18002	0.21907
2416.25165	0.22044
2414.32327	0.22186
2412.39490	0.22336
2410.46653	0.22494
2408.53815	0.22660
2406.60978	0.22832
2404.68141	0.23005
2402.75303	0.23184
2400.82466	0.23367
2398.89629	0.23551
2396.96791	0.23738
2395.03954	0.23926
2393.11117	0.24103
2391.18279	0.24264
2389.25442	0.24415
2387.32605	0.24563
2385.39767	0.24698
2383.46930	0.24804
2381.54093	0.24882
2379.61255	0.24948
2377.68418	0.25015
2375.75581	0.25088
2373.82744	0.25163
2371.89906	0.25239
2369.97069	0.25313
2368.04232	0.25382
2366.11394	0.25450
2364.18557	0.25545
2362.25720	0.25695
2360.32882	0.25871
2358.40045	0.26023
2356.47208	0.26152
2354.54370	0.26251
2352.61533	0.26334
2350.68696	0.26435
2348.75858	0.26524
2346.83021	0.26561
2344.90184	0.26561
2342.97346	0.26587
2341.04509	0.26654
2339.11672	0.26726
2337.18834	0.26812
2335.25997	0.26912
2333.33160	0.26984
2331.40322	0.27031
2329.47485	0.27095
2327.54648	0.27169
2325.61810	0.27245
2323.68973	0.27341
2321.76136	0.27467
2319.83298	0.27624
2317.90461	0.27816
2315.97624	0.28026
2314.04787	0.28229
2312.11949	0.28425
2310.19112	0.28634
2308.26275	0.28861
2306.33437	0.29084
2304.40600	0.29291
2302.47763	0.29481
2300.54925	0.29655
2298.62088	0.29810
2296.69251	0.29948
2294.76413	0.30077
2292.83576	0.30204
2290.90739	0.30322
2288.97901	0.30429
2287.05064	0.30533
2285.12227	0.30629
2283.19389	0.30709
2281.26552	0.30773
2279.33715	0.30821
2277.40877	0.30852
2275.48040	0.30878
2273.55203	0.30908
2271.62365	0.30941
2269.69528	0.30976
2267.76691	0.31021
2265.83853	0.31064
2263.91016	0.31095
2261.98179	0.31134
2260.05342	0.31198
2258.12504	0.31279
2256.19667	0.31365
2254.26830	0.31450
2252.33992	0.31546
2250.41155	0.31655
2248.48318	0.31771
2246.55480	0.31883
2244.62643	0.31986
2242.69806	0.32083
2240.76968	0.32171
2238.84131	0.32249
2236.91294	0.32315
2234.98456	0.32369
2233.05619	0.32417
2231.12782	0.32461
2229.19944	0.32502
2227.27107	0.32534
2225.34270	0.32560
2223.41432	0.32590
2221.48595	0.32623
2219.55758	0.32643
2217.62920	0.32649
2215.70083	0.32645
2213.77246	0.32637
2211.84408	0.32627
2209.91571	0.32616
2207.98734	0.32599
2206.05896	0.32572
2204.13059	0.32541
2202.20222	0.32509
2200.27385	0.32481
2198.34547	0.32456
2196.41710	0.32431
2194.48873	0.32403
2192.56035	0.32362
2190.63198	0.32318
2188.70361	0.32292
2186.77523	0.32282
2184.84686	0.32270
2182.91849	0.32252
2180.99011	0.32241
2179.06174	0.32231
2177.13337	0.32205
2175.20499	0.32169
2173.27662	0.32138
2171.34825	0.32117
2169.41987	0.32092
2167.49150	0.32060
2165.56313	0.32040
2163.63475	0.32032
2161.70638	0.32026
2159.77801	0.32025
2157.84963	0.32032
2155.92126	0.32047
2153.99289	0.32074
2152.06451	0.32108
2150.13614	0.32148
2148.20777	0.32193
2146.27940	0.32233
2144.35102	0.32277
2142.42265	0.32329
2140.49428	0.32376
2138.56590	0.32419
2136.63753	0.32468
2134.70916	0.32516
2132.78078	0.32568
2130.85241	0.32630
2128.92404	0.32692
2126.99566	0.32757
2125.06729	0.32839
2123.13892	0.32941
2121.21054	0.33047
2119.28217	0.33159
2117.35380	0.33277
2115.42542	0.33397
2113.49705	0.33521
2111.56868	0.33643
2109.64030	0.33746
2107.71193	0.33838
2105.78356	0.33930
2103.85518	0.34016
2101.92681	0.34090
2099.99844	0.34156
2098.07006	0.34217
2096.14169	0.34272
2094.21332	0.34320
2092.28494	0.34352
2090.35657	0.34371
2088.42820	0.34396
2086.49983	0.34431
2084.57145	0.34463
2082.64308	0.34483
2080.71471	0.34489
2078.78633	0.34492
2076.85796	0.34503
2074.92959	0.34520
2073.00121	0.34541
2071.07284	0.34579
2069.14447	0.34633
2067.21609	0.34685
2065.28772	0.34745
2063.35935	0.34843
2061.43097	0.34978
2059.50260	0.35129
2057.57423	0.35283
2055.64585	0.35436
2053.71748	0.35596
2051.78911	0.35762
2049.86073	0.35926
2047.93236	0.36081
2046.00399	0.36219
2044.07561	0.36339
2042.14724	0.36459
2040.21887	0.36594
2038.29049	0.36719
2036.36212	0.36811
2034.43375	0.36887
2032.50538	0.36959
2030.57700	0.37024
2028.64863	0.37079
2026.72026	0.37131
2024.79188	0.37190
2022.86351	0.37249
2020.93514	0.37289
2019.00676	0.37308
2017.07839	0.37361
2015.15002	0.37495
2013.22164	0.37661
2011.29327	0.37805
2009.36490	0.37935
2007.43652	0.38070
2005.50815	0.38211
2003.57978	0.38340
2001.65140	0.38446
1999.72303	0.38542
1997.79466	0.38641
1995.86628	0.38710
1993.93791	0.38698
1992.00954	0.38683
1990.08116	0.38772
1988.15279	0.38910
1986.22442	0.39027
1984.29604	0.39118
1982.36767	0.39180
1980.43930	0.39224
1978.51092	0.39268
1976.58255	0.39319
1974.65418	0.39373
1972.72581	0.39429
1970.79743	0.39459
1968.86906	0.39434
1966.94069	0.39441
1965.01231	0.39575
1963.08394	0.39747
1961.15557	0.39868
1959.22719	0.39962
1957.29882	0.40049
1955.37045	0.40148
1953.44207	0.40283
1951.51370	0.40425
1949.58533	0.40533
1947.65695	0.40597
1945.72858	0.40588
1943.80021	0.40525
1941.87183	0.40601
1939.94346	0.40874
1938.01509	0.41105
1936.08671	0.41193
1934.15834	0.41222
1932.22997	0.41257
1930.30159	0.41305
1928.37322	0.41335
1926.44485	0.41287
1924.51647	0.41142
1922.58810	0.41032
1920.65973	0.41006
1918.73135	0.40975
1916.80298	0.41059
1914.87461	0.41269
1912.94624	0.41357
1911.01786	0.41282
1909.08949	0.41215
1907.16112	0.41255
1905.23274	0.41317
1903.30437	0.41313
1901.37600	0.41265
1899.44762	0.41190
1897.51925	0.41054
1895.59088	0.40898
1893.66250	0.40795
1891.73413	0.40642
1889.80576	0.40456
1887.87738	0.40466
1885.94901	0.40598
1884.02064	0.40673
1882.09226	0.40713
1880.16389	0.40741
1878.23552	0.40755
1876.30714	0.40768
1874.37877	0.40748
1872.45040	0.40561
1870.52202	0.40126
1868.59365	0.39785
1866.66528	0.39954
1864.73690	0.40317
1862.80853	0.40462
1860.88016	0.40410
1858.95179	0.40313
1857.02341	0.40228
1855.09504	0.40135
1853.16667	0.40014
1851.23829	0.39836
1849.30992	0.39559
1847.38155	0.39152
1845.45317	0.38676
1843.52480	0.38498
1841.59643	0.38728
1839.66805	0.38879
1837.73968	0.38780
1835.81131	0.38634
1833.88293	0.38431
1831.95456	0.37960
1830.02619	0.37407
1828.09781	0.37171
1826.16944	0.37091
1824.24107	0.37008
1822.31269	0.36997
1820.38432	0.36884
1818.45595	0.36587
1816.52757	0.36232
1814.59920	0.35822
1812.67083	0.35265
1810.74245	0.34674
1808.81408	0.34249
1806.88571	0.33887
1804.95733	0.33363
1803.02896	0.32599
1801.10059	0.31746
1799.17222	0.31060
1797.24384	0.30478
1795.31547	0.29719
1793.38710	0.28701
1791.45872	0.27792
1789.53035	0.27282
1787.60198	0.26759
1785.67360	0.25960
1783.74523	0.25038
1781.81686	0.24118
1779.88848	0.23232
1777.96011	0.22411
1776.03174	0.21532
1774.10336	0.20434
1772.17499	0.19238
1770.24662	0.18319
1768.31824	0.17598
1766.38987	0.16786
1764.46150	0.15823
1762.53312	0.14621
1760.60475	0.13308
1758.67638	0.12074
1756.74800	0.10758
1754.81963	0.09425
1752.89126	0.08116
1750.96288	0.06672
1749.03451	0.05266
1747.10614	0.04151
1745.17777	0.03247
1743.24939	0.02466
1741.32102	0.01793
1739.39265	0.01223
1737.46427	0.00825
1735.53590	0.00553
1733.60753	0.00316
1731.67915	0.00169
1729.75078	0.00098
1727.82241	0.00050
1725.89403	0.00027
1723.96566	0.00030
1722.03729	0.00043
1720.10891	0.00054
1718.18054	0.00054
1716.25217	0.00043
1714.32379	0.00021
1712.39542	0.00030
1710.46705	0.00034
1708.53867	0.00043
1706.61030	0.00059
1704.68193	0.00059
1702.75355	0.00047
1700.82518	0.00035
1698.89681	0.00052
1696.96843	0.00060
1695.04006	0.00057
1693.11169	0.00031
1691.18331	0.00021
1689.25494	0.00028
1687.32657	0.00019
1685.39820	0.00037
1683.46982	0.00032
1681.54145	0.00017
1679.61308	0.00012
1677.68470	0.00017
1675.75633	0.00020
1673.82796	0.00024
1671.89958	0.00017
1669.97121	0.00022
1668.04284	0.00022
1666.11446	0.00022
1664.18609	0.00024
1662.25772	0.00022
1660.32934	0.00027
1658.40097	0.00037
1656.47260	0.00048
1654.54422	0.00047
1652.61585	0.00037
1650.68748	0.00022
1648.75910	0.00026
1646.83073	0.00033
1644.90236	0.00028
1642.97398	0.00020
1641.04561	0.00021
1639.11724	0.00020
1637.18886	0.00017
1635.26049	0.00023
1633.33212	0.00034
1631.40375	0.00024
1629.47537	0.00016
1627.54700	0.00034
1625.61863	0.00043
1623.69025	0.00034
1621.76188	0.00027
1619.83351	0.00031
1617.90513	0.00029
1615.97676	0.00029
1614.04839	0.00028
1612.12001	0.00018
1610.19164	0.00019
1608.26327	0.00028
1606.33489	0.00024
1604.40652	0.00014
1602.47815	0.00012
1600.54977	0.00018
1598.62140	0.00024
1596.69303	0.00026
1594.76465	0.00022
1592.83628	0.00017
1590.90791	0.00022
1588.97953	0.00022
1587.05116	0.00015
1585.12279	0.00010
1583.19441	0.00016
1581.26604	0.00027
1579.33767	0.00034
1577.40929	0.00028
1575.48092	0.00015
1573.55255	0.00012
1571.62418	0.00016
1569.69580	0.00033
1567.76743	0.00041
1565.83906	0.00039
1563.91068	0.00036
1561.98231	0.00040
1560.05394	0.00047
1558.12556	0.00037
1556.19719	0.00029
1554.26882	0.00019
1552.34044	0.00017
1550.41207	0.00017
1548.48370	0.00014
1546.55532	0.00018
1544.62695	0.00019
1542.69858	0.00022
1540.77020	0.00030
1538.84183	0.00027
1536.91346	0.00011
1534.98508	0.00026
1533.05671	0.00033
1531.12834	0.00028
1529.19996	0.00032
1527.27159	0.00032
1525.34322	0.00023
1523.41484	0.00031
1521.48647	0.00034
1519.55810	0.00037
1517.62972	0.00037
1515.70135	0.00024
1513.77298	0.00015
1511.84461	0.00013
1509.91623	0.00010
1507.98786	0.00026
1506.05949	0.00035
1504.13111	0.00045
1502.20274	0.00049
1500.27437	0.00043
1498.34599	0.00040
1496.41762	0.00036
1494.48925	0.00038
1492.56087	0.00057
1490.63250	0.00076
1488.70413	0.00090
1486.77575	0.00094
1484.84738	0.00089
1482.91901	0.00087
1480.99063	0.00086
1479.06226	0.00081
1477.13389	0.00065
1475.20551	0.00033
1473.27714	0.00016
1471.34877	0.00016
1469.42039	0.00026
1467.49202	0.00019
1465.56365	0.00015
1463.63527	0.00027
1461.70690	0.00041
1459.77853	0.00041
1457.85016	0.00045
1455.92178	0.00046
1453.99341	0.00040
1452.06504	0.00027
1450.13666	0.00019
1448.20829	0.00022
1446.27992	0.00030
1444.35154	0.00033
1442.42317	0.00033
1440.49480	0.00033
1438.56642	0.00030
1436.63805	0.00032
1434.70968	0.00027
1432.78130	0.00012
1430.85293	0.00010
1428.92456	0.00026
1426.99618	0.00034
1425.06781	0.00028
1423.13944	0.00023
1421.21106	0.00030
1419.28269	0.00049
1417.35432	0.00051
1415.42594	0.00042
1413.49757	0.00037
1411.56920	0.00034
1409.64082	0.00030
1407.71245	0.00029
1405.78408	0.00033
1403.85570	0.00034
1401.92733	0.00029
1399.99896	0.00020
1398.07059	0.00023
1396.14221	0.00026
1394.21384	0.00035
1392.28547	0.00033
1390.35709	0.00030
1388.42872	0.00029
1386.50035	0.00022
1384.57197	0.00016
1382.64360	0.00040
1380.71523	0.00057
1378.78685	0.00058
1376.85848	0.00055
1374.93011	0.00056
1373.00173	0.00049
1371.07336	0.00035
1369.14499	0.00018
1367.21661	0.00014
1365.28824	0.00021
1363.35987	0.00038
1361.43149	0.00044
1359.50312	0.00034
1357.57475	0.00030
1355.64637	0.00039
1353.71800	0.00042
1351.78963	0.00048
1349.86125	0.00047
1347.93288	0.00043
1346.00451	0.00046
1344.07614	0.00059
1342.14776	0.00071
1340.21939	0.00057
1338.29102	0.00032
1336.36264	0.00029
1334.43427	0.00037
1332.50590	0.00040
1330.57752	0.00034
1328.64915	0.00026
1326.72078	0.00023
1324.79240	0.00015
1322.86403	0.00019
1320.93566	0.00028
1319.00728	0.00036
1317.07891	0.00039
1315.15054	0.00030
1313.22216	0.00022
1311.29379	0.00025
1309.36542	0.00022
1307.43704	0.00009
1305.50867	0.00011
1303.58030	0.00010
1301.65192	0.00021
1299.72355	0.00033
1297.79518	0.00041
1295.86680	0.00032
1293.93843	0.00023
1292.01006	0.00011
1290.08168	0.00017
1288.15331	0.00024
1286.22494	0.00024
1284.29657	0.00034
1282.36819	0.00037
1280.43982	0.00040
1278.51145	0.00047
1276.58307	0.00042
1274.65470	0.00033
1272.72633	0.00031
1270.79795	0.00020
1268.86958	0.00017
1266.94121	0.00022
1265.01283	0.00035
1263.08446	0.00051
1261.15609	0.00057
1259.22771	0.00053
1257.29934	0.00052
1255.37097	0.00052
1253.44259	0.00054
1251.51422	0.00052
1249.58585	0.00044
1247.65747	0.00050
1245.72910	0.00050
1243.80073	0.00039
1241.87235	0.00024
1239.94398	0.00025
1238.01561	0.00032
1236.08723	0.00037
1234.15886	0.00052
1232.23049	0.00058
1230.30212	0.00060
1228.37374	0.00058
1226.44537	0.00047
1224.51700	0.00042
1222.58862	0.00062
1220.66025	0.00067
1218.73188	0.00051
1216.80350	0.00066
1214.87513	0.00069
1212.94676	0.00085
1211.01838	0.00102
1209.09001	0.00101
1207.16164	0.00081
1205.23326	0.00066
1203.30489	0.00027
1201.37652	0.00047
1199.44814	0.00065
1197.51977	0.00078
1195.59140	0.00100
1193.66302	0.00108
1191.73465	0.00111
1189.80628	0.00095
1187.87790	0.00070
1185.94953	0.00062
1184.02116	0.00046
1182.09278	0.00049
1180.16441	0.00068
1178.23604	0.00056
1176.30766	0.00051
1174.37929	0.00055
1172.45092	0.00062
1170.52255	0.00064
1168.59417	0.00053
1166.66580	0.00042
1164.73743	0.00046
1162.80905	0.00065
1160.88068	0.00103
1158.95231	0.00102
1157.02393	0.00065
1155.09556	0.00043
1153.16719	0.00075
1151.23881	0.00073
1149.31044	0.00060
1147.38207	0.00085
1145.45369	0.00081
1143.52532	0.00063
1141.59695	0.00080
1139.66857	0.00091
1137.74020	0.00080
1135.81183	0.00065
1133.88345	0.00073
1131.95508	0.00081
1130.02671	0.00076
1128.09833	0.00081
1126.16996	0.00083
1124.24159	0.00073
1122.31321	0.00066
1120.38484	0.00087
1118.45647	0.00122
1116.52809	0.00140
1114.59972	0.00133
1112.67135	0.00107
1110.74298	0.00074
1108.81460	0.00073
1106.88623	0.00102
1104.95786	0.00121
1103.02948	0.00106
1101.10111	0.00074
1099.17274	0.00050
1097.24436	0.00044
1095.31599	0.00046
1093.38762	0.00055
1091.45924	0.00065
1089.53087	0.00063
1087.60250	0.00073
1085.67412	0.00097
1083.74575	0.00105
1081.81738	0.00093
1079.88900	0.00065
1077.96063	0.00064
1076.03226	0.00112
1074.10388	0.00127
1072.17551	0.00110
1070.24714	0.00086
1068.31876	0.00049
1066.39039	0.00040
1064.46202	0.00066
1062.53364	0.00094
1060.60527	0.00095
1058.67690	0.00091
1056.74853	0.00088
1054.82015	0.00092
1052.89178	0.00087
1050.96341	0.00068
1049.03503	0.00062
1047.10666	0.00070
1045.17829	0.00085
1043.24991	0.00106
1041.32154	0.00119
1039.39317	0.00121
1037.46479	0.00108
1035.53642	0.00085
1033.60805	0.00065
1031.67967	0.00047
1029.75130	0.00027
1027.82293	0.00024
1025.89455	0.00040
1023.96618	0.00061
1022.03781	0.00064
1020.10943	0.00049
1018.18106	0.00044
1016.25269	0.00056
1014.32431	0.00071
1012.39594	0.00079
1010.46757	0.00072
1008.53919	0.00063
1006.61082	0.00057
1004.68245	0.00072
1002.75407	0.00092
1000.82570	0.00097
998.89733	0.00079
996.96896	0.00055
995.04058	0.00040
993.11221	0.00051
991.18384	0.00080
989.25546	0.00126
987.32709	0.00194
985.39872	0.00265
983.47034	0.00312
981.54197	0.00330
979.61360	0.00334
977.68522	0.00341
975.75685	0.00377
973.82848	0.00476
971.90010	0.00655
969.97173	0.00914
968.04336	0.01222
966.11498	0.01500
964.18661	0.01665
962.25824	0.01636
960.32986	0.01363
958.40149	0.00933
956.47312	0.00558
954.54474	0.00381
952.61637	0.00399
950.68800	0.00524
948.75962	0.00645
946.83125	0.00729
944.90288	0.00818
942.97451	0.00964
941.04613	0.01189
939.11776	0.01501
937.18939	0.01882
935.26101	0.02263
933.33264	0.02584
931.40427	0.02837
929.47589	0.03020
927.54752	0.03110
925.61915	0.03100
923.69077	0.03030
921.76240	0.03003
919.83403	0.03099
917.90565	0.03314
915.97728	0.03580
914.04891	0.03792
912.12053	0.03849
910.19216	0.03724
908.26379	0.03456
906.33541	0.03096
904.40704	0.02722
902.47867	0.02407
900.55029	0.02187
898.62192	0.02084
896.69355	0.02094
894.76517	0.02196
892.83680	0.02394
890.90843	0.02650
888.98005	0.02839
887.05168	0.02871
885.12331	0.02816
883.19494	0.02895
881.26656	0.03220
879.33819	0.03643
877.40982	0.03974
875.48144	0.04176
873.55307	0.04270
871.62470	0.04270
869.69632	0.04215
867.76795	0.04139
865.83958	0.04046
863.91120	0.03918
861.98283	0.03760
860.05446	0.03601
858.12608	0.03440
856.19771	0.03279
854.26934	0.03140
852.34096	0.03006
850.41259	0.02881
848.48422	0.02788
846.55584	0.02714
844.62747	0.02638
842.69910	0.02569
840.77072	0.02526
838.84235	0.02524
836.91398	0.02553
834.98560	0.02577
833.05723	0.02587
831.12886	0.02603
829.20049	0.02622
827.27211	0.02624
825.34374	0.02608
823.41537	0.02578
821.48699	0.02536
819.55862	0.02516
817.63025	0.02516
815.70187	0.02468
813.77350	0.02368
811.84513	0.02286
809.91675	0.02239
807.98838	0.02177
806.06001	0.02066
804.13163	0.01918
802.20326	0.01752
800.27489	0.01600
798.34651	0.01491
796.41814	0.01368
794.48977	0.01170
792.56139	0.00961
790.63302	0.00809
788.70465	0.00696
786.77627	0.00602
784.84790	0.00512
782.91953	0.00416
780.99115	0.00341
779.06278	0.00279
777.13441	0.00219
775.20603	0.00181
773.27766	0.00139
771.34929	0.00093
769.42092	0.00089
767.49254	0.00090
765.56417	0.00096
763.63580	0.00128
761.70742	0.00176
759.77905	0.00164
757.85068	0.00117
755.92230	0.00104
753.99393	0.00110
752.06556	0.00111
750.13718	0.00124
748.20881	0.00154
746.28044	0.00153
744.35206	0.00114
742.42369	0.00061
740.49532	0.00052
738.56694	0.00122
736.63857	0.00190
734.71020	0.00230
732.78182	0.00205
730.85345	0.00171
728.92508	0.00216
726.99670	0.00249
725.06833	0.00204
723.13996	0.00141
721.21158	0.00133
719.28321	0.00167
717.35484	0.00163
715.42647	0.00132
713.49809	0.00099
711.56972	0.00095
709.64135	0.00115
707.71297	0.00156
705.78460	0.00168
703.85623	0.00150
701.92785	0.00113
699.99948	0.00097
698.07111	0.00101
696.14273	0.00087
694.21436	0.00063
692.28599	0.00083
690.35761	0.00138
688.42924	0.00165
686.50087	0.00168
684.57249	0.00185
682.64412	0.00203
680.71575	0.00205
678.78737	0.00201
676.85900	0.00196
674.93063	0.00192
673.00225	0.00171
671.07388	0.00159
669.14551	0.00240
667.21713	0.00206
665.28876	0.00149
663.36039	0.00158
661.43201	0.00184
659.50364	0.00199
657.57527	0.00209
655.64690	0.00227
653.71852	0.00237
651.79015	0.00314
649.86178	0.00422
647.93340	0.00519
646.00503	0.00494
644.07666	0.00353
642.14828	0.00219
640.21991	0.00185
638.29154	0.00287
636.36316	0.00375
634.43479	0.00416
632.50642	0.00465
630.57804	0.00469
628.64967	0.00405
626.72130	0.00258
624.79292	0.00250
622.86455	0.00420
620.93618	0.00525
619.00780	0.00659
617.07943	0.00695
615.15106	0.00560
613.22268	0.00360
611.29431	0.00330
609.36594	0.00194
607.43756	0.00551
605.50919	0.00804
603.58082	0.00771
601.65244	0.00676
599.72407	0.00803
