3997.51769	0.46416
3995.58931	0.46479
3993.66094	0.46596
3991.73257	0.46758
3989.80419	0.46965
3987.87582	0.47211
3985.94745	0.47473
3984.01907	0.47731
3982.09070	0.47972
3980.16233	0.48171
3978.23396	0.48324
3976.30558	0.48448
3974.37721	0.48554
3972.44884	0.48655
3970.52046	0.48774
3968.59209	0.48931
3966.66372	0.49108
3964.73534	0.49249
3962.80697	0.49350
3960.87860	0.49462
3958.95022	0.49593
3957.02185	0.49723
3955.09348	0.49860
3953.16510	0.49954
3951.23673	0.49944
3949.30836	0.49918
3947.37998	0.50011
3945.45161	0.50129
3943.52324	0.50164
3941.59486	0.50291
3939.66649	0.50559
3937.73812	0.50768
3935.80974	0.50820
3933.88137	0.50729
3931.95300	0.50654
3930.02462	0.50776
3928.09625	0.50964
3926.16788	0.51006
3924.23950	0.51024
3922.31113	0.51178
3920.38276	0.51305
3918.45439	0.51323
3916.52601	0.51447
3914.59764	0.51762
3912.66927	0.52069
3910.74089	0.52245
3908.81252	0.52265
3906.88415	0.52031
3904.95577	0.51597
3903.02740	0.51337
3901.09903	0.51467
3899.17065	0.51881
3897.24228	0.52435
3895.31391	0.52802
3893.38553	0.52791
3891.45716	0.52744
3889.52879	0.52970
3887.60041	0.53074
3885.67204	0.52933
3883.74367	0.52887
3881.81529	0.52898
3879.88692	0.53075
3877.95855	0.53523
3876.03017	0.53680
3874.10180	0.53463
3872.17343	0.53262
3870.24505	0.53231
3868.31668	0.53451
3866.38831	0.53650
3864.45994	0.53675
3862.53156	0.53936
3860.60319	0.54405
3858.67482	0.54571
3856.74644	0.54306
3854.81807	0.53773
3852.88970	0.53496
3850.96132	0.54063
3849.03295	0.54788
3847.10458	0.55137
3845.17620	0.55051
3843.24783	0.54696
3841.31946	0.54277
3839.39108	0.53973
3837.46271	0.54041
3835.53434	0.54423
3833.60596	0.54772
3831.67759	0.55067
3829.74922	0.55326
3827.82084	0.55407
3825.89247	0.55344
3823.96410	0.55124
3822.03572	0.54635
3820.10735	0.54442
3818.17898	0.54777
3816.25060	0.55121
3814.32223	0.55584
3812.39386	0.56062
3810.46548	0.56172
3808.53711	0.55871
3806.60874	0.55517
3804.68037	0.55347
3802.75199	0.55081
3800.82362	0.54960
3798.89525	0.55215
3796.96687	0.55472
3795.03850	0.55820
3793.11013	0.56249
3791.18175	0.56463
3789.25338	0.56453
3787.32501	0.56296
3785.39663	0.56086
3783.46826	0.55998
3781.53989	0.55892
3779.61151	0.55719
3777.68314	0.55834
3775.75477	0.56130
3773.82639	0.56173
3771.89802	0.55844
3769.96965	0.55437
3768.04127	0.55327
3766.11290	0.55403
3764.18453	0.55495
3762.25615	0.55442
3760.32778	0.55091
3758.39941	0.54770
3756.47103	0.54737
3754.54266	0.54574
3752.61429	0.53995
3750.68591	0.53409
3748.75754	0.53394
3746.82917	0.53480
3744.90080	0.53398
3742.97242	0.53578
3741.04405	0.53844
3739.11568	0.53688
3737.18730	0.53030
3735.25893	0.52370
3733.33056	0.52486
3731.40218	0.53154
3729.47381	0.53576
3727.54544	0.53468
3725.61706	0.53102
3723.68869	0.52854
3721.76032	0.52799
3719.83194	0.52857
3717.90357	0.52900
3715.97520	0.52742
3714.04682	0.52188
3712.11845	0.51331
3710.19008	0.50851
3708.26170	0.51039
3706.33333	0.51244
3704.40496	0.50987
3702.47658	0.50374
3700.54821	0.49879
3698.61984	0.49585
3696.69146	0.49121
3694.76309	0.48362
3692.83472	0.47305
3690.90635	0.45957
3688.97797	0.44746
3687.04960	0.44089
3685.12123	0.43558
3683.19285	0.42680
3681.26448	0.41364
3679.33611	0.39769
3677.40773	0.37965
3675.47936	0.35978
3673.55099	0.34478
3671.62261	0.33310
3669.69424	0.31787
3667.76587	0.30414
3665.83749	0.29384
3663.90912	0.28167
3661.98075	0.26718
3660.05237	0.25233
3658.12400	0.23739
3656.19563	0.22168
3654.26725	0.20729
3652.33888	0.19409
3650.41051	0.17850
3648.48213	0.16259
3646.55376	0.15202
3644.62539	0.14478
3642.69701	0.13707
3640.76864	0.12821
3638.84027	0.11927
3636.91189	0.11071
3634.98352	0.10221
3633.05515	0.09405
3631.12678	0.08664
3629.19840	0.07867
3627.27003	0.07130
3625.34166	0.06653
3623.41328	0.06224
3621.48491	0.05724
3619.55654	0.05181
3617.62816	0.04703
3615.69979	0.04335
3613.77142	0.03996
3611.84304	0.03669
3609.91467	0.03363
3607.98630	0.03046
3606.05792	0.02740
3604.12955	0.02488
3602.20118	0.02265
3600.27280	0.02054
3598.34443	0.01860
3596.41606	0.01675
3594.48768	0.01513
3592.55931	0.01376
3590.63094	0.01248
3588.70256	0.01100
3586.77419	0.00957
3584.84582	0.00865
3582.91744	0.00809
3580.98907	0.00749
3579.06070	0.00660
3577.13233	0.00571
3575.20395	0.00496
3573.27558	0.00425
3571.34721	0.00367
3569.41883	0.00325
3567.49046	0.00284
3565.56209	0.00238
3563.63371	0.00195
3561.70534	0.00159
3559.77697	0.00149
3557.84859	0.00155
3555.92022	0.00138
3553.99185	0.00101
3552.06347	0.00071
3550.13510	0.00069
3548.20673	0.00073
3546.27835	0.00063
3544.34998	0.00045
3542.42161	0.00025
3540.49323	0.00063
3538.56486	0.00074
3536.63649	0.00058
3534.70811	0.00047
3532.77974	0.00060
3530.85137	0.00048
3528.92299	0.00042
3526.99462	0.00053
3525.06625	0.00063
3523.13787	0.00067
3521.20950	0.00077
3519.28113	0.00061
3517.35276	0.00055
3515.42438	0.00046
3513.49601	0.00032
3511.56764	0.00026
3509.63926	0.00028
3507.71089	0.00051
3505.78252	0.00067
3503.85414	0.00067
3501.92577	0.00057
3499.99740	0.00057
3498.06902	0.00062
3496.14065	0.00065
3494.21228	0.00060
3492.28390	0.00058
3490.35553	0.00064
3488.42716	0.00067
3486.49878	0.00079
3484.57041	0.00078
3482.64204	0.00067
3480.71366	0.00075
3478.78529	0.00077
3476.85692	0.00080
3474.92854	0.00101
3473.00017	0.00101
3471.07180	0.00096
3469.14342	0.00081
3467.21505	0.00056
3465.28668	0.00046
3463.35831	0.00059
3461.42993	0.00075
3459.50156	0.00062
3457.57319	0.00050
3455.64481	0.00057
3453.71644	0.00071
3451.78807	0.00078
3449.85969	0.00074
3447.93132	0.00059
3446.00295	0.00042
3444.07457	0.00042
3442.14620	0.00053
3440.21783	0.00065
3438.28945	0.00075
3436.36108	0.00076
3434.43271	0.00069
3432.50433	0.00065
3430.57596	0.00063
3428.64759	0.00068
3426.71921	0.00075
3424.79084	0.00079
3422.86247	0.00078
3420.93409	0.00080
3419.00572	0.00071
3417.07735	0.00060
3415.14897	0.00059
3413.22060	0.00060
3411.29223	0.00068
3409.36385	0.00065
3407.43548	0.00057
3405.50711	0.00054
3403.57874	0.00066
3401.65036	0.00073
3399.72199	0.00075
3397.79362	0.00058
3395.86524	0.00050
3393.93687	0.00044
3392.00850	0.00042
3390.08012	0.00060
3388.15175	0.00083
3386.22338	0.00085
3384.29500	0.00073
3382.36663	0.00057
3380.43826	0.00035
3378.50988	0.00015
3376.58151	0.00015
3374.65314	0.00026
3372.72476	0.00062
3370.79639	0.00097
3368.86802	0.00107
3366.93964	0.00106
3365.01127	0.00123
3363.08290	0.00135
3361.15452	0.00111
3359.22615	0.00082
3357.29778	0.00083
3355.36940	0.00076
3353.44103	0.00049
3351.51266	0.00055
3349.58428	0.00050
3347.65591	0.00040
3345.72754	0.00052
3343.79917	0.00069
3341.87079	0.00066
3339.94242	0.00056
3338.01405	0.00051
3336.08567	0.00046
3334.15730	0.00039
3332.22893	0.00028
3330.30055	0.00022
3328.37218	0.00048
3326.44381	0.00077
3324.51543	0.00082
3322.58706	0.00083
3320.65869	0.00091
3318.73031	0.00072
3316.80194	0.00053
3314.87357	0.00061
3312.94519	0.00068
3311.01682	0.00044
3309.08845	0.00028
3307.16007	0.00044
3305.23170	0.00053
3303.30333	0.00043
3301.37495	0.00035
3299.44658	0.00039
3297.51821	0.00048
3295.58983	0.00054
3293.66146	0.00053
3291.73309	0.00060
3289.80472	0.00067
3287.87634	0.00049
3285.94797	0.00027
3284.01960	0.00036
3282.09122	0.00044
3280.16285	0.00068
3278.23448	0.00090
3276.30610	0.00110
3274.37773	0.00110
3272.44936	0.00076
3270.52098	0.00042
3268.59261	0.00037
3266.66424	0.00050
3264.73586	0.00053
3262.80749	0.00071
3260.87912	0.00098
3258.95074	0.00097
3257.02237	0.00081
3255.09400	0.00077
3253.16562	0.00074
3251.23725	0.00077
3249.30888	0.00070
3247.38050	0.00055
3245.45213	0.00069
3243.52376	0.00072
3241.59538	0.00059
3239.66701	0.00038
3237.73864	0.00041
3235.81026	0.00076
3233.88189	0.00107
3231.95352	0.00108
3230.02515	0.00089
3228.09677	0.00074
3226.16840	0.00058
3224.24003	0.00044
3222.31165	0.00028
3220.38328	0.00039
3218.45491	0.00046
3216.52653	0.00062
3214.59816	0.00072
3212.66979	0.00071
3210.74141	0.00074
3208.81304	0.00083
3206.88467	0.00086
3204.95629	0.00081
3203.02792	0.00072
3201.09955	0.00058
3199.17117	0.00047
3197.24280	0.00037
3195.31443	0.00043
3193.38605	0.00053
3191.45768	0.00053
3189.52931	0.00057
3187.60093	0.00058
3185.67256	0.00044
3183.74419	0.00030
3181.81581	0.00024
3179.88744	0.00026
3177.95907	0.00040
3176.03070	0.00036
3174.10232	0.00051
3172.17395	0.00088
3170.24558	0.00094
3168.31720	0.00069
3166.38883	0.00049
3164.46046	0.00058
3162.53208	0.00077
3160.60371	0.00082
3158.67534	0.00075
3156.74696	0.00071
3154.81859	0.00065
3152.89022	0.00053
3150.96184	0.00044
3149.03347	0.00050
3147.10510	0.00065
3145.17672	0.00069
3143.24835	0.00058
3141.31998	0.00049
3139.39160	0.00048
3137.46323	0.00056
3135.53486	0.00059
3133.60648	0.00054
3131.67811	0.00045
3129.74974	0.00039
3127.82136	0.00048
3125.89299	0.00052
3123.96462	0.00042
3122.03624	0.00048
3120.10787	0.00052
3118.17950	0.00061
3116.25113	0.00058
3114.32275	0.00039
3112.39438	0.00035
3110.46601	0.00041
3108.53763	0.00037
3106.60926	0.00034
3104.68089	0.00055
3102.75251	0.00074
3100.82414	0.00065
3098.89577	0.00037
3096.96739	0.00018
3095.03902	0.00033
3093.11065	0.00055
3091.18227	0.00071
3089.25390	0.00081
3087.32553	0.00076
3085.39715	0.00064
3083.46878	0.00061
3081.54041	0.00066
3079.61203	0.00077
3077.68366	0.00075
3075.75529	0.00061
3073.82691	0.00046
3071.89854	0.00048
3069.97017	0.00060
3068.04179	0.00076
3066.11342	0.00091
3064.18505	0.00115
3062.25668	0.00138
3060.32830	0.00136
3058.39993	0.00125
3056.47156	0.00142
3054.54318	0.00169
3052.61481	0.00193
3050.68644	0.00226
3048.75806	0.00253
3046.82969	0.00271
3044.90132	0.00291
3042.97294	0.00308
3041.04457	0.00324
3039.11620	0.00344
3037.18782	0.00369
3035.25945	0.00396
3033.33108	0.00423
3031.40270	0.00442
3029.47433	0.00458
3027.54596	0.00481
3025.61758	0.00502
3023.68921	0.00514
3021.76084	0.00527
3019.83246	0.00541
3017.90409	0.00546
3015.97572	0.00549
3014.04734	0.00556
3012.11897	0.00554
3010.19060	0.00550
3008.26222	0.00554
3006.33385	0.00547
3004.40548	0.00518
3002.47711	0.00482
3000.54873	0.00450
2998.62036	0.00427
2996.69199	0.00408
2994.76361	0.00370
2992.83524	0.00310
2990.90687	0.00255
2988.97849	0.00217
2987.05012	0.00182
2985.12175	0.00155
2983.19337	0.00141
2981.26500	0.00131
2979.33663	0.00113
2977.40825	0.00091
2975.47988	0.00095
2973.55151	0.00102
2971.62313	0.00095
2969.69476	0.00085
2967.76639	0.00077
2965.83801	0.00068
2963.90964	0.00062
2961.98127	0.00060
2960.05289	0.00060
2958.12452	0.00068
2956.19615	0.00076
2954.26777	0.00079
2952.33940	0.00074
2950.41103	0.00076
2948.48266	0.00085
2946.55428	0.00087
2944.62591	0.00077
2942.69754	0.00069
2940.76916	0.00073
2938.84079	0.00085
2936.91242	0.00089
2934.98404	0.00058
2933.05567	0.00036
2931.12730	0.00061
2929.19892	0.00077
2927.27055	0.00075
2925.34218	0.00053
2923.41380	0.00032
2921.48543	0.00025
2919.55706	0.00046
2917.62868	0.00059
2915.70031	0.00061
2913.77194	0.00062
2911.84356	0.00063
2909.91519	0.00075
2907.98682	0.00098
2906.05844	0.00122
2904.13007	0.00135
2902.20170	0.00125
2900.27332	0.00110
2898.34495	0.00106
2896.41658	0.00107
2894.48820	0.00094
2892.55983	0.00088
2890.63146	0.00096
2888.70309	0.00096
2886.77471	0.00085
2884.84634	0.00075
2882.91797	0.00084
2880.98959	0.00104
2879.06122	0.00101
2877.13285	0.00087
2875.20447	0.00097
2873.27610	0.00134
2871.34773	0.00162
2869.41935	0.00169
2867.49098	0.00170
2865.56261	0.00189
2863.63423	0.00235
2861.70586	0.00289
2859.77749	0.00337
2857.84911	0.00378
2855.92074	0.00421
2853.99237	0.00484
2852.06399	0.00572
2850.13562	0.00671
2848.20725	0.00776
2846.27887	0.00897
2844.35050	0.01025
2842.42213	0.01144
2840.49375	0.01253
2838.56538	0.01351
2836.63701	0.01430
2834.70863	0.01507
2832.78026	0.01605
2830.85189	0.01712
2828.92352	0.01811
2826.99514	0.01907
2825.06677	0.02005
2823.13840	0.02102
2821.21002	0.02199
2819.28165	0.02299
2817.35328	0.02399
2815.42490	0.02505
2813.49653	0.02628
2811.56816	0.02767
2809.63978	0.02912
2807.71141	0.03059
2805.78304	0.03208
2803.85466	0.03362
2801.92629	0.03514
2799.99792	0.03656
2798.06954	0.03803
2796.14117	0.03960
2794.21280	0.04113
2792.28442	0.04251
2790.35605	0.04384
2788.42768	0.04522
2786.49930	0.04652
2784.57093	0.04760
2782.64256	0.04855
2780.71418	0.04950
2778.78581	0.05044
2776.85744	0.05133
2774.92907	0.05215
2773.00069	0.05293
2771.07232	0.05373
2769.14395	0.05462
2767.21557	0.05569
2765.28720	0.05691
2763.35883	0.05817
2761.43045	0.05937
2759.50208	0.06054
2757.57371	0.06175
2755.64533	0.06305
2753.71696	0.06435
2751.78859	0.06555
2749.86021	0.06663
2747.93184	0.06760
2746.00347	0.06854
2744.07509	0.06949
2742.14672	0.07047
2740.21835	0.07138
2738.28997	0.07218
2736.36160	0.07298
2734.43323	0.07384
2732.50485	0.07470
2730.57648	0.07555
2728.64811	0.07643
2726.71973	0.07725
2724.79136	0.07795
2722.86299	0.07864
2720.93461	0.07958
2719.00624	0.08084
2717.07787	0.08211
2715.14950	0.08330
2713.22112	0.08460
2711.29275	0.08601
2709.36438	0.08740
2707.43600	0.08879
2705.50763	0.09025
2703.57926	0.09174
2701.65088	0.09337
2699.72251	0.09518
2697.79414	0.09701
2695.86576	0.09870
2693.93739	0.10025
2692.00902	0.10182
2690.08064	0.10344
2688.15227	0.10502
2686.22390	0.10662
2684.29552	0.10834
2682.36715	0.11011
2680.43878	0.11183
2678.51040	0.11352
2676.58203	0.11521
2674.65366	0.11688
2672.72528	0.11849
2670.79691	0.12003
2668.86854	0.12159
2666.94016	0.12320
2665.01179	0.12472
2663.08342	0.12603
2661.15505	0.12716
2659.22667	0.12818
2657.29830	0.12910
2655.36993	0.12992
2653.44155	0.13070
2651.51318	0.13149
2649.58481	0.13237
2647.65643	0.13330
2645.72806	0.13415
2643.79969	0.13496
2641.87131	0.13580
2639.94294	0.13658
2638.01457	0.13734
2636.08619	0.13819
2634.15782	0.13908
2632.22945	0.14001
2630.30107	0.14096
2628.37270	0.14195
2626.44433	0.14301
2624.51595	0.14406
2622.58758	0.14503
2620.65921	0.14609
2618.73083	0.14731
2616.80246	0.14859
2614.87409	0.14986
2612.94571	0.15110
2611.01734	0.15244
2609.08897	0.15388
2607.16059	0.15525
2605.23222	0.15643
2603.30385	0.15744
2601.37548	0.15827
2599.44710	0.15902
2597.51873	0.15983
2595.59036	0.16059
2593.66198	0.16119
2591.73361	0.16172
2589.80524	0.16220
2587.87686	0.16270
2585.94849	0.16320
2584.02012	0.16377
2582.09174	0.16460
2580.16337	0.16557
2578.23500	0.16656
2576.30662	0.16776
2574.37825	0.16925
2572.44988	0.17085
2570.52150	0.17247
2568.59313	0.17422
2566.66476	0.17620
2564.73638	0.17840
2562.80801	0.18072
2560.87964	0.18319
2558.95126	0.18592
2557.02289	0.18869
2555.09452	0.19122
2553.16614	0.19354
2551.23777	0.19573
2549.30940	0.19769
2547.38103	0.19933
2545.45265	0.20075
2543.52428	0.20205
2541.59591	0.20320
2539.66753	0.20422
2537.73916	0.20519
2535.81079	0.20613
2533.88241	0.20708
2531.95404	0.20809
2530.02567	0.20918
2528.09729	0.21042
2526.16892	0.21173
2524.24055	0.21307
2522.31217	0.21455
2520.38380	0.21624
2518.45543	0.21795
2516.52705	0.21962
2514.59868	0.22128
2512.67031	0.22282
2510.74193	0.22430
2508.81356	0.22593
2506.88519	0.22765
2504.95681	0.22926
2503.02844	0.23081
2501.10007	0.23242
2499.17169	0.23410
2497.24332	0.23586
2495.31495	0.23771
2493.38657	0.23966
2491.45820	0.24169
2489.52983	0.24372
2487.60146	0.24565
2485.67308	0.24753
2483.74471	0.24943
2481.81634	0.25137
2479.88796	0.25328
2477.95959	0.25514
2476.03122	0.25694
2474.10284	0.25868
2472.17447	0.26041
2470.24610	0.26222
2468.31772	0.26414
2466.38935	0.26601
2464.46098	0.26780
2462.53260	0.26960
2460.60423	0.27142
2458.67586	0.27319
2456.74748	0.27491
2454.81911	0.27654
2452.89074	0.27809
2450.96236	0.27959
2449.03399	0.28114
2447.10562	0.28273
2445.17724	0.28435
2443.24887	0.28597
2441.32050	0.28765
2439.39212	0.28948
2437.46375	0.29148
2435.53538	0.29354
2433.60700	0.29569
2431.67863	0.29786
2429.75026	0.29992
2427.82189	0.30179
2425.89351	0.30344
2423.96514	0.30494
2422.03677	0.30634
2420.10839	0.30765
2418.18002	0.30888
2416.25165	0.31009
2414.32327	0.31141
2412.39490	0.31291
2410.46653	0.31453
2408.53815	0.31621
2406.60978	0.31798
2404.68141	0.31987
2402.75303	0.32182
2400.82466	0.32382
2398.89629	0.32580
2396.96791	0.32776
2395.03954	0.32981
2393.11117	0.33189
2391.18279	0.33379
2389.25442	0.33546
2387.32605	0.33696
2385.39767	0.33817
2383.46930	0.33892
2381.54093	0.33924
2379.61255	0.33941
2377.68418	0.33963
2375.75581	0.33982
2373.82744	0.33994
2371.89906	0.33993
2369.97069	0.33990
2368.04232	0.34009
2366.11394	0.34022
2364.18557	0.34005
2362.25720	0.34047
2360.32882	0.34220
2358.40045	0.34430
2356.47208	0.34578
2354.54370	0.34705
2352.61533	0.34862
2350.68696	0.35012
2348.75858	0.35085
2346.83021	0.35055
2344.90184	0.34977
2342.97346	0.34966
2341.04509	0.35013
2339.11672	0.35060
2337.18834	0.35116
2335.25997	0.35187
2333.33160	0.35260
2331.40322	0.35332
2329.47485	0.35406
2327.54648	0.35483
2325.61810	0.35564
2323.68973	0.35656
2321.76136	0.35786
2319.83298	0.35972
2317.90461	0.36199
2315.97624	0.36444
2314.04787	0.36690
2312.11949	0.36930
2310.19112	0.37183
2308.26275	0.37456
2306.33437	0.37725
2304.40600	0.37971
2302.47763	0.38188
2300.54925	0.38375
2298.62088	0.38530
2296.69251	0.38657
2294.76413	0.38776
2292.83576	0.38889
2290.90739	0.38980
2288.97901	0.39041
2287.05064	0.39086
2285.12227	0.39130
2283.19389	0.39167
2281.26552	0.39180
2279.33715	0.39164
2277.40877	0.39135
2275.48040	0.39104
2273.55203	0.39064
2271.62365	0.39023
2269.69528	0.38995
2267.76691	0.38977
2265.83853	0.38955
2263.91016	0.38934
2261.98179	0.38922
2260.05342	0.38927
2258.12504	0.38961
2256.19667	0.39022
2254.26830	0.39103
2252.33992	0.39199
2250.41155	0.39297
2248.48318	0.39392
2246.55480	0.39492
2244.62643	0.39597
2242.69806	0.39690
2240.76968	0.39764
2238.84131	0.39823
2236.91294	0.39870
2234.98456	0.39903
2233.05619	0.39925
2231.12782	0.39940
2229.19944	0.39955
2227.27107	0.39967
2225.34270	0.39963
2223.41432	0.39936
2221.48595	0.39889
2219.55758	0.39836
2217.62920	0.39786
2215.70083	0.39729
2213.77246	0.39654
2211.84408	0.39575
2209.91571	0.39499
2207.98734	0.39420
2206.05896	0.39337
2204.13059	0.39254
2202.20222	0.39171
2200.27385	0.39088
2198.34547	0.38998
2196.41710	0.38890
2194.48873	0.38777
2192.56035	0.38676
2190.63198	0.38590
2188.70361	0.38508
2186.77523	0.38428
2184.84686	0.38361
2182.91849	0.38306
2180.99011	0.38247
2179.06174	0.38185
2177.13337	0.38125
2175.20499	0.38060
2173.27662	0.37988
2171.34825	0.37920
2169.41987	0.37860
2167.49150	0.37805
2165.56313	0.37751
2163.63475	0.37700
2161.70638	0.37660
2159.77801	0.37634
2157.84963	0.37622
2155.92126	0.37620
2153.99289	0.37621
2152.06451	0.37627
2150.13614	0.37637
2148.20777	0.37648
2146.27940	0.37672
2144.35102	0.37711
2142.42265	0.37745
2140.49428	0.37765
2138.56590	0.37780
2136.63753	0.37792
2134.70916	0.37802
2132.78078	0.37819
2130.85241	0.37845
2128.92404	0.37877
2126.99566	0.37921
2125.06729	0.37979
2123.13892	0.38057
2121.21054	0.38152
2119.28217	0.38260
2117.35380	0.38377
2115.42542	0.38501
2113.49705	0.38622
2111.56868	0.38737
2109.64030	0.38846
2107.71193	0.38944
2105.78356	0.39027
2103.85518	0.39098
2101.92681	0.39163
2099.99844	0.39223
2098.07006	0.39271
2096.14169	0.39299
2094.21332	0.39307
2092.28494	0.39301
2090.35657	0.39289
2088.42820	0.39288
2086.49983	0.39298
2084.57145	0.39298
2082.64308	0.39283
2080.71471	0.39255
2078.78633	0.39223
2076.85796	0.39204
2074.92959	0.39200
2073.00121	0.39205
2071.07284	0.39229
2069.14447	0.39273
2067.21609	0.39327
2065.28772	0.39403
2063.35935	0.39531
2061.43097	0.39697
2059.50260	0.39881
2057.57423	0.40075
2055.64585	0.40279
2053.71748	0.40495
2051.78911	0.40712
2049.86073	0.40915
2047.93236	0.41100
2046.00399	0.41265
2044.07561	0.41413
2042.14724	0.41548
2040.21887	0.41685
2038.29049	0.41825
2036.36212	0.41948
2034.43375	0.42044
2032.50538	0.42120
2030.57700	0.42187
2028.64863	0.42246
2026.72026	0.42290
2024.79188	0.42330
2022.86351	0.42373
2020.93514	0.42397
2019.00676	0.42395
2017.07839	0.42434
2015.15002	0.42564
2013.22164	0.42730
2011.29327	0.42868
2009.36490	0.42985
2007.43652	0.43110
2005.50815	0.43251
2003.57978	0.43388
2001.65140	0.43505
1999.72303	0.43610
1997.79466	0.43706
1995.86628	0.43760
1993.93791	0.43732
1992.00954	0.43697
1990.08116	0.43757
1988.15279	0.43869
1986.22442	0.43963
1984.29604	0.44031
1982.36767	0.44069
1980.43930	0.44091
1978.51092	0.44122
1976.58255	0.44168
1974.65418	0.44224
1972.72581	0.44274
1970.79743	0.44295
1968.86906	0.44281
1966.94069	0.44309
1965.01231	0.44438
1963.08394	0.44588
1961.15557	0.44700
1959.22719	0.44807
1957.29882	0.44922
1955.37045	0.45047
1953.44207	0.45204
1951.51370	0.45381
1949.58533	0.45536
1947.65695	0.45649
1945.72858	0.45694
1943.80021	0.45696
1941.87183	0.45835
1939.94346	0.46145
1938.01509	0.46402
1936.08671	0.46524
1934.15834	0.46602
1932.22997	0.46685
1930.30159	0.46766
1928.37322	0.46825
1926.44485	0.46811
1924.51647	0.46687
1922.58810	0.46591
1920.65973	0.46598
1918.73135	0.46604
1916.80298	0.46696
1914.87461	0.46906
1912.94624	0.47017
1911.01786	0.46969
1909.08949	0.46912
1907.16112	0.46945
1905.23274	0.46993
1903.30437	0.46983
1901.37600	0.46930
1899.44762	0.46831
1897.51925	0.46660
1895.59088	0.46472
1893.66250	0.46348
1891.73413	0.46186
1889.80576	0.45992
1887.87738	0.45983
1885.94901	0.46093
1884.02064	0.46148
1882.09226	0.46172
1880.16389	0.46201
1878.23552	0.46235
1876.30714	0.46268
1874.37877	0.46262
1872.45040	0.46099
1870.52202	0.45707
1868.59365	0.45400
1866.66528	0.45575
1864.73690	0.45946
1862.80853	0.46115
1860.88016	0.46083
1858.95179	0.45983
1857.02341	0.45887
1855.09504	0.45788
1853.16667	0.45661
1851.23829	0.45473
1849.30992	0.45178
1847.38155	0.44754
1845.45317	0.44263
1843.52480	0.44047
1841.59643	0.44226
1839.66805	0.44338
1837.73968	0.44204
1835.81131	0.44022
1833.88293	0.43789
1831.95456	0.43300
1830.02619	0.42725
1828.09781	0.42452
1826.16944	0.42328
1824.24107	0.42189
1822.31269	0.42123
1820.38432	0.41966
1818.45595	0.41630
1816.52757	0.41243
1814.59920	0.40802
1812.67083	0.40221
1810.74245	0.39615
1808.81408	0.39183
1806.88571	0.38823
1804.95733	0.38312
1803.02896	0.37584
1801.10059	0.36774
1799.17222	0.36108
1797.24384	0.35536
1795.31547	0.34804
1793.38710	0.33817
1791.45872	0.32910
1789.53035	0.32389
1787.60198	0.31863
1785.67360	0.31051
1783.74523	0.30110
1781.81686	0.29182
1779.88848	0.28282
1777.96011	0.27441
1776.03174	0.26548
1774.10336	0.25444
1772.17499	0.24251
1770.24662	0.23366
1768.31824	0.22734
1766.38987	0.22052
1764.46150	0.21209
1762.53312	0.20099
1760.60475	0.18873
1758.67638	0.17724
1756.74800	0.16464
1754.81963	0.15116
1752.89126	0.13663
1750.96288	0.11872
1749.03451	0.09943
1747.10614	0.08241
1745.17777	0.06690
1743.24939	0.05208
1741.32102	0.03840
1739.39265	0.02649
1737.46427	0.01798
1735.53590	0.01204
1733.60753	0.00693
1731.67915	0.00377
1729.75078	0.00223
1727.82241	0.00126
1725.89403	0.00069
1723.96566	0.00066
1722.03729	0.00067
1720.10891	0.00063
1718.18054	0.00057
1716.25217	0.00062
1714.32379	0.00071
1712.39542	0.00075
1710.46705	0.00080
1708.53867	0.00084
1706.61030	0.00082
1704.68193	0.00082
1702.75355	0.00092
1700.82518	0.00092
1698.89681	0.00080
1696.96843	0.00082
1695.04006	0.00091
1693.11169	0.00073
1691.18331	0.00060
1689.25494	0.00070
1687.32657	0.00087
1685.39820	0.00106
1683.46982	0.00099
1681.54145	0.00074
1679.61308	0.00052
1677.68470	0.00048
1675.75633	0.00054
1673.82796	0.00058
1671.89958	0.00054
1669.97121	0.00044
1668.04284	0.00046
1666.11446	0.00062
1664.18609	0.00071
1662.25772	0.00068
1660.32934	0.00062
1658.40097	0.00058
1656.47260	0.00062
1654.54422	0.00075
1652.61585	0.00069
1650.68748	0.00058
1648.75910	0.00068
1646.83073	0.00080
1644.90236	0.00074
1642.97398	0.00058
1641.04561	0.00049
1639.11724	0.00056
1637.18886	0.00086
1635.26049	0.00104
1633.33212	0.00092
1631.40375	0.00076
1629.47537	0.00062
1627.54700	0.00056
1625.61863	0.00058
1623.69025	0.00058
1621.76188	0.00055
1619.83351	0.00057
1617.90513	0.00071
1615.97676	0.00079
1614.04839	0.00070
1612.12001	0.00062
1610.19164	0.00064
1608.26327	0.00074
1606.33489	0.00090
1604.40652	0.00097
1602.47815	0.00087
1600.54977	0.00065
1598.62140	0.00048
1596.69303	0.00042
1594.76465	0.00046
1592.83628	0.00055
1590.90791	0.00056
1588.97953	0.00052
1587.05116	0.00048
1585.12279	0.00046
1583.19441	0.00045
1581.26604	0.00054
1579.33767	0.00060
1577.40929	0.00053
1575.48092	0.00047
1573.55255	0.00050
1571.62418	0.00049
1569.69580	0.00041
1567.76743	0.00034
1565.83906	0.00036
1563.91068	0.00039
1561.98231	0.00055
1560.05394	0.00091
1558.12556	0.00119
1556.19719	0.00108
1554.26882	0.00086
1552.34044	0.00074
1550.41207	0.00073
1548.48370	0.00069
1546.55532	0.00058
1544.62695	0.00057
1542.69858	0.00071
1540.77020	0.00087
1538.84183	0.00086
1536.91346	0.00077
1534.98508	0.00074
1533.05671	0.00071
1531.12834	0.00062
1529.19996	0.00052
1527.27159	0.00050
1525.34322	0.00058
1523.41484	0.00069
1521.48647	0.00082
1519.55810	0.00091
1517.62972	0.00091
1515.70135	0.00078
1513.77298	0.00059
1511.84461	0.00052
1509.91623	0.00071
1507.98786	0.00107
1506.05949	0.00112
1504.13111	0.00090
1502.20274	0.00088
1500.27437	0.00095
1498.34599	0.00094
1496.41762	0.00092
1494.48925	0.00089
1492.56087	0.00077
1490.63250	0.00068
1488.70413	0.00063
1486.77575	0.00065
1484.84738	0.00061
1482.91901	0.00053
1480.99063	0.00062
1479.06226	0.00078
1477.13389	0.00082
1475.20551	0.00081
1473.27714	0.00082
1471.34877	0.00074
1469.42039	0.00079
1467.49202	0.00097
1465.56365	0.00103
1463.63527	0.00091
1461.70690	0.00075
1459.77853	0.00064
1457.85016	0.00078
1455.92178	0.00106
1453.99341	0.00111
1452.06504	0.00102
1450.13666	0.00089
1448.20829	0.00077
1446.27992	0.00066
1444.35154	0.00058
1442.42317	0.00055
1440.49480	0.00053
1438.56642	0.00069
1436.63805	0.00092
1434.70968	0.00094
1432.78130	0.00090
1430.85293	0.00096
1428.92456	0.00095
1426.99618	0.00080
1425.06781	0.00068
1423.13944	0.00071
1421.21106	0.00079
1419.28269	0.00079
1417.35432	0.00079
1415.42594	0.00087
1413.49757	0.00093
1411.56920	0.00085
1409.64082	0.00071
1407.71245	0.00057
1405.78408	0.00050
1403.85570	0.00059
1401.92733	0.00077
1399.99896	0.00086
1398.07059	0.00082
1396.14221	0.00073
1394.21384	0.00073
1392.28547	0.00085
1390.35709	0.00086
1388.42872	0.00078
1386.50035	0.00077
1384.57197	0.00081
1382.64360	0.00086
1380.71523	0.00083
1378.78685	0.00082
1376.85848	0.00086
1374.93011	0.00094
1373.00173	0.00094
1371.07336	0.00085
1369.14499	0.00084
1367.21661	0.00088
1365.28824	0.00084
1363.35987	0.00084
1361.43149	0.00090
1359.50312	0.00093
1357.57475	0.00098
1355.64637	0.00111
1353.71800	0.00117
1351.78963	0.00102
1349.86125	0.00081
1347.93288	0.00073
1346.00451	0.00071
1344.07614	0.00077
1342.14776	0.00089
1340.21939	0.00102
1338.29102	0.00111
1336.36264	0.00113
1334.43427	0.00104
1332.50590	0.00092
1330.57752	0.00086
1328.64915	0.00085
1326.72078	0.00077
1324.79240	0.00073
1322.86403	0.00079
1320.93566	0.00083
1319.00728	0.00088
1317.07891	0.00093
1315.15054	0.00093
1313.22216	0.00087
1311.29379	0.00079
1309.36542	0.00084
1307.43704	0.00100
1305.50867	0.00105
1303.58030	0.00089
1301.65192	0.00082
1299.72355	0.00095
1297.79518	0.00104
1295.86680	0.00098
1293.93843	0.00090
1292.01006	0.00092
1290.08168	0.00107
1288.15331	0.00122
1286.22494	0.00125
1284.29657	0.00112
1282.36819	0.00100
1280.43982	0.00100
1278.51145	0.00100
1276.58307	0.00090
1274.65470	0.00085
1272.72633	0.00095
1270.79795	0.00110
1268.86958	0.00123
1266.94121	0.00132
1265.01283	0.00135
1263.08446	0.00135
1261.15609	0.00139
1259.22771	0.00136
1257.29934	0.00125
1255.37097	0.00126
1253.44259	0.00140
1251.51422	0.00144
1249.58585	0.00128
1247.65747	0.00121
1245.72910	0.00137
1243.80073	0.00143
1241.87235	0.00123
1239.94398	0.00098
1238.01561	0.00082
1236.08723	0.00087
1234.15886	0.00109
1232.23049	0.00119
1230.30212	0.00121
1228.37374	0.00145
1226.44537	0.00170
1224.51700	0.00172
1222.58862	0.00186
1220.66025	0.00213
1218.73188	0.00229
1216.80350	0.00215
1214.87513	0.00190
1212.94676	0.00172
1211.01838	0.00159
1209.09001	0.00159
1207.16164	0.00166
1205.23326	0.00153
1203.30489	0.00134
1201.37652	0.00145
1199.44814	0.00160
1197.51977	0.00150
1195.59140	0.00144
1193.66302	0.00162
1191.73465	0.00174
1189.80628	0.00142
1187.87790	0.00094
1185.94953	0.00088
1184.02116	0.00124
1182.09278	0.00146
1180.16441	0.00145
1178.23604	0.00147
1176.30766	0.00154
1174.37929	0.00142
1172.45092	0.00133
1170.52255	0.00154
1168.59417	0.00175
1166.66580	0.00161
1164.73743	0.00133
1162.80905	0.00126
1160.88068	0.00126
1158.95231	0.00133
1157.02393	0.00161
1155.09556	0.00187
1153.16719	0.00196
1151.23881	0.00196
1149.31044	0.00185
1147.38207	0.00177
1145.45369	0.00187
1143.52532	0.00194
1141.59695	0.00182
1139.66857	0.00165
1137.74020	0.00155
1135.81183	0.00157
1133.88345	0.00158
1131.95508	0.00178
1130.02671	0.00195
1128.09833	0.00193
1126.16996	0.00173
1124.24159	0.00146
1122.31321	0.00148
1120.38484	0.00173
1118.45647	0.00183
1116.52809	0.00181
1114.59972	0.00190
1112.67135	0.00216
1110.74298	0.00232
1108.81460	0.00216
1106.88623	0.00180
1104.95786	0.00171
1103.02948	0.00183
1101.10111	0.00173
1099.17274	0.00148
1097.24436	0.00142
1095.31599	0.00161
1093.38762	0.00179
1091.45924	0.00189
1089.53087	0.00196
1087.60250	0.00190
1085.67412	0.00185
1083.74575	0.00176
1081.81738	0.00168
1079.88900	0.00198
1077.96063	0.00234
1076.03226	0.00223
1074.10388	0.00185
1072.17551	0.00153
1070.24714	0.00142
1068.31876	0.00156
1066.39039	0.00172
1064.46202	0.00185
1062.53364	0.00198
1060.60527	0.00195
1058.67690	0.00185
1056.74853	0.00179
1054.82015	0.00157
1052.89178	0.00126
1050.96341	0.00122
1049.03503	0.00161
1047.10666	0.00205
1045.17829	0.00227
1043.24991	0.00221
1041.32154	0.00190
1039.39317	0.00178
1037.46479	0.00203
1035.53642	0.00242
1033.60805	0.00233
1031.67967	0.00186
1029.75130	0.00157
1027.82293	0.00155
1025.89455	0.00168
1023.96618	0.00185
1022.03781	0.00178
1020.10943	0.00159
1018.18106	0.00170
1016.25269	0.00200
1014.32431	0.00203
1012.39594	0.00172
1010.46757	0.00148
1008.53919	0.00144
1006.61082	0.00145
1004.68245	0.00134
1002.75407	0.00109
1000.82570	0.00096
998.89733	0.00108
996.96896	0.00134
995.04058	0.00141
993.11221	0.00141
991.18384	0.00171
989.25546	0.00224
987.32709	0.00282
985.39872	0.00338
983.47034	0.00385
981.54197	0.00418
979.61360	0.00426
977.68522	0.00423
975.75685	0.00460
973.82848	0.00566
971.90010	0.00741
969.97173	0.00985
968.04336	0.01282
966.11498	0.01568
964.18661	0.01730
962.25824	0.01647
960.32986	0.01287
958.40149	0.00813
956.47312	0.00475
954.54474	0.00354
952.61637	0.00372
950.68800	0.00454
948.75962	0.00549
946.83125	0.00630
944.90288	0.00716
942.97451	0.00861
941.04613	0.01102
939.11776	0.01465
937.18939	0.01950
935.26101	0.02471
933.33264	0.02929
931.40427	0.03297
929.47589	0.03560
927.54752	0.03683
925.61915	0.03673
923.69077	0.03599
921.76240	0.03565
919.83403	0.03677
917.90565	0.03939
915.97728	0.04279
914.04891	0.04609
912.12053	0.04790
910.19216	0.04686
908.26379	0.04301
906.33541	0.03775
904.40704	0.03251
902.47867	0.02818
900.55029	0.02544
898.62192	0.02453
896.69355	0.02503
894.76517	0.02653
892.83680	0.02911
890.90843	0.03251
888.98005	0.03542
887.05168	0.03608
885.12331	0.03487
883.19494	0.03567
881.26656	0.04132
879.33819	0.04928
877.40982	0.05543
875.48144	0.05876
873.55307	0.06020
871.62470	0.06060
869.69632	0.06030
867.76795	0.05939
865.83958	0.05819
863.91120	0.05704
861.98283	0.05581
860.05446	0.05413
858.12608	0.05196
856.19771	0.04979
854.26934	0.04811
852.34096	0.04693
850.41259	0.04622
848.48422	0.04595
846.55584	0.04604
844.62747	0.04641
842.69910	0.04682
840.77072	0.04725
838.84235	0.04771
836.91398	0.04790
834.98560	0.04788
833.05723	0.04779
831.12886	0.04728
829.20049	0.04607
827.27211	0.04423
825.34374	0.04211
823.41537	0.04009
821.48699	0.03865
819.55862	0.03829
817.63025	0.03844
815.70187	0.03794
813.77350	0.03672
811.84513	0.03538
809.91675	0.03394
807.98838	0.03217
806.06001	0.03008
804.13163	0.02809
802.20326	0.02683
800.27489	0.02606
798.34651	0.02477
796.41814	0.02264
794.48977	0.02026
792.56139	0.01790
790.63302	0.01537
788.70465	0.01280
786.77627	0.01056
784.84790	0.00868
782.91953	0.00685
780.99115	0.00515
779.06278	0.00417
777.13441	0.00380
775.20603	0.00338
773.27766	0.00282
771.34929	0.00231
769.42092	0.00217
767.49254	0.00240
765.56417	0.00281
763.63580	0.00318
761.70742	0.00324
759.77905	0.00309
757.85068	0.00290
755.92230	0.00286
753.99393	0.00306
752.06556	0.00322
750.13718	0.00292
748.20881	0.00237
746.28044	0.00217
744.35206	0.00232
742.42369	0.00233
740.49532	0.00238
738.56694	0.00305
736.63857	0.00363
734.71020	0.00380
732.78182	0.00389
730.85345	0.00396
728.92508	0.00400
726.99670	0.00406
725.06833	0.00377
723.13996	0.00314
721.21158	0.00282
719.28321	0.00289
717.35484	0.00303
715.42647	0.00320
713.49809	0.00327
711.56972	0.00331
709.64135	0.00324
707.71297	0.00324
705.78460	0.00323
703.85623	0.00327
701.92785	0.00341
699.99948	0.00310
698.07111	0.00259
696.14273	0.00260
694.21436	0.00311
692.28599	0.00362
690.35761	0.00391
688.42924	0.00406
686.50087	0.00434
684.57249	0.00470
682.64412	0.00465
680.71575	0.00428
678.78737	0.00391
676.85900	0.00357
674.93063	0.00342
673.00225	0.00416
671.07388	0.00554
669.14551	0.00629
667.21713	0.00535
665.28876	0.00442
663.36039	0.00447
661.43201	0.00489
659.50364	0.00534
657.57527	0.00597
655.64690	0.00630
653.71852	0.00595
651.79015	0.00565
649.86178	0.00559
647.93340	0.00523
646.00503	0.00504
644.07666	0.00568
642.14828	0.00683
640.21991	0.00757
638.29154	0.00711
636.36316	0.00632
634.43479	0.00647
632.50642	0.00768
630.57804	0.00844
628.64967	0.00840
626.72130	0.00809
624.79292	0.00883
622.86455	0.00937
620.93618	0.00918
619.00780	0.00800
617.07943	0.00675
615.15106	0.00617
613.22268	0.00692
611.29431	0.00827
609.36594	0.00940
607.43756	0.01124
605.50919	0.01359
603.58082	0.01510
601.65244	0.01512
599.72407	0.01427
