3997.51769	0.44444
3995.58931	0.44492
3993.66094	0.44553
3991.73257	0.44631
3989.80419	0.44750
3987.87582	0.44920
3985.94745	0.45106
3984.01907	0.45268
3982.09070	0.45412
3980.16233	0.45546
3978.23396	0.45640
3976.30558	0.45701
3974.37721	0.45770
3972.44884	0.45853
3970.52046	0.45943
3968.59209	0.46069
3966.66372	0.46219
3964.73534	0.46318
3962.80697	0.46347
3960.87860	0.46395
3958.95022	0.46501
3957.02185	0.46606
3955.09348	0.46693
3953.16510	0.46730
3951.23673	0.46675
3949.30836	0.46621
3947.37998	0.46716
3945.45161	0.46840
3943.52324	0.46837
3941.59486	0.46908
3939.66649	0.47155
3937.73812	0.47358
3935.80974	0.47383
3933.88137	0.47243
3931.95300	0.47130
3930.02462	0.47254
3928.09625	0.47451
3926.16788	0.47461
3924.23950	0.47422
3922.31113	0.47511
3920.38276	0.47546
3918.45439	0.47501
3916.52601	0.47664
3914.59764	0.48069
3912.66927	0.48411
3910.74089	0.48554
3908.81252	0.48501
3906.88415	0.48157
3904.95577	0.47619
3903.02740	0.47303
3901.09903	0.47402
3899.17065	0.47831
3897.24228	0.48447
3895.31391	0.48824
3893.38553	0.48730
3891.45716	0.48600
3889.52879	0.48810
3887.60041	0.48884
3885.67204	0.48691
3883.74367	0.48644
3881.81529	0.48654
3879.88692	0.48818
3877.95855	0.49285
3876.03017	0.49417
3874.10180	0.49109
3872.17343	0.48805
3870.24505	0.48709
3868.31668	0.48965
3866.38831	0.49203
3864.45994	0.49173
3862.53156	0.49385
3860.60319	0.49881
3858.67482	0.50070
3856.74644	0.49742
3854.81807	0.49033
3852.88970	0.48640
3850.96132	0.49361
3849.03295	0.50264
3847.10458	0.50671
3845.17620	0.50532
3843.24783	0.50099
3841.31946	0.49635
3839.39108	0.49287
3837.46271	0.49336
3835.53434	0.49776
3833.60596	0.50179
3831.67759	0.50470
3829.74922	0.50701
3827.82084	0.50762
3825.89247	0.50709
3823.96410	0.50470
3822.03572	0.49881
3820.10735	0.49638
3818.17898	0.50031
3816.25060	0.50436
3814.32223	0.50996
3812.39386	0.51559
3810.46548	0.51651
3808.53711	0.51255
3806.60874	0.50842
3804.68037	0.50656
3802.75199	0.50306
3800.82362	0.50122
3798.89525	0.50477
3796.96687	0.50879
3795.03850	0.51348
3793.11013	0.51859
3791.18175	0.52112
3789.25338	0.52114
3787.32501	0.51938
3785.39663	0.51706
3783.46826	0.51640
3781.53989	0.51561
3779.61151	0.51391
3777.68314	0.51556
3775.75477	0.51930
3773.82639	0.51991
3771.89802	0.51606
3769.96965	0.51120
3768.04127	0.50976
3766.11290	0.51093
3764.18453	0.51286
3762.25615	0.51294
3760.32778	0.50903
3758.39941	0.50561
3756.47103	0.50578
3754.54266	0.50398
3752.61429	0.49646
3750.68591	0.48905
3748.75754	0.49008
3746.82917	0.49262
3744.90080	0.49267
3742.97242	0.49590
3741.04405	0.49996
3739.11568	0.49860
3737.18730	0.49108
3735.25893	0.48338
3733.33056	0.48509
3731.40218	0.49419
3729.47381	0.50084
3727.54544	0.50084
3725.61706	0.49737
3723.68869	0.49510
3721.76032	0.49512
3719.83194	0.49676
3717.90357	0.49842
3715.97520	0.49748
3714.04682	0.49157
3712.11845	0.48233
3710.19008	0.47878
3708.26170	0.48360
3706.33333	0.48819
3704.40496	0.48733
3702.47658	0.48253
3700.54821	0.47918
3698.61984	0.47820
3696.69146	0.47569
3694.76309	0.47001
3692.83472	0.46062
3690.90635	0.44829
3688.97797	0.43901
3687.04960	0.43697
3685.12123	0.43612
3683.19285	0.43114
3681.26448	0.42121
3679.33611	0.40786
3677.40773	0.39188
3675.47936	0.37511
3673.55099	0.36498
3671.62261	0.35752
3669.69424	0.34647
3667.76587	0.33775
3665.83749	0.33167
3663.90912	0.32263
3661.98075	0.31075
3660.05237	0.29800
3658.12400	0.28430
3656.19563	0.26953
3654.26725	0.25629
3652.33888	0.24322
3650.41051	0.22631
3648.48213	0.21012
3646.55376	0.20179
3644.62539	0.19683
3642.69701	0.19021
3640.76864	0.18145
3638.84027	0.17193
3636.91189	0.16234
3634.98352	0.15265
3633.05515	0.14320
3631.12678	0.13398
3629.19840	0.12388
3627.27003	0.11552
3625.34166	0.11052
3623.41328	0.10524
3621.48491	0.09835
3619.55654	0.09057
3617.62816	0.08386
3615.69979	0.07877
3613.77142	0.07386
3611.84304	0.06887
3609.91467	0.06420
3607.98630	0.06000
3606.05792	0.05649
3604.12955	0.05313
3602.20118	0.04913
3600.27280	0.04496
3598.34443	0.04138
3596.41606	0.03823
3594.48768	0.03532
3592.55931	0.03275
3590.63094	0.03032
3588.70256	0.02752
3586.77419	0.02467
3584.84582	0.02259
3582.91744	0.02107
3580.98907	0.01959
3579.06070	0.01790
3577.13233	0.01621
3575.20395	0.01471
3573.27558	0.01336
3571.34721	0.01200
3569.41883	0.01066
3567.49046	0.00959
3565.56209	0.00871
3563.63371	0.00791
3561.70534	0.00721
3559.77697	0.00649
3557.84859	0.00567
3555.92022	0.00498
3553.99185	0.00453
3552.06347	0.00409
3550.13510	0.00357
3548.20673	0.00298
3546.27835	0.00244
3544.34998	0.00212
3542.42161	0.00195
3540.49323	0.00172
3538.56486	0.00140
3536.63649	0.00111
3534.70811	0.00082
3532.77974	0.00066
3530.85137	0.00063
3528.92299	0.00050
3526.99462	0.00040
3525.06625	0.00049
3523.13787	0.00066
3521.20950	0.00078
3519.28113	0.00080
3517.35276	0.00084
3515.42438	0.00095
3513.49601	0.00096
3511.56764	0.00091
3509.63926	0.00104
3507.71089	0.00112
3505.78252	0.00081
3503.85414	0.00057
3501.92577	0.00066
3499.99740	0.00079
3498.06902	0.00083
3496.14065	0.00076
3494.21228	0.00073
3492.28390	0.00077
3490.35553	0.00070
3488.42716	0.00050
3486.49878	0.00046
3484.57041	0.00064
3482.64204	0.00085
3480.71366	0.00082
3478.78529	0.00080
3476.85692	0.00103
3474.92854	0.00118
3473.00017	0.00091
3471.07180	0.00065
3469.14342	0.00067
3467.21505	0.00075
3465.28668	0.00067
3463.35831	0.00067
3461.42993	0.00093
3459.50156	0.00114
3457.57319	0.00124
3455.64481	0.00128
3453.71644	0.00118
3451.78807	0.00101
3449.85969	0.00082
3447.93132	0.00057
3446.00295	0.00034
3444.07457	0.00026
3442.14620	0.00030
3440.21783	0.00030
3438.28945	0.00063
3436.36108	0.00084
3434.43271	0.00081
3432.50433	0.00070
3430.57596	0.00067
3428.64759	0.00073
3426.71921	0.00094
3424.79084	0.00124
3422.86247	0.00128
3420.93409	0.00098
3419.00572	0.00086
3417.07735	0.00093
3415.14897	0.00091
3413.22060	0.00083
3411.29223	0.00087
3409.36385	0.00086
3407.43548	0.00078
3405.50711	0.00075
3403.57874	0.00073
3401.65036	0.00064
3399.72199	0.00058
3397.79362	0.00053
3395.86524	0.00056
3393.93687	0.00089
3392.00850	0.00104
3390.08012	0.00096
3388.15175	0.00068
3386.22338	0.00028
3384.29500	0.00041
3382.36663	0.00062
3380.43826	0.00072
3378.50988	0.00064
3376.58151	0.00055
3374.65314	0.00072
3372.72476	0.00099
3370.79639	0.00106
3368.86802	0.00086
3366.93964	0.00074
3365.01127	0.00076
3363.08290	0.00079
3361.15452	0.00074
3359.22615	0.00062
3357.29778	0.00051
3355.36940	0.00048
3353.44103	0.00057
3351.51266	0.00080
3349.58428	0.00095
3347.65591	0.00089
3345.72754	0.00099
3343.79917	0.00117
3341.87079	0.00114
3339.94242	0.00103
3338.01405	0.00098
3336.08567	0.00094
3334.15730	0.00089
3332.22893	0.00088
3330.30055	0.00075
3328.37218	0.00058
3326.44381	0.00059
3324.51543	0.00081
3322.58706	0.00108
3320.65869	0.00123
3318.73031	0.00122
3316.80194	0.00099
3314.87357	0.00056
3312.94519	0.00022
3311.01682	0.00024
3309.08845	0.00059
3307.16007	0.00096
3305.23170	0.00106
3303.30333	0.00089
3301.37495	0.00074
3299.44658	0.00076
3297.51821	0.00081
3295.58983	0.00078
3293.66146	0.00084
3291.73309	0.00105
3289.80472	0.00115
3287.87634	0.00107
3285.94797	0.00077
3284.01960	0.00053
3282.09122	0.00071
3280.16285	0.00103
3278.23448	0.00114
3276.30610	0.00109
3274.37773	0.00106
3272.44936	0.00100
3270.52098	0.00084
3268.59261	0.00075
3266.66424	0.00083
3264.73586	0.00086
3262.80749	0.00073
3260.87912	0.00057
3258.95074	0.00059
3257.02237	0.00074
3255.09400	0.00084
3253.16562	0.00082
3251.23725	0.00091
3249.30888	0.00114
3247.38050	0.00118
3245.45213	0.00093
3243.52376	0.00072
3241.59538	0.00074
3239.66701	0.00088
3237.73864	0.00087
3235.81026	0.00066
3233.88189	0.00058
3231.95352	0.00070
3230.02515	0.00074
3228.09677	0.00068
3226.16840	0.00060
3224.24003	0.00062
3222.31165	0.00080
3220.38328	0.00104
3218.45491	0.00102
3216.52653	0.00088
3214.59816	0.00088
3212.66979	0.00092
3210.74141	0.00078
3208.81304	0.00060
3206.88467	0.00064
3204.95629	0.00084
3203.02792	0.00080
3201.09955	0.00050
3199.17117	0.00041
3197.24280	0.00045
3195.31443	0.00060
3193.38605	0.00072
3191.45768	0.00070
3189.52931	0.00059
3187.60093	0.00048
3185.67256	0.00044
3183.74419	0.00060
3181.81581	0.00074
3179.88744	0.00070
3177.95907	0.00079
3176.03070	0.00095
3174.10232	0.00086
3172.17395	0.00063
3170.24558	0.00046
3168.31720	0.00045
3166.38883	0.00064
3164.46046	0.00078
3162.53208	0.00072
3160.60371	0.00064
3158.67534	0.00054
3156.74696	0.00051
3154.81859	0.00054
3152.89022	0.00035
3150.96184	0.00028
3149.03347	0.00033
3147.10510	0.00034
3145.17672	0.00039
3143.24835	0.00054
3141.31998	0.00055
3139.39160	0.00043
3137.46323	0.00051
3135.53486	0.00059
3133.60648	0.00059
3131.67811	0.00058
3129.74974	0.00063
3127.82136	0.00057
3125.89299	0.00053
3123.96462	0.00062
3122.03624	0.00067
3120.10787	0.00054
3118.17950	0.00038
3116.25113	0.00029
3114.32275	0.00031
3112.39438	0.00031
3110.46601	0.00032
3108.53763	0.00044
3106.60926	0.00051
3104.68089	0.00046
3102.75251	0.00046
3100.82414	0.00051
3098.89577	0.00057
3096.96739	0.00058
3095.03902	0.00062
3093.11065	0.00078
3091.18227	0.00089
3089.25390	0.00089
3087.32553	0.00093
3085.39715	0.00088
3083.46878	0.00083
3081.54041	0.00094
3079.61203	0.00111
3077.68366	0.00130
3075.75529	0.00150
3073.82691	0.00165
3071.89854	0.00169
3069.97017	0.00171
3068.04179	0.00184
3066.11342	0.00195
3064.18505	0.00192
3062.25668	0.00204
3060.32830	0.00246
3058.39993	0.00297
3056.47156	0.00342
3054.54318	0.00377
3052.61481	0.00403
3050.68644	0.00430
3048.75806	0.00469
3046.82969	0.00514
3044.90132	0.00554
3042.97294	0.00587
3041.04457	0.00603
3039.11620	0.00617
3037.18782	0.00650
3035.25945	0.00696
3033.33108	0.00738
3031.40270	0.00768
3029.47433	0.00789
3027.54596	0.00822
3025.61758	0.00868
3023.68921	0.00908
3021.76084	0.00940
3019.83246	0.00966
3017.90409	0.00982
3015.97572	0.00999
3014.04734	0.01023
3012.11897	0.01039
3010.19060	0.01030
3008.26222	0.01000
3006.33385	0.00959
3004.40548	0.00928
3002.47711	0.00909
3000.54873	0.00889
2998.62036	0.00859
2996.69199	0.00816
2994.76361	0.00760
2992.83524	0.00696
2990.90687	0.00624
2988.97849	0.00541
2987.05012	0.00464
2985.12175	0.00416
2983.19337	0.00371
2981.26500	0.00294
2979.33663	0.00220
2977.40825	0.00169
2975.47988	0.00123
2973.55151	0.00093
2971.62313	0.00078
2969.69476	0.00049
2967.76639	0.00036
2965.83801	0.00064
2963.90964	0.00099
2961.98127	0.00122
2960.05289	0.00138
2958.12452	0.00145
2956.19615	0.00139
2954.26777	0.00152
2952.33940	0.00173
2950.41103	0.00172
2948.48266	0.00161
2946.55428	0.00152
2944.62591	0.00127
2942.69754	0.00095
2940.76916	0.00080
2938.84079	0.00085
2936.91242	0.00101
2934.98404	0.00126
2933.05567	0.00153
2931.12730	0.00161
2929.19892	0.00143
2927.27055	0.00114
2925.34218	0.00073
2923.41380	0.00044
2921.48543	0.00054
2919.55706	0.00069
2917.62868	0.00091
2915.70031	0.00084
2913.77194	0.00075
2911.84356	0.00090
2909.91519	0.00147
2907.98682	0.00201
2906.05844	0.00213
2904.13007	0.00204
2902.20170	0.00218
2900.27332	0.00243
2898.34495	0.00246
2896.41658	0.00222
2894.48820	0.00185
2892.55983	0.00153
2890.63146	0.00150
2888.70309	0.00183
2886.77471	0.00221
2884.84634	0.00236
2882.91797	0.00236
2880.98959	0.00229
2879.06122	0.00214
2877.13285	0.00200
2875.20447	0.00186
2873.27610	0.00178
2871.34773	0.00204
2869.41935	0.00263
2867.49098	0.00326
2865.56261	0.00393
2863.63423	0.00476
2861.70586	0.00561
2859.77749	0.00617
2857.84911	0.00643
2855.92074	0.00682
2853.99237	0.00761
2852.06399	0.00861
2850.13562	0.00964
2848.20725	0.01099
2846.27887	0.01289
2844.35050	0.01514
2842.42213	0.01730
2840.49375	0.01907
2838.56538	0.02043
2836.63701	0.02164
2834.70863	0.02293
2832.78026	0.02434
2830.85189	0.02572
2828.92352	0.02695
2826.99514	0.02806
2825.06677	0.02915
2823.13840	0.03027
2821.21002	0.03141
2819.28165	0.03266
2817.35328	0.03406
2815.42490	0.03556
2813.49653	0.03711
2811.56816	0.03866
2809.63978	0.04023
2807.71141	0.04178
2805.78304	0.04319
2803.85466	0.04457
2801.92629	0.04613
2799.99792	0.04782
2798.06954	0.04950
2796.14117	0.05114
2794.21280	0.05266
2792.28442	0.05399
2790.35605	0.05524
2788.42768	0.05658
2786.49930	0.05790
2784.57093	0.05915
2782.64256	0.06034
2780.71418	0.06141
2778.78581	0.06231
2776.85744	0.06314
2774.92907	0.06409
2773.00069	0.06517
2771.07232	0.06614
2769.14395	0.06697
2767.21557	0.06791
2765.28720	0.06902
2763.35883	0.07014
2761.43045	0.07124
2759.50208	0.07245
2757.57371	0.07376
2755.64533	0.07502
2753.71696	0.07620
2751.78859	0.07738
2749.86021	0.07849
2747.93184	0.07957
2746.00347	0.08074
2744.07509	0.08183
2742.14672	0.08258
2740.21835	0.08320
2738.28997	0.08394
2736.36160	0.08481
2734.43323	0.08570
2732.50485	0.08654
2730.57648	0.08730
2728.64811	0.08807
2726.71973	0.08890
2724.79136	0.08980
2722.86299	0.09085
2720.93461	0.09206
2719.00624	0.09325
2717.07787	0.09437
2715.14950	0.09558
2713.22112	0.09695
2711.29275	0.09835
2709.36438	0.09974
2707.43600	0.10112
2705.50763	0.10256
2703.57926	0.10401
2701.65088	0.10542
2699.72251	0.10679
2697.79414	0.10820
2695.86576	0.10965
2693.93739	0.11110
2692.00902	0.11245
2690.08064	0.11375
2688.15227	0.11517
2686.22390	0.11670
2684.29552	0.11819
2682.36715	0.11969
2680.43878	0.12127
2678.51040	0.12290
2676.58203	0.12456
2674.65366	0.12621
2672.72528	0.12774
2670.79691	0.12920
2668.86854	0.13065
2666.94016	0.13202
2665.01179	0.13330
2663.08342	0.13457
2661.15505	0.13578
2659.22667	0.13692
2657.29830	0.13801
2655.36993	0.13903
2653.44155	0.14001
2651.51318	0.14091
2649.58481	0.14177
2647.65643	0.14264
2645.72806	0.14348
2643.79969	0.14437
2641.87131	0.14543
2639.94294	0.14649
2638.01457	0.14745
2636.08619	0.14839
2634.15782	0.14931
2632.22945	0.15017
2630.30107	0.15105
2628.37270	0.15212
2626.44433	0.15335
2624.51595	0.15461
2622.58758	0.15582
2620.65921	0.15699
2618.73083	0.15818
2616.80246	0.15943
2614.87409	0.16080
2612.94571	0.16225
2611.01734	0.16363
2609.08897	0.16489
2607.16059	0.16605
2605.23222	0.16708
2603.30385	0.16814
2601.37548	0.16930
2599.44710	0.17031
2597.51873	0.17109
2595.59036	0.17182
2593.66198	0.17257
2591.73361	0.17329
2589.80524	0.17400
2587.87686	0.17477
2585.94849	0.17554
2584.02012	0.17627
2582.09174	0.17704
2580.16337	0.17800
2578.23500	0.17913
2576.30662	0.18035
2574.37825	0.18165
2572.44988	0.18309
2570.52150	0.18466
2568.59313	0.18640
2566.66476	0.18825
2564.73638	0.19016
2562.80801	0.19223
2560.87964	0.19444
2558.95126	0.19665
2557.02289	0.19883
2555.09452	0.20099
2553.16614	0.20299
2551.23777	0.20480
2549.30940	0.20651
2547.38103	0.20814
2545.45265	0.20959
2543.52428	0.21082
2541.59591	0.21189
2539.66753	0.21293
2537.73916	0.21399
2535.81079	0.21503
2533.88241	0.21608
2531.95404	0.21713
2530.02567	0.21811
2528.09729	0.21912
2526.16892	0.22030
2524.24055	0.22157
2522.31217	0.22287
2520.38380	0.22428
2518.45543	0.22586
2516.52705	0.22749
2514.59868	0.22900
2512.67031	0.23043
2510.74193	0.23181
2508.81356	0.23317
2506.88519	0.23463
2504.95681	0.23617
2503.02844	0.23766
2501.10007	0.23919
2499.17169	0.24084
2497.24332	0.24257
2495.31495	0.24434
2493.38657	0.24607
2491.45820	0.24777
2489.52983	0.24956
2487.60146	0.25146
2485.67308	0.25334
2483.74471	0.25512
2481.81634	0.25685
2479.88796	0.25862
2477.95959	0.26037
2476.03122	0.26203
2474.10284	0.26366
2472.17447	0.26527
2470.24610	0.26690
2468.31772	0.26870
2466.38935	0.27065
2464.46098	0.27252
2462.53260	0.27428
2460.60423	0.27602
2458.67586	0.27772
2456.74748	0.27939
2454.81911	0.28109
2452.89074	0.28272
2450.96236	0.28420
2449.03399	0.28572
2447.10562	0.28736
2445.17724	0.28904
2443.24887	0.29069
2441.32050	0.29239
2439.39212	0.29410
2437.46375	0.29572
2435.53538	0.29743
2433.60700	0.29935
2431.67863	0.30130
2429.75026	0.30310
2427.82189	0.30470
2425.89351	0.30618
2423.96514	0.30762
2422.03677	0.30898
2420.10839	0.31022
2418.18002	0.31141
2416.25165	0.31269
2414.32327	0.31413
2412.39490	0.31567
2410.46653	0.31717
2408.53815	0.31867
2406.60978	0.32035
2404.68141	0.32218
2402.75303	0.32396
2400.82466	0.32575
2398.89629	0.32764
2396.96791	0.32962
2395.03954	0.33158
2393.11117	0.33342
2391.18279	0.33509
2389.25442	0.33662
2387.32605	0.33797
2385.39767	0.33904
2383.46930	0.33974
2381.54093	0.34017
2379.61255	0.34061
2377.68418	0.34120
2375.75581	0.34177
2373.82744	0.34215
2371.89906	0.34240
2369.97069	0.34277
2368.04232	0.34342
2366.11394	0.34413
2364.18557	0.34479
2362.25720	0.34563
2360.32882	0.34673
2358.40045	0.34792
2356.47208	0.34896
2354.54370	0.35009
2352.61533	0.35167
2350.68696	0.35329
2348.75858	0.35430
2346.83021	0.35444
2344.90184	0.35420
2342.97346	0.35466
2341.04509	0.35562
2339.11672	0.35643
2337.18834	0.35733
2335.25997	0.35837
2333.33160	0.35910
2331.40322	0.35947
2329.47485	0.35985
2327.54648	0.36046
2325.61810	0.36131
2323.68973	0.36247
2321.76136	0.36404
2319.83298	0.36593
2317.90461	0.36795
2315.97624	0.36994
2314.04787	0.37194
2312.11949	0.37405
2310.19112	0.37628
2308.26275	0.37849
2306.33437	0.38072
2304.40600	0.38289
2302.47763	0.38477
2300.54925	0.38637
2298.62088	0.38792
2296.69251	0.38931
2294.76413	0.39049
2292.83576	0.39170
2290.90739	0.39289
2288.97901	0.39380
2287.05064	0.39454
2285.12227	0.39526
2283.19389	0.39583
2281.26552	0.39617
2279.33715	0.39632
2277.40877	0.39635
2275.48040	0.39642
2273.55203	0.39661
2271.62365	0.39675
2269.69528	0.39671
2267.76691	0.39666
2265.83853	0.39673
2263.91016	0.39684
2261.98179	0.39706
2260.05342	0.39756
2258.12504	0.39831
2256.19667	0.39912
2254.26830	0.39993
2252.33992	0.40085
2250.41155	0.40187
2248.48318	0.40297
2246.55480	0.40411
2244.62643	0.40517
2242.69806	0.40612
2240.76968	0.40696
2238.84131	0.40776
2236.91294	0.40847
2234.98456	0.40902
2233.05619	0.40942
2231.12782	0.40977
2229.19944	0.41012
2227.27107	0.41038
2225.34270	0.41045
2223.41432	0.41041
2221.48595	0.41043
2219.55758	0.41046
2217.62920	0.41034
2215.70083	0.41009
2213.77246	0.40983
2211.84408	0.40958
2209.91571	0.40923
2207.98734	0.40870
2206.05896	0.40817
2204.13059	0.40775
2202.20222	0.40735
2200.27385	0.40690
2198.34547	0.40639
2196.41710	0.40588
2194.48873	0.40540
2192.56035	0.40493
2190.63198	0.40446
2188.70361	0.40399
2186.77523	0.40360
2184.84686	0.40329
2182.91849	0.40307
2180.99011	0.40293
2179.06174	0.40275
2177.13337	0.40248
2175.20499	0.40215
2173.27662	0.40177
2171.34825	0.40144
2169.41987	0.40128
2167.49150	0.40118
2165.56313	0.40102
2163.63475	0.40083
2161.70638	0.40069
2159.77801	0.40066
2157.84963	0.40080
2155.92126	0.40109
2153.99289	0.40145
2152.06451	0.40181
2150.13614	0.40216
2148.20777	0.40249
2146.27940	0.40283
2144.35102	0.40327
2142.42265	0.40387
2140.49428	0.40440
2138.56590	0.40463
2136.63753	0.40473
2134.70916	0.40496
2132.78078	0.40529
2130.85241	0.40563
2128.92404	0.40603
2126.99566	0.40661
2125.06729	0.40739
2123.13892	0.40830
2121.21054	0.40935
2119.28217	0.41052
2117.35380	0.41164
2115.42542	0.41274
2113.49705	0.41393
2111.56868	0.41514
2109.64030	0.41625
2107.71193	0.41726
2105.78356	0.41818
2103.85518	0.41902
2101.92681	0.41976
2099.99844	0.42043
2098.07006	0.42108
2096.14169	0.42166
2094.21332	0.42212
2092.28494	0.42239
2090.35657	0.42254
2088.42820	0.42278
2086.49983	0.42305
2084.57145	0.42322
2082.64308	0.42333
2080.71471	0.42345
2078.78633	0.42361
2076.85796	0.42384
2074.92959	0.42417
2073.00121	0.42455
2071.07284	0.42497
2069.14447	0.42540
2067.21609	0.42579
2065.28772	0.42632
2063.35935	0.42748
2061.43097	0.42915
2059.50260	0.43091
2057.57423	0.43267
2055.64585	0.43444
2053.71748	0.43628
2051.78911	0.43816
2049.86073	0.43994
2047.93236	0.44158
2046.00399	0.44310
2044.07561	0.44443
2042.14724	0.44567
2040.21887	0.44717
2038.29049	0.44880
2036.36212	0.45016
2034.43375	0.45131
2032.50538	0.45240
2030.57700	0.45345
2028.64863	0.45430
2026.72026	0.45495
2024.79188	0.45554
2022.86351	0.45615
2020.93514	0.45659
2019.00676	0.45674
2017.07839	0.45728
2015.15002	0.45879
2013.22164	0.46062
2011.29327	0.46209
2009.36490	0.46335
2007.43652	0.46460
2005.50815	0.46589
2003.57978	0.46721
2001.65140	0.46846
1999.72303	0.46952
1997.79466	0.47045
1995.86628	0.47096
1993.93791	0.47053
1992.00954	0.47020
1990.08116	0.47128
1988.15279	0.47297
1986.22442	0.47428
1984.29604	0.47519
1982.36767	0.47578
1980.43930	0.47619
1978.51092	0.47660
1976.58255	0.47708
1974.65418	0.47765
1972.72581	0.47825
1970.79743	0.47845
1968.86906	0.47790
1966.94069	0.47780
1965.01231	0.47926
1963.08394	0.48112
1961.15557	0.48235
1959.22719	0.48330
1957.29882	0.48424
1955.37045	0.48532
1953.44207	0.48678
1951.51370	0.48840
1949.58533	0.48975
1947.65695	0.49054
1945.72858	0.49040
1943.80021	0.48968
1941.87183	0.49073
1939.94346	0.49421
1938.01509	0.49733
1936.08671	0.49885
1934.15834	0.49965
1932.22997	0.50043
1930.30159	0.50128
1928.37322	0.50187
1926.44485	0.50152
1924.51647	0.49997
1922.58810	0.49888
1920.65973	0.49888
1918.73135	0.49880
1916.80298	0.50013
1914.87461	0.50303
1912.94624	0.50441
1911.01786	0.50370
1909.08949	0.50312
1907.16112	0.50398
1905.23274	0.50519
1903.30437	0.50566
1901.37600	0.50559
1899.44762	0.50505
1897.51925	0.50368
1895.59088	0.50210
1893.66250	0.50125
1891.73413	0.49979
1889.80576	0.49793
1887.87738	0.49853
1885.94901	0.50055
1884.02064	0.50171
1882.09226	0.50230
1880.16389	0.50269
1878.23552	0.50297
1876.30714	0.50330
1874.37877	0.50329
1872.45040	0.50122
1870.52202	0.49603
1868.59365	0.49208
1866.66528	0.49470
1864.73690	0.49993
1862.80853	0.50250
1860.88016	0.50268
1858.95179	0.50227
1857.02341	0.50194
1855.09504	0.50149
1853.16667	0.50074
1851.23829	0.49930
1849.30992	0.49645
1847.38155	0.49174
1845.45317	0.48622
1843.52480	0.48477
1841.59643	0.48861
1839.66805	0.49129
1837.73968	0.49076
1835.81131	0.48970
1833.88293	0.48794
1831.95456	0.48277
1830.02619	0.47670
1828.09781	0.47482
1826.16944	0.47491
1824.24107	0.47510
1822.31269	0.47647
1820.38432	0.47664
1818.45595	0.47433
1816.52757	0.47129
1814.59920	0.46767
1812.67083	0.46240
1810.74245	0.45699
1808.81408	0.45401
1806.88571	0.45198
1804.95733	0.44784
1803.02896	0.44071
1801.10059	0.43282
1799.17222	0.42745
1797.24384	0.42339
1795.31547	0.41679
1793.38710	0.40682
1791.45872	0.39884
1789.53035	0.39640
1787.60198	0.39351
1785.67360	0.38669
1783.74523	0.37811
1781.81686	0.36942
1779.88848	0.36123
1777.96011	0.35387
1776.03174	0.34505
1774.10336	0.33263
1772.17499	0.31951
1770.24662	0.31162
1768.31824	0.30705
1766.38987	0.30133
1764.46150	0.29288
1762.53312	0.28091
1760.60475	0.26799
1758.67638	0.25582
1756.74800	0.24179
1754.81963	0.22640
1752.89126	0.20882
1750.96288	0.18622
1749.03451	0.16216
1747.10614	0.14105
1745.17777	0.12097
1743.24939	0.10052
1741.32102	0.08033
1739.39265	0.06134
1737.46427	0.04656
1735.53590	0.03496
1733.60753	0.02342
1731.67915	0.01515
1729.75078	0.01049
1727.82241	0.00701
1725.89403	0.00440
1723.96566	0.00264
1722.03729	0.00148
1720.10891	0.00077
1718.18054	0.00051
1716.25217	0.00052
1714.32379	0.00038
1712.39542	0.00031
1710.46705	0.00040
1708.53867	0.00050
1706.61030	0.00056
1704.68193	0.00066
1702.75355	0.00097
1700.82518	0.00120
1698.89681	0.00109
1696.96843	0.00087
1695.04006	0.00086
1693.11169	0.00085
1691.18331	0.00084
1689.25494	0.00087
1687.32657	0.00091
1685.39820	0.00106
1683.46982	0.00101
1681.54145	0.00071
1679.61308	0.00051
1677.68470	0.00056
1675.75633	0.00074
1673.82796	0.00084
1671.89958	0.00088
1669.97121	0.00085
1668.04284	0.00068
1666.11446	0.00058
1664.18609	0.00063
1662.25772	0.00066
1660.32934	0.00060
1658.40097	0.00054
1656.47260	0.00051
1654.54422	0.00046
1652.61585	0.00052
1650.68748	0.00058
1648.75910	0.00053
1646.83073	0.00040
1644.90236	0.00037
1642.97398	0.00048
1641.04561	0.00062
1639.11724	0.00062
1637.18886	0.00059
1635.26049	0.00065
1633.33212	0.00067
1631.40375	0.00060
1629.47537	0.00051
1627.54700	0.00051
1625.61863	0.00058
1623.69025	0.00054
1621.76188	0.00044
1619.83351	0.00050
1617.90513	0.00067
1615.97676	0.00073
1614.04839	0.00065
1612.12001	0.00052
1610.19164	0.00049
1608.26327	0.00061
1606.33489	0.00069
1604.40652	0.00058
1602.47815	0.00042
1600.54977	0.00046
1598.62140	0.00054
1596.69303	0.00056
1594.76465	0.00052
1592.83628	0.00041
1590.90791	0.00036
1588.97953	0.00035
1587.05116	0.00037
1585.12279	0.00039
1583.19441	0.00037
1581.26604	0.00032
1579.33767	0.00044
1577.40929	0.00061
1575.48092	0.00060
1573.55255	0.00056
1571.62418	0.00059
1569.69580	0.00057
1567.76743	0.00047
1565.83906	0.00031
1563.91068	0.00037
1561.98231	0.00055
1560.05394	0.00080
1558.12556	0.00095
1556.19719	0.00080
1554.26882	0.00063
1552.34044	0.00056
1550.41207	0.00055
1548.48370	0.00053
1546.55532	0.00049
1544.62695	0.00048
1542.69858	0.00051
1540.77020	0.00060
1538.84183	0.00045
1536.91346	0.00034
1534.98508	0.00032
1533.05671	0.00032
1531.12834	0.00040
1529.19996	0.00042
1527.27159	0.00047
1525.34322	0.00045
1523.41484	0.00040
1521.48647	0.00043
1519.55810	0.00045
1517.62972	0.00044
1515.70135	0.00035
1513.77298	0.00031
1511.84461	0.00031
1509.91623	0.00037
1507.98786	0.00045
1506.05949	0.00035
1504.13111	0.00031
1502.20274	0.00031
1500.27437	0.00053
1498.34599	0.00083
1496.41762	0.00122
1494.48925	0.00166
1492.56087	0.00199
1490.63250	0.00221
1488.70413	0.00251
1486.77575	0.00283
1484.84738	0.00302
1482.91901	0.00310
1480.99063	0.00307
1479.06226	0.00285
1477.13389	0.00248
1475.20551	0.00199
1473.27714	0.00137
1471.34877	0.00079
1469.42039	0.00043
1467.49202	0.00024
1465.56365	0.00010
1463.63527	0.00032
1461.70690	0.00052
1459.77853	0.00066
1457.85016	0.00082
1455.92178	0.00081
1453.99341	0.00057
1452.06504	0.00038
1450.13666	0.00034
1448.20829	0.00042
1446.27992	0.00040
1444.35154	0.00038
1442.42317	0.00043
1440.49480	0.00048
1438.56642	0.00059
1436.63805	0.00064
1434.70968	0.00059
1432.78130	0.00060
1430.85293	0.00077
1428.92456	0.00076
1426.99618	0.00067
1425.06781	0.00064
1423.13944	0.00060
1421.21106	0.00057
1419.28269	0.00055
1417.35432	0.00053
1415.42594	0.00053
1413.49757	0.00053
1411.56920	0.00053
1409.64082	0.00066
1407.71245	0.00074
1405.78408	0.00067
1403.85570	0.00049
1401.92733	0.00039
1399.99896	0.00042
1398.07059	0.00044
1396.14221	0.00038
1394.21384	0.00029
1392.28547	0.00024
1390.35709	0.00034
1388.42872	0.00032
1386.50035	0.00020
1384.57197	0.00032
1382.64360	0.00046
1380.71523	0.00063
1378.78685	0.00065
1376.85848	0.00058
1374.93011	0.00050
1373.00173	0.00034
1371.07336	0.00022
1369.14499	0.00018
1367.21661	0.00022
1365.28824	0.00039
1363.35987	0.00053
1361.43149	0.00062
1359.50312	0.00074
1357.57475	0.00103
1355.64637	0.00135
1353.71800	0.00151
1351.78963	0.00158
1349.86125	0.00160
1347.93288	0.00153
1346.00451	0.00137
1344.07614	0.00122
1342.14776	0.00113
1340.21939	0.00102
1338.29102	0.00083
1336.36264	0.00059
1334.43427	0.00043
1332.50590	0.00029
1330.57752	0.00031
1328.64915	0.00028
1326.72078	0.00029
1324.79240	0.00034
1322.86403	0.00034
1320.93566	0.00037
1319.00728	0.00050
1317.07891	0.00056
1315.15054	0.00049
1313.22216	0.00032
1311.29379	0.00024
1309.36542	0.00030
1307.43704	0.00045
1305.50867	0.00053
1303.58030	0.00049
1301.65192	0.00044
1299.72355	0.00054
1297.79518	0.00080
1295.86680	0.00089
1293.93843	0.00066
1292.01006	0.00044
1290.08168	0.00042
1288.15331	0.00033
1286.22494	0.00039
1284.29657	0.00049
1282.36819	0.00040
1280.43982	0.00049
1278.51145	0.00061
1276.58307	0.00056
1274.65470	0.00063
1272.72633	0.00077
1270.79795	0.00082
1268.86958	0.00077
1266.94121	0.00073
1265.01283	0.00064
1263.08446	0.00055
1261.15609	0.00061
1259.22771	0.00068
1257.29934	0.00056
1255.37097	0.00042
1253.44259	0.00045
1251.51422	0.00062
1249.58585	0.00082
1247.65747	0.00104
1245.72910	0.00120
1243.80073	0.00121
1241.87235	0.00112
1239.94398	0.00107
1238.01561	0.00108
1236.08723	0.00127
1234.15886	0.00153
1232.23049	0.00163
1230.30212	0.00151
1228.37374	0.00140
1226.44537	0.00144
1224.51700	0.00153
1222.58862	0.00156
1220.66025	0.00172
1218.73188	0.00210
1216.80350	0.00245
1214.87513	0.00248
1212.94676	0.00222
1211.01838	0.00192
1209.09001	0.00173
1207.16164	0.00157
1205.23326	0.00125
1203.30489	0.00099
1201.37652	0.00109
1199.44814	0.00154
1197.51977	0.00219
1195.59140	0.00272
1193.66302	0.00295
1191.73465	0.00302
1189.80628	0.00286
1187.87790	0.00217
1185.94953	0.00121
1184.02116	0.00067
1182.09278	0.00080
1180.16441	0.00101
1178.23604	0.00093
1176.30766	0.00076
1174.37929	0.00067
1172.45092	0.00058
1170.52255	0.00067
1168.59417	0.00084
1166.66580	0.00082
1164.73743	0.00064
1162.80905	0.00060
1160.88068	0.00075
1158.95231	0.00106
1157.02393	0.00125
1155.09556	0.00117
1153.16719	0.00100
1151.23881	0.00082
1149.31044	0.00064
1147.38207	0.00067
1145.45369	0.00090
1143.52532	0.00094
1141.59695	0.00083
1139.66857	0.00060
1137.74020	0.00048
1135.81183	0.00075
1133.88345	0.00118
1131.95508	0.00134
1130.02671	0.00129
1128.09833	0.00150
1126.16996	0.00178
1124.24159	0.00167
1122.31321	0.00125
1120.38484	0.00071
1118.45647	0.00061
1116.52809	0.00078
1114.59972	0.00100
1112.67135	0.00115
1110.74298	0.00113
1108.81460	0.00121
1106.88623	0.00120
1104.95786	0.00086
1103.02948	0.00070
1101.10111	0.00085
1099.17274	0.00093
1097.24436	0.00100
1095.31599	0.00095
1093.38762	0.00097
1091.45924	0.00119
1089.53087	0.00134
1087.60250	0.00128
1085.67412	0.00121
1083.74575	0.00133
1081.81738	0.00140
1079.88900	0.00115
1077.96063	0.00073
1076.03226	0.00054
1074.10388	0.00050
1072.17551	0.00045
1070.24714	0.00063
1068.31876	0.00076
1066.39039	0.00081
1064.46202	0.00103
1062.53364	0.00133
1060.60527	0.00152
1058.67690	0.00154
1056.74853	0.00116
1054.82015	0.00067
1052.89178	0.00057
1050.96341	0.00060
1049.03503	0.00071
1047.10666	0.00087
1045.17829	0.00084
1043.24991	0.00085
1041.32154	0.00082
1039.39317	0.00087
1037.46479	0.00118
1035.53642	0.00162
1033.60805	0.00180
1031.67967	0.00147
1029.75130	0.00092
1027.82293	0.00071
1025.89455	0.00088
1023.96618	0.00120
1022.03781	0.00139
1020.10943	0.00131
1018.18106	0.00102
1016.25269	0.00066
1014.32431	0.00042
1012.39594	0.00040
1010.46757	0.00060
1008.53919	0.00069
1006.61082	0.00059
1004.68245	0.00043
1002.75407	0.00063
1000.82570	0.00118
998.89733	0.00141
996.96896	0.00159
995.04058	0.00223
993.11221	0.00330
991.18384	0.00452
989.25546	0.00589
987.32709	0.00752
985.39872	0.00922
983.47034	0.01055
981.54197	0.01124
979.61360	0.01136
977.68522	0.01142
975.75685	0.01215
973.82848	0.01414
971.90010	0.01764
969.97173	0.02267
968.04336	0.02871
966.11498	0.03431
964.18661	0.03741
962.25824	0.03622
960.32986	0.03017
958.40149	0.02125
956.47312	0.01372
954.54474	0.01040
952.61637	0.01073
950.68800	0.01299
948.75962	0.01595
946.83125	0.01882
944.90288	0.02155
942.97451	0.02483
941.04613	0.02952
939.11776	0.03612
937.18939	0.04405
935.26101	0.05192
933.33264	0.05867
931.40427	0.06372
929.47589	0.06675
927.54752	0.06783
925.61915	0.06748
923.69077	0.06655
921.76240	0.06624
919.83403	0.06789
917.90565	0.07198
915.97728	0.07720
914.04891	0.08150
912.12053	0.08344
910.19216	0.08226
908.26379	0.07790
906.33541	0.07114
904.40704	0.06358
902.47867	0.05697
900.55029	0.05253
898.62192	0.05083
896.69355	0.05166
894.76517	0.05431
892.83680	0.05840
890.90843	0.06361
888.98005	0.06839
887.05168	0.07052
885.12331	0.07031
883.19494	0.07198
881.26656	0.07881
879.33819	0.08843
877.40982	0.09595
875.48144	0.09940
873.55307	0.09994
871.62470	0.09938
869.69632	0.09891
867.76795	0.09859
865.83958	0.09771
863.91120	0.09596
861.98283	0.09367
860.05446	0.09113
858.12608	0.08858
856.19771	0.08618
854.26934	0.08388
852.34096	0.08205
850.41259	0.08113
848.48422	0.08107
846.55584	0.08170
844.62747	0.08262
842.69910	0.08319
840.77072	0.08338
838.84235	0.08345
836.91398	0.08343
834.98560	0.08342
833.05723	0.08344
831.12886	0.08287
829.20049	0.08116
827.27211	0.07858
825.34374	0.07584
823.41537	0.07398
821.48699	0.07339
819.55862	0.07294
817.63025	0.07181
815.70187	0.07049
813.77350	0.06917
811.84513	0.06746
809.91675	0.06526
807.98838	0.06271
806.06001	0.06006
804.13163	0.05786
802.20326	0.05618
800.27489	0.05423
798.34651	0.05155
796.41814	0.04842
794.48977	0.04484
792.56139	0.04068
790.63302	0.03626
788.70465	0.03201
786.77627	0.02803
784.84790	0.02409
782.91953	0.02035
780.99115	0.01736
779.06278	0.01491
777.13441	0.01241
775.20603	0.00995
773.27766	0.00786
771.34929	0.00616
769.42092	0.00479
767.49254	0.00390
765.56417	0.00346
763.63580	0.00299
761.70742	0.00241
759.77905	0.00219
757.85068	0.00216
755.92230	0.00215
753.99393	0.00216
752.06556	0.00226
750.13718	0.00224
748.20881	0.00225
746.28044	0.00272
744.35206	0.00363
742.42369	0.00462
740.49532	0.00585
738.56694	0.00745
736.63857	0.00904
734.71020	0.01011
732.78182	0.01063
730.85345	0.01071
728.92508	0.01045
726.99670	0.01017
725.06833	0.00985
723.13996	0.00917
721.21158	0.00832
719.28321	0.00775
717.35484	0.00737
715.42647	0.00697
713.49809	0.00672
711.56972	0.00654
709.64135	0.00626
707.71297	0.00569
705.78460	0.00503
703.85623	0.00516
701.92785	0.00589
699.99948	0.00638
698.07111	0.00650
696.14273	0.00627
694.21436	0.00579
692.28599	0.00562
690.35761	0.00598
688.42924	0.00642
686.50087	0.00696
684.57249	0.00779
682.64412	0.00834
680.71575	0.00853
678.78737	0.00850
676.85900	0.00814
674.93063	0.00765
673.00225	0.00746
671.07388	0.00725
669.14551	0.00702
667.21713	0.00733
665.28876	0.00732
663.36039	0.00679
661.43201	0.00670
659.50364	0.00667
657.57527	0.00584
655.64690	0.00527
653.71852	0.00445
651.79015	0.00399
649.86178	0.00434
647.93340	0.00521
646.00503	0.00625
644.07666	0.00629
642.14828	0.00429
640.21991	0.00276
638.29154	0.00302
636.36316	0.00366
634.43479	0.00356
632.50642	0.00295
630.57804	0.00335
628.64967	0.00440
626.72130	0.00484
624.79292	0.00476
622.86455	0.00488
620.93618	0.00490
619.00780	0.00377
617.07943	0.00352
615.15106	0.00395
613.22268	0.00463
611.29431	0.00586
609.36594	0.00601
607.43756	0.00585
605.50919	0.00711
603.58082	0.00752
601.65244	0.00669
599.72407	0.00638
