3997.51769	0.45162
3995.58931	0.45199
3993.66094	0.45275
3991.73257	0.45372
3989.80419	0.45505
3987.87582	0.45682
3985.94745	0.45863
3984.01907	0.46014
3982.09070	0.46145
3980.16233	0.46275
3978.23396	0.46393
3976.30558	0.46463
3974.37721	0.46497
3972.44884	0.46554
3970.52046	0.46665
3968.59209	0.46825
3966.66372	0.46991
3964.73534	0.47105
3962.80697	0.47152
3960.87860	0.47207
3958.95022	0.47316
3957.02185	0.47441
3955.09348	0.47561
3953.16510	0.47623
3951.23673	0.47552
3949.30836	0.47444
3947.37998	0.47503
3945.45161	0.47645
3943.52324	0.47690
3941.59486	0.47813
3939.66649	0.48099
3937.73812	0.48323
3935.80974	0.48342
3933.88137	0.48173
3931.95300	0.48033
3930.02462	0.48164
3928.09625	0.48399
3926.16788	0.48442
3924.23950	0.48403
3922.31113	0.48506
3920.38276	0.48590
3918.45439	0.48565
3916.52601	0.48703
3914.59764	0.49105
3912.66927	0.49479
3910.74089	0.49637
3908.81252	0.49581
3906.88415	0.49220
3904.95577	0.48621
3903.02740	0.48232
3901.09903	0.48328
3899.17065	0.48828
3897.24228	0.49532
3895.31391	0.49958
3893.38553	0.49869
3891.45716	0.49729
3889.52879	0.49959
3887.60041	0.50064
3885.67204	0.49874
3883.74367	0.49818
3881.81529	0.49837
3879.88692	0.50018
3877.95855	0.50508
3876.03017	0.50655
3874.10180	0.50348
3872.17343	0.50046
3870.24505	0.49931
3868.31668	0.50168
3866.38831	0.50413
3864.45994	0.50390
3862.53156	0.50624
3860.60319	0.51171
3858.67482	0.51388
3856.74644	0.51037
3854.81807	0.50261
3852.88970	0.49805
3850.96132	0.50569
3849.03295	0.51565
3847.10458	0.52044
3845.17620	0.51931
3843.24783	0.51457
3841.31946	0.50912
3839.39108	0.50515
3837.46271	0.50573
3835.53434	0.51046
3833.60596	0.51480
3831.67759	0.51812
3829.74922	0.52097
3827.82084	0.52196
3825.89247	0.52145
3823.96410	0.51909
3822.03572	0.51283
3820.10735	0.50955
3818.17898	0.51336
3816.25060	0.51770
3814.32223	0.52371
3812.39386	0.53019
3810.46548	0.53177
3808.53711	0.52762
3806.60874	0.52266
3804.68037	0.52027
3802.75199	0.51659
3800.82362	0.51473
3798.89525	0.51862
3796.96687	0.52285
3795.03850	0.52748
3793.11013	0.53256
3791.18175	0.53520
3789.25338	0.53559
3787.32501	0.53423
3785.39663	0.53189
3783.46826	0.53092
3781.53989	0.52975
3779.61151	0.52746
3777.68314	0.52879
3775.75477	0.53291
3773.82639	0.53395
3771.89802	0.53014
3769.96965	0.52509
3768.04127	0.52348
3766.11290	0.52457
3764.18453	0.52654
3762.25615	0.52672
3760.32778	0.52267
3758.39941	0.51883
3756.47103	0.51860
3754.54266	0.51648
3752.61429	0.50878
3750.68591	0.50122
3748.75754	0.50200
3746.82917	0.50434
3744.90080	0.50365
3742.97242	0.50582
3741.04405	0.50999
3739.11568	0.50932
3737.18730	0.50185
3735.25893	0.49366
3733.33056	0.49534
3731.40218	0.50461
3729.47381	0.51119
3727.54544	0.51098
3725.61706	0.50712
3723.68869	0.50466
3721.76032	0.50473
3719.83194	0.50634
3717.90357	0.50793
3715.97520	0.50681
3714.04682	0.50044
3712.11845	0.49041
3710.19008	0.48609
3708.26170	0.49068
3706.33333	0.49515
3704.40496	0.49374
3702.47658	0.48809
3700.54821	0.48416
3698.61984	0.48301
3696.69146	0.48019
3694.76309	0.47385
3692.83472	0.46346
3690.90635	0.44957
3688.97797	0.43857
3687.04960	0.43564
3685.12123	0.43438
3683.19285	0.42866
3681.26448	0.41755
3679.33611	0.40298
3677.40773	0.38575
3675.47936	0.36732
3673.55099	0.35566
3671.62261	0.34721
3669.69424	0.33489
3667.76587	0.32475
3665.83749	0.31772
3663.90912	0.30786
3661.98075	0.29489
3660.05237	0.28085
3658.12400	0.26606
3656.19563	0.25044
3654.26725	0.23660
3652.33888	0.22330
3650.41051	0.20618
3648.48213	0.18922
3646.55376	0.18003
3644.62539	0.17446
3642.69701	0.16712
3640.76864	0.15751
3638.84027	0.14740
3636.91189	0.13774
3634.98352	0.12835
3633.05515	0.11923
3631.12678	0.11036
3629.19840	0.10049
3627.27003	0.09203
3625.34166	0.08708
3623.41328	0.08235
3621.48491	0.07634
3619.55654	0.06946
3617.62816	0.06333
3615.69979	0.05865
3613.77142	0.05426
3611.84304	0.04992
3609.91467	0.04576
3607.98630	0.04172
3606.05792	0.03838
3604.12955	0.03580
3602.20118	0.03302
3600.27280	0.02984
3598.34443	0.02679
3596.41606	0.02406
3594.48768	0.02169
3592.55931	0.01974
3590.63094	0.01814
3588.70256	0.01644
3586.77419	0.01452
3584.84582	0.01279
3582.91744	0.01133
3580.98907	0.01015
3579.06070	0.00924
3577.13233	0.00849
3575.20395	0.00773
3573.27558	0.00696
3571.34721	0.00610
3569.41883	0.00514
3567.49046	0.00434
3565.56209	0.00386
3563.63371	0.00341
3561.70534	0.00280
3559.77697	0.00228
3557.84859	0.00189
3555.92022	0.00169
3553.99185	0.00154
3552.06347	0.00134
3550.13510	0.00125
3548.20673	0.00115
3546.27835	0.00097
3544.34998	0.00085
3542.42161	0.00073
3540.49323	0.00062
3538.56486	0.00049
3536.63649	0.00025
3534.70811	0.00032
3532.77974	0.00033
3530.85137	0.00029
3528.92299	0.00033
3526.99462	0.00032
3525.06625	0.00044
3523.13787	0.00045
3521.20950	0.00036
3519.28113	0.00020
3517.35276	0.00026
3515.42438	0.00042
3513.49601	0.00058
3511.56764	0.00047
3509.63926	0.00035
3507.71089	0.00050
3505.78252	0.00043
3503.85414	0.00025
3501.92577	0.00051
3499.99740	0.00053
3498.06902	0.00036
3496.14065	0.00029
3494.21228	0.00050
3492.28390	0.00043
3490.35553	0.00023
3488.42716	0.00033
3486.49878	0.00045
3484.57041	0.00046
3482.64204	0.00051
3480.71366	0.00064
3478.78529	0.00071
3476.85692	0.00075
3474.92854	0.00077
3473.00017	0.00062
3471.07180	0.00039
3469.14342	0.00038
3467.21505	0.00039
3465.28668	0.00039
3463.35831	0.00050
3461.42993	0.00051
3459.50156	0.00049
3457.57319	0.00036
3455.64481	0.00038
3453.71644	0.00049
3451.78807	0.00055
3449.85969	0.00053
3447.93132	0.00047
3446.00295	0.00041
3444.07457	0.00037
3442.14620	0.00044
3440.21783	0.00039
3438.28945	0.00016
3436.36108	0.00017
3434.43271	0.00036
3432.50433	0.00055
3430.57596	0.00046
3428.64759	0.00041
3426.71921	0.00052
3424.79084	0.00047
3422.86247	0.00025
3420.93409	0.00031
3419.00572	0.00055
3417.07735	0.00061
3415.14897	0.00063
3413.22060	0.00053
3411.29223	0.00031
3409.36385	0.00021
3407.43548	0.00029
3405.50711	0.00034
3403.57874	0.00043
3401.65036	0.00044
3399.72199	0.00027
3397.79362	0.00041
3395.86524	0.00055
3393.93687	0.00064
3392.00850	0.00068
3390.08012	0.00057
3388.15175	0.00043
3386.22338	0.00044
3384.29500	0.00050
3382.36663	0.00053
3380.43826	0.00055
3378.50988	0.00050
3376.58151	0.00043
3374.65314	0.00050
3372.72476	0.00045
3370.79639	0.00045
3368.86802	0.00054
3366.93964	0.00033
3365.01127	0.00041
3363.08290	0.00039
3361.15452	0.00029
3359.22615	0.00032
3357.29778	0.00060
3355.36940	0.00060
3353.44103	0.00040
3351.51266	0.00023
3349.58428	0.00032
3347.65591	0.00056
3345.72754	0.00061
3343.79917	0.00046
3341.87079	0.00052
3339.94242	0.00062
3338.01405	0.00058
3336.08567	0.00070
3334.15730	0.00078
3332.22893	0.00065
3330.30055	0.00040
3328.37218	0.00026
3326.44381	0.00027
3324.51543	0.00034
3322.58706	0.00043
3320.65869	0.00041
3318.73031	0.00040
3316.80194	0.00035
3314.87357	0.00024
3312.94519	0.00025
3311.01682	0.00036
3309.08845	0.00065
3307.16007	0.00082
3305.23170	0.00068
3303.30333	0.00044
3301.37495	0.00048
3299.44658	0.00043
3297.51821	0.00032
3295.58983	0.00042
3293.66146	0.00061
3291.73309	0.00050
3289.80472	0.00032
3287.87634	0.00045
3285.94797	0.00064
3284.01960	0.00062
3282.09122	0.00049
3280.16285	0.00040
3278.23448	0.00032
3276.30610	0.00032
3274.37773	0.00036
3272.44936	0.00045
3270.52098	0.00044
3268.59261	0.00036
3266.66424	0.00033
3264.73586	0.00032
3262.80749	0.00036
3260.87912	0.00051
3258.95074	0.00069
3257.02237	0.00075
3255.09400	0.00063
3253.16562	0.00041
3251.23725	0.00030
3249.30888	0.00044
3247.38050	0.00037
3245.45213	0.00037
3243.52376	0.00044
3241.59538	0.00049
3239.66701	0.00066
3237.73864	0.00064
3235.81026	0.00052
3233.88189	0.00051
3231.95352	0.00039
3230.02515	0.00037
3228.09677	0.00023
3226.16840	0.00044
3224.24003	0.00067
3222.31165	0.00077
3220.38328	0.00066
3218.45491	0.00042
3216.52653	0.00030
3214.59816	0.00045
3212.66979	0.00061
3210.74141	0.00059
3208.81304	0.00046
3206.88467	0.00050
3204.95629	0.00053
3203.02792	0.00041
3201.09955	0.00055
3199.17117	0.00071
3197.24280	0.00075
3195.31443	0.00072
3193.38605	0.00061
3191.45768	0.00044
3189.52931	0.00048
3187.60093	0.00049
3185.67256	0.00034
3183.74419	0.00020
3181.81581	0.00021
3179.88744	0.00032
3177.95907	0.00055
3176.03070	0.00073
3174.10232	0.00058
3172.17395	0.00033
3170.24558	0.00019
3168.31720	0.00024
3166.38883	0.00028
3164.46046	0.00038
3162.53208	0.00054
3160.60371	0.00064
3158.67534	0.00049
3156.74696	0.00027
3154.81859	0.00009
3152.89022	0.00009
3150.96184	0.00031
3149.03347	0.00052
3147.10510	0.00049
3145.17672	0.00035
3143.24835	0.00041
3141.31998	0.00038
3139.39160	0.00028
3137.46323	0.00020
3135.53486	0.00031
3133.60648	0.00029
3131.67811	0.00035
3129.74974	0.00050
3127.82136	0.00050
3125.89299	0.00041
3123.96462	0.00044
3122.03624	0.00059
3120.10787	0.00063
3118.17950	0.00048
3116.25113	0.00031
3114.32275	0.00020
3112.39438	0.00019
3110.46601	0.00035
3108.53763	0.00035
3106.60926	0.00032
3104.68089	0.00047
3102.75251	0.00053
3100.82414	0.00046
3098.89577	0.00050
3096.96739	0.00061
3095.03902	0.00057
3093.11065	0.00051
3091.18227	0.00054
3089.25390	0.00056
3087.32553	0.00051
3085.39715	0.00040
3083.46878	0.00056
3081.54041	0.00057
3079.61203	0.00055
3077.68366	0.00065
3075.75529	0.00046
3073.82691	0.00032
3071.89854	0.00039
3069.97017	0.00050
3068.04179	0.00055
3066.11342	0.00047
3064.18505	0.00034
3062.25668	0.00034
3060.32830	0.00052
3058.39993	0.00072
3056.47156	0.00072
3054.54318	0.00055
3052.61481	0.00052
3050.68644	0.00057
3048.75806	0.00052
3046.82969	0.00060
3044.90132	0.00076
3042.97294	0.00073
3041.04457	0.00064
3039.11620	0.00064
3037.18782	0.00072
3035.25945	0.00081
3033.33108	0.00087
3031.40270	0.00089
3029.47433	0.00085
3027.54596	0.00082
3025.61758	0.00089
3023.68921	0.00099
3021.76084	0.00101
3019.83246	0.00100
3017.90409	0.00103
3015.97572	0.00117
3014.04734	0.00140
3012.11897	0.00156
3010.19060	0.00156
3008.26222	0.00142
3006.33385	0.00125
3004.40548	0.00119
3002.47711	0.00132
3000.54873	0.00138
2998.62036	0.00115
2996.69199	0.00088
2994.76361	0.00073
2992.83524	0.00073
2990.90687	0.00075
2988.97849	0.00076
2987.05012	0.00071
2985.12175	0.00070
2983.19337	0.00072
2981.26500	0.00074
2979.33663	0.00064
2977.40825	0.00057
2975.47988	0.00062
2973.55151	0.00059
2971.62313	0.00054
2969.69476	0.00051
2967.76639	0.00041
2965.83801	0.00047
2963.90964	0.00049
2961.98127	0.00045
2960.05289	0.00049
2958.12452	0.00056
2956.19615	0.00059
2954.26777	0.00046
2952.33940	0.00057
2950.41103	0.00052
2948.48266	0.00033
2946.55428	0.00028
2944.62591	0.00043
2942.69754	0.00032
2940.76916	0.00018
2938.84079	0.00020
2936.91242	0.00029
2934.98404	0.00039
2933.05567	0.00050
2931.12730	0.00064
2929.19892	0.00078
2927.27055	0.00072
2925.34218	0.00049
2923.41380	0.00039
2921.48543	0.00040
2919.55706	0.00054
2917.62868	0.00052
2915.70031	0.00046
2913.77194	0.00035
2911.84356	0.00036
2909.91519	0.00051
2907.98682	0.00046
2906.05844	0.00013
2904.13007	0.00017
2902.20170	0.00016
2900.27332	0.00036
2898.34495	0.00050
2896.41658	0.00050
2894.48820	0.00040
2892.55983	0.00028
2890.63146	0.00019
2888.70309	0.00022
2886.77471	0.00044
2884.84634	0.00050
2882.91797	0.00043
2880.98959	0.00048
2879.06122	0.00055
2877.13285	0.00055
2875.20447	0.00039
2873.27610	0.00033
2871.34773	0.00031
2869.41935	0.00031
2867.49098	0.00046
2865.56261	0.00062
2863.63423	0.00070
2861.70586	0.00074
2859.77749	0.00074
2857.84911	0.00072
2855.92074	0.00077
2853.99237	0.00095
2852.06399	0.00116
2850.13562	0.00128
2848.20725	0.00131
2846.27887	0.00148
2844.35050	0.00191
2842.42213	0.00248
2840.49375	0.00296
2838.56538	0.00332
2836.63701	0.00364
2834.70863	0.00390
2832.78026	0.00404
2830.85189	0.00417
2828.92352	0.00444
2826.99514	0.00483
2825.06677	0.00518
2823.13840	0.00541
2821.21002	0.00561
2819.28165	0.00574
2817.35328	0.00575
2815.42490	0.00576
2813.49653	0.00603
2811.56816	0.00651
2809.63978	0.00690
2807.71141	0.00717
2805.78304	0.00753
2803.85466	0.00801
2801.92629	0.00838
2799.99792	0.00859
2798.06954	0.00876
2796.14117	0.00893
2794.21280	0.00921
2792.28442	0.00971
2790.35605	0.01025
2788.42768	0.01065
2786.49930	0.01087
2784.57093	0.01104
2782.64256	0.01128
2780.71418	0.01161
2778.78581	0.01197
2776.85744	0.01235
2774.92907	0.01266
2773.00069	0.01291
2771.07232	0.01323
2769.14395	0.01357
2767.21557	0.01392
2765.28720	0.01426
2763.35883	0.01463
2761.43045	0.01502
2759.50208	0.01532
2757.57371	0.01565
2755.64533	0.01613
2753.71696	0.01665
2751.78859	0.01712
2749.86021	0.01763
2747.93184	0.01817
2746.00347	0.01864
2744.07509	0.01905
2742.14672	0.01934
2740.21835	0.01960
2738.28997	0.01998
2736.36160	0.02041
2734.43323	0.02079
2732.50485	0.02115
2730.57648	0.02159
2728.64811	0.02206
2726.71973	0.02246
2724.79136	0.02282
2722.86299	0.02316
2720.93461	0.02347
2719.00624	0.02392
2717.07787	0.02451
2715.14950	0.02502
2713.22112	0.02546
2711.29275	0.02590
2709.36438	0.02627
2707.43600	0.02666
2705.50763	0.02715
2703.57926	0.02763
2701.65088	0.02796
2699.72251	0.02830
2697.79414	0.02879
2695.86576	0.02931
2693.93739	0.02972
2692.00902	0.03007
2690.08064	0.03046
2688.15227	0.03088
2686.22390	0.03133
2684.29552	0.03178
2682.36715	0.03229
2680.43878	0.03288
2678.51040	0.03345
2676.58203	0.03398
2674.65366	0.03454
2672.72528	0.03512
2670.79691	0.03569
2668.86854	0.03630
2666.94016	0.03701
2665.01179	0.03779
2663.08342	0.03855
2661.15505	0.03926
2659.22667	0.03996
2657.29830	0.04060
2655.36993	0.04107
2653.44155	0.04146
2651.51318	0.04197
2649.58481	0.04263
2647.65643	0.04334
2645.72806	0.04400
2643.79969	0.04472
2641.87131	0.04555
2639.94294	0.04635
2638.01457	0.04703
2636.08619	0.04769
2634.15782	0.04841
2632.22945	0.04909
2630.30107	0.04975
2628.37270	0.05049
2626.44433	0.05131
2624.51595	0.05228
2622.58758	0.05333
2620.65921	0.05422
2618.73083	0.05495
2616.80246	0.05577
2614.87409	0.05680
2612.94571	0.05796
2611.01734	0.05908
2609.08897	0.06013
2607.16059	0.06111
2605.23222	0.06206
2603.30385	0.06304
2601.37548	0.06395
2599.44710	0.06477
2597.51873	0.06566
2595.59036	0.06664
2593.66198	0.06764
2591.73361	0.06869
2589.80524	0.06976
2587.87686	0.07077
2585.94849	0.07165
2584.02012	0.07247
2582.09174	0.07325
2580.16337	0.07407
2578.23500	0.07506
2576.30662	0.07620
2574.37825	0.07741
2572.44988	0.07859
2570.52150	0.07969
2568.59313	0.08090
2566.66476	0.08230
2564.73638	0.08372
2562.80801	0.08512
2560.87964	0.08661
2558.95126	0.08816
2557.02289	0.08971
2555.09452	0.09121
2553.16614	0.09260
2551.23777	0.09389
2549.30940	0.09517
2547.38103	0.09639
2545.45265	0.09753
2543.52428	0.09859
2541.59591	0.09958
2539.66753	0.10053
2537.73916	0.10145
2535.81079	0.10234
2533.88241	0.10327
2531.95404	0.10421
2530.02567	0.10515
2528.09729	0.10615
2526.16892	0.10722
2524.24055	0.10832
2522.31217	0.10950
2520.38380	0.11079
2518.45543	0.11213
2516.52705	0.11347
2514.59868	0.11474
2512.67031	0.11589
2510.74193	0.11703
2508.81356	0.11830
2506.88519	0.11964
2504.95681	0.12098
2503.02844	0.12229
2501.10007	0.12351
2499.17169	0.12467
2497.24332	0.12588
2495.31495	0.12713
2493.38657	0.12838
2491.45820	0.12963
2489.52983	0.13099
2487.60146	0.13238
2485.67308	0.13371
2483.74471	0.13506
2481.81634	0.13639
2479.88796	0.13764
2477.95959	0.13894
2476.03122	0.14039
2474.10284	0.14192
2472.17447	0.14349
2470.24610	0.14507
2468.31772	0.14661
2466.38935	0.14820
2464.46098	0.14990
2462.53260	0.15160
2460.60423	0.15321
2458.67586	0.15478
2456.74748	0.15642
2454.81911	0.15804
2452.89074	0.15961
2450.96236	0.16128
2449.03399	0.16298
2447.10562	0.16463
2445.17724	0.16627
2443.24887	0.16790
2441.32050	0.16954
2439.39212	0.17128
2437.46375	0.17308
2435.53538	0.17495
2433.60700	0.17689
2431.67863	0.17878
2429.75026	0.18053
2427.82189	0.18224
2425.89351	0.18396
2423.96514	0.18563
2422.03677	0.18725
2420.10839	0.18888
2418.18002	0.19044
2416.25165	0.19193
2414.32327	0.19353
2412.39490	0.19528
2410.46653	0.19706
2408.53815	0.19879
2406.60978	0.20055
2404.68141	0.20243
2402.75303	0.20434
2400.82466	0.20621
2398.89629	0.20803
2396.96791	0.20987
2395.03954	0.21186
2393.11117	0.21382
2391.18279	0.21560
2389.25442	0.21726
2387.32605	0.21886
2385.39767	0.22027
2383.46930	0.22133
2381.54093	0.22214
2379.61255	0.22290
2377.68418	0.22364
2375.75581	0.22419
2373.82744	0.22459
2371.89906	0.22499
2369.97069	0.22550
2368.04232	0.22633
2366.11394	0.22723
2364.18557	0.22773
2362.25720	0.22819
2360.32882	0.22907
2358.40045	0.23041
2356.47208	0.23232
2354.54370	0.23453
2352.61533	0.23677
2350.68696	0.23889
2348.75858	0.24029
2346.83021	0.24063
2344.90184	0.24025
2342.97346	0.24026
2341.04509	0.24099
2339.11672	0.24165
2337.18834	0.24218
2335.25997	0.24309
2333.33160	0.24425
2331.40322	0.24538
2329.47485	0.24653
2327.54648	0.24756
2325.61810	0.24850
2323.68973	0.24979
2321.76136	0.25164
2319.83298	0.25369
2317.90461	0.25570
2315.97624	0.25779
2314.04787	0.26005
2312.11949	0.26243
2310.19112	0.26484
2308.26275	0.26722
2306.33437	0.26958
2304.40600	0.27190
2302.47763	0.27408
2300.54925	0.27598
2298.62088	0.27762
2296.69251	0.27912
2294.76413	0.28062
2292.83576	0.28223
2290.90739	0.28382
2288.97901	0.28529
2287.05064	0.28668
2285.12227	0.28794
2283.19389	0.28903
2281.26552	0.28989
2279.33715	0.29058
2277.40877	0.29122
2275.48040	0.29184
2273.55203	0.29244
2271.62365	0.29308
2269.69528	0.29374
2267.76691	0.29438
2265.83853	0.29505
2263.91016	0.29572
2261.98179	0.29633
2260.05342	0.29703
2258.12504	0.29791
2256.19667	0.29884
2254.26830	0.29986
2252.33992	0.30104
2250.41155	0.30226
2248.48318	0.30338
2246.55480	0.30447
2244.62643	0.30557
2242.69806	0.30662
2240.76968	0.30753
2238.84131	0.30834
2236.91294	0.30912
2234.98456	0.30987
2233.05619	0.31052
2231.12782	0.31104
2229.19944	0.31156
2227.27107	0.31217
2225.34270	0.31276
2223.41432	0.31317
2221.48595	0.31344
2219.55758	0.31371
2217.62920	0.31395
2215.70083	0.31410
2213.77246	0.31418
2211.84408	0.31430
2209.91571	0.31452
2207.98734	0.31474
2206.05896	0.31492
2204.13059	0.31505
2202.20222	0.31508
2200.27385	0.31503
2198.34547	0.31497
2196.41710	0.31486
2194.48873	0.31479
2192.56035	0.31485
2190.63198	0.31488
2188.70361	0.31484
2186.77523	0.31495
2184.84686	0.31520
2182.91849	0.31536
2180.99011	0.31544
2179.06174	0.31558
2177.13337	0.31570
2175.20499	0.31573
2173.27662	0.31564
2171.34825	0.31542
2169.41987	0.31522
2167.49150	0.31510
2165.56313	0.31503
2163.63475	0.31502
2161.70638	0.31506
2159.77801	0.31512
2157.84963	0.31529
2155.92126	0.31559
2153.99289	0.31602
2152.06451	0.31657
2150.13614	0.31715
2148.20777	0.31771
2146.27940	0.31833
2144.35102	0.31906
2142.42265	0.31985
2140.49428	0.32056
2138.56590	0.32119
2136.63753	0.32183
2134.70916	0.32257
2132.78078	0.32337
2130.85241	0.32415
2128.92404	0.32497
2126.99566	0.32594
2125.06729	0.32708
2123.13892	0.32835
2121.21054	0.32972
2119.28217	0.33112
2117.35380	0.33254
2115.42542	0.33401
2113.49705	0.33546
2111.56868	0.33683
2109.64030	0.33812
2107.71193	0.33931
2105.78356	0.34045
2103.85518	0.34161
2101.92681	0.34269
2099.99844	0.34361
2098.07006	0.34445
2096.14169	0.34530
2094.21332	0.34608
2092.28494	0.34662
2090.35657	0.34696
2088.42820	0.34737
2086.49983	0.34790
2084.57145	0.34836
2082.64308	0.34871
2080.71471	0.34899
2078.78633	0.34927
2076.85796	0.34958
2074.92959	0.34983
2073.00121	0.35005
2071.07284	0.35044
2069.14447	0.35096
2067.21609	0.35136
2065.28772	0.35181
2063.35935	0.35275
2061.43097	0.35408
2059.50260	0.35553
2057.57423	0.35700
2055.64585	0.35837
2053.71748	0.35979
2051.78911	0.36136
2049.86073	0.36294
2047.93236	0.36442
2046.00399	0.36577
2044.07561	0.36692
2042.14724	0.36797
2040.21887	0.36917
2038.29049	0.37050
2036.36212	0.37163
2034.43375	0.37246
2032.50538	0.37313
2030.57700	0.37379
2028.64863	0.37441
2026.72026	0.37494
2024.79188	0.37545
2022.86351	0.37599
2020.93514	0.37645
2019.00676	0.37675
2017.07839	0.37739
2015.15002	0.37889
2013.22164	0.38075
2011.29327	0.38235
2009.36490	0.38378
2007.43652	0.38526
2005.50815	0.38677
2003.57978	0.38814
2001.65140	0.38931
1999.72303	0.39038
1997.79466	0.39141
1995.86628	0.39203
1993.93791	0.39182
1992.00954	0.39164
1990.08116	0.39257
1988.15279	0.39405
1986.22442	0.39530
1984.29604	0.39620
1982.36767	0.39674
1980.43930	0.39712
1978.51092	0.39754
1976.58255	0.39806
1974.65418	0.39868
1972.72581	0.39930
1970.79743	0.39957
1968.86906	0.39928
1966.94069	0.39942
1965.01231	0.40085
1963.08394	0.40254
1961.15557	0.40367
1959.22719	0.40459
1957.29882	0.40538
1955.37045	0.40609
1953.44207	0.40710
1951.51370	0.40832
1949.58533	0.40923
1947.65695	0.40956
1945.72858	0.40906
1943.80021	0.40809
1941.87183	0.40865
1939.94346	0.41121
1938.01509	0.41327
1936.08671	0.41382
1934.15834	0.41383
1932.22997	0.41394
1930.30159	0.41418
1928.37322	0.41431
1926.44485	0.41364
1924.51647	0.41189
1922.58810	0.41058
1920.65973	0.41023
1918.73135	0.40977
1916.80298	0.41055
1914.87461	0.41270
1912.94624	0.41346
1911.01786	0.41240
1909.08949	0.41152
1907.16112	0.41193
1905.23274	0.41261
1903.30437	0.41267
1901.37600	0.41234
1899.44762	0.41166
1897.51925	0.41017
1895.59088	0.40843
1893.66250	0.40736
1891.73413	0.40586
1889.80576	0.40394
1887.87738	0.40391
1885.94901	0.40503
1884.02064	0.40548
1882.09226	0.40550
1880.16389	0.40537
1878.23552	0.40505
1876.30714	0.40463
1874.37877	0.40388
1872.45040	0.40143
1870.52202	0.39629
1868.59365	0.39198
1866.66528	0.39308
1864.73690	0.39652
1862.80853	0.39784
1860.88016	0.39706
1858.95179	0.39569
1857.02341	0.39447
1855.09504	0.39338
1853.16667	0.39214
1851.23829	0.39026
1849.30992	0.38726
1847.38155	0.38293
1845.45317	0.37800
1843.52480	0.37622
1841.59643	0.37859
1839.66805	0.38009
1837.73968	0.37906
1835.81131	0.37753
1833.88293	0.37535
1831.95456	0.37046
1830.02619	0.36484
1828.09781	0.36255
1826.16944	0.36176
1824.24107	0.36077
1822.31269	0.36052
1820.38432	0.35929
1818.45595	0.35611
1816.52757	0.35217
1814.59920	0.34749
1812.67083	0.34136
1810.74245	0.33500
1808.81408	0.33035
1806.88571	0.32631
1804.95733	0.32060
1803.02896	0.31258
1801.10059	0.30377
1799.17222	0.29661
1797.24384	0.29043
1795.31547	0.28251
1793.38710	0.27207
1791.45872	0.26280
1789.53035	0.25760
1787.60198	0.25237
1785.67360	0.24433
1783.74523	0.23497
1781.81686	0.22565
1779.88848	0.21660
1777.96011	0.20806
1776.03174	0.19888
1774.10336	0.18744
1772.17499	0.17475
1770.24662	0.16452
1768.31824	0.15621
1766.38987	0.14700
1764.46150	0.13630
1762.53312	0.12307
1760.60475	0.10863
1758.67638	0.09530
1756.74800	0.08148
1754.81963	0.06792
1752.89126	0.05567
1750.96288	0.04336
1749.03451	0.03209
1747.10614	0.02375
1745.17777	0.01761
1743.24939	0.01277
1741.32102	0.00893
1739.39265	0.00581
1737.46427	0.00377
1735.53590	0.00252
1733.60753	0.00150
1731.67915	0.00078
1729.75078	0.00036
1727.82241	0.00024
1725.89403	0.00025
1723.96566	0.00026
1722.03729	0.00031
1720.10891	0.00040
1718.18054	0.00038
1716.25217	0.00033
1714.32379	0.00027
1712.39542	0.00030
1710.46705	0.00035
1708.53867	0.00044
1706.61030	0.00055
1704.68193	0.00062
1702.75355	0.00063
1700.82518	0.00062
1698.89681	0.00064
1696.96843	0.00060
1695.04006	0.00058
1693.11169	0.00053
1691.18331	0.00044
1689.25494	0.00038
1687.32657	0.00031
1685.39820	0.00027
1683.46982	0.00033
1681.54145	0.00052
1679.61308	0.00051
1677.68470	0.00041
1675.75633	0.00036
1673.82796	0.00039
1671.89958	0.00042
1669.97121	0.00037
1668.04284	0.00036
1666.11446	0.00047
1664.18609	0.00054
1662.25772	0.00050
1660.32934	0.00039
1658.40097	0.00037
1656.47260	0.00049
1654.54422	0.00074
1652.61585	0.00092
1650.68748	0.00078
1648.75910	0.00063
1646.83073	0.00058
1644.90236	0.00055
1642.97398	0.00047
1641.04561	0.00047
1639.11724	0.00048
1637.18886	0.00055
1635.26049	0.00065
1633.33212	0.00046
1631.40375	0.00038
1629.47537	0.00038
1627.54700	0.00038
1625.61863	0.00042
1623.69025	0.00045
1621.76188	0.00045
1619.83351	0.00048
1617.90513	0.00054
1615.97676	0.00048
1614.04839	0.00030
1612.12001	0.00016
1610.19164	0.00022
1608.26327	0.00034
1606.33489	0.00039
1604.40652	0.00030
1602.47815	0.00028
1600.54977	0.00036
1598.62140	0.00046
1596.69303	0.00049
1594.76465	0.00037
1592.83628	0.00030
1590.90791	0.00025
1588.97953	0.00027
1587.05116	0.00025
1585.12279	0.00032
1583.19441	0.00038
1581.26604	0.00044
1579.33767	0.00052
1577.40929	0.00050
1575.48092	0.00049
1573.55255	0.00049
1571.62418	0.00051
1569.69580	0.00056
1567.76743	0.00056
1565.83906	0.00049
1563.91068	0.00028
1561.98231	0.00016
1560.05394	0.00021
1558.12556	0.00042
1556.19719	0.00040
1554.26882	0.00039
1552.34044	0.00039
1550.41207	0.00029
1548.48370	0.00032
1546.55532	0.00027
1544.62695	0.00030
1542.69858	0.00053
1540.77020	0.00068
1538.84183	0.00048
1536.91346	0.00028
1534.98508	0.00026
1533.05671	0.00031
1531.12834	0.00040
1529.19996	0.00046
1527.27159	0.00042
1525.34322	0.00033
1523.41484	0.00037
1521.48647	0.00055
1519.55810	0.00059
1517.62972	0.00051
1515.70135	0.00039
1513.77298	0.00030
1511.84461	0.00036
1509.91623	0.00057
1507.98786	0.00076
1506.05949	0.00059
1504.13111	0.00026
1502.20274	0.00015
1500.27437	0.00023
1498.34599	0.00040
1496.41762	0.00047
1494.48925	0.00059
1492.56087	0.00062
1490.63250	0.00058
1488.70413	0.00064
1486.77575	0.00088
1484.84738	0.00109
1482.91901	0.00109
1480.99063	0.00094
1479.06226	0.00079
1477.13389	0.00069
1475.20551	0.00070
1473.27714	0.00082
1471.34877	0.00069
1469.42039	0.00045
1467.49202	0.00035
1465.56365	0.00045
1463.63527	0.00065
1461.70690	0.00079
1459.77853	0.00096
1457.85016	0.00112
1455.92178	0.00095
1453.99341	0.00061
1452.06504	0.00046
1450.13666	0.00051
1448.20829	0.00057
1446.27992	0.00053
1444.35154	0.00046
1442.42317	0.00039
1440.49480	0.00036
1438.56642	0.00046
1436.63805	0.00057
1434.70968	0.00051
1432.78130	0.00036
1430.85293	0.00026
1428.92456	0.00026
1426.99618	0.00026
1425.06781	0.00025
1423.13944	0.00025
1421.21106	0.00022
1419.28269	0.00028
1417.35432	0.00037
1415.42594	0.00040
1413.49757	0.00044
1411.56920	0.00040
1409.64082	0.00034
1407.71245	0.00031
1405.78408	0.00026
1403.85570	0.00033
1401.92733	0.00043
1399.99896	0.00037
1398.07059	0.00038
1396.14221	0.00054
1394.21384	0.00070
1392.28547	0.00065
1390.35709	0.00051
1388.42872	0.00038
1386.50035	0.00036
1384.57197	0.00036
1382.64360	0.00033
1380.71523	0.00028
1378.78685	0.00041
1376.85848	0.00071
1374.93011	0.00092
1373.00173	0.00092
1371.07336	0.00075
1369.14499	0.00055
1367.21661	0.00046
1365.28824	0.00049
1363.35987	0.00054
1361.43149	0.00053
1359.50312	0.00057
1357.57475	0.00059
1355.64637	0.00055
1353.71800	0.00053
1351.78963	0.00050
1349.86125	0.00042
1347.93288	0.00041
1346.00451	0.00042
1344.07614	0.00046
1342.14776	0.00039
1340.21939	0.00039
1338.29102	0.00048
1336.36264	0.00049
1334.43427	0.00051
1332.50590	0.00058
1330.57752	0.00069
1328.64915	0.00070
1326.72078	0.00069
1324.79240	0.00078
1322.86403	0.00087
1320.93566	0.00079
1319.00728	0.00065
1317.07891	0.00055
1315.15054	0.00055
1313.22216	0.00058
1311.29379	0.00054
1309.36542	0.00046
1307.43704	0.00047
1305.50867	0.00056
1303.58030	0.00061
1301.65192	0.00065
1299.72355	0.00061
1297.79518	0.00049
1295.86680	0.00038
1293.93843	0.00035
1292.01006	0.00041
1290.08168	0.00053
1288.15331	0.00068
1286.22494	0.00078
1284.29657	0.00082
1282.36819	0.00070
1280.43982	0.00055
1278.51145	0.00070
1276.58307	0.00086
1274.65470	0.00082
1272.72633	0.00070
1270.79795	0.00061
1268.86958	0.00062
1266.94121	0.00073
1265.01283	0.00084
1263.08446	0.00095
1261.15609	0.00089
1259.22771	0.00075
1257.29934	0.00061
1255.37097	0.00039
1253.44259	0.00017
1251.51422	0.00029
1249.58585	0.00042
1247.65747	0.00067
1245.72910	0.00085
1243.80073	0.00075
1241.87235	0.00045
1239.94398	0.00036
1238.01561	0.00050
1236.08723	0.00063
1234.15886	0.00073
1232.23049	0.00084
1230.30212	0.00085
1228.37374	0.00088
1226.44537	0.00097
1224.51700	0.00090
1222.58862	0.00078
1220.66025	0.00066
1218.73188	0.00079
1216.80350	0.00109
1214.87513	0.00105
1212.94676	0.00085
1211.01838	0.00076
1209.09001	0.00087
1207.16164	0.00116
1205.23326	0.00142
1203.30489	0.00131
1201.37652	0.00105
1199.44814	0.00105
1197.51977	0.00121
1195.59140	0.00135
1193.66302	0.00141
1191.73465	0.00131
1189.80628	0.00111
1187.87790	0.00091
1185.94953	0.00078
1184.02116	0.00077
1182.09278	0.00084
1180.16441	0.00102
1178.23604	0.00119
1176.30766	0.00125
1174.37929	0.00120
1172.45092	0.00121
1170.52255	0.00132
1168.59417	0.00135
1166.66580	0.00127
1164.73743	0.00114
1162.80905	0.00114
1160.88068	0.00126
1158.95231	0.00140
1157.02393	0.00129
1155.09556	0.00100
1153.16719	0.00090
1151.23881	0.00099
1149.31044	0.00121
1147.38207	0.00135
1145.45369	0.00139
1143.52532	0.00153
1141.59695	0.00163
1139.66857	0.00158
1137.74020	0.00144
1135.81183	0.00121
1133.88345	0.00088
1131.95508	0.00059
1130.02671	0.00059
1128.09833	0.00093
1126.16996	0.00139
1124.24159	0.00164
1122.31321	0.00151
1120.38484	0.00121
1118.45647	0.00110
1116.52809	0.00141
1114.59972	0.00176
1112.67135	0.00161
1110.74298	0.00118
1108.81460	0.00094
1106.88623	0.00111
1104.95786	0.00134
1103.02948	0.00129
1101.10111	0.00119
1099.17274	0.00125
1097.24436	0.00132
1095.31599	0.00144
1093.38762	0.00162
1091.45924	0.00150
1089.53087	0.00118
1087.60250	0.00088
1085.67412	0.00086
1083.74575	0.00113
1081.81738	0.00133
1079.88900	0.00127
1077.96063	0.00105
1076.03226	0.00110
1074.10388	0.00134
1072.17551	0.00160
1070.24714	0.00182
1068.31876	0.00191
1066.39039	0.00162
1064.46202	0.00131
1062.53364	0.00136
1060.60527	0.00162
1058.67690	0.00169
1056.74853	0.00153
1054.82015	0.00129
1052.89178	0.00128
1050.96341	0.00147
1049.03503	0.00150
1047.10666	0.00126
1045.17829	0.00114
1043.24991	0.00125
1041.32154	0.00128
1039.39317	0.00112
1037.46479	0.00084
1035.53642	0.00076
1033.60805	0.00090
1031.67967	0.00109
1029.75130	0.00116
1027.82293	0.00103
1025.89455	0.00097
1023.96618	0.00117
1022.03781	0.00130
1020.10943	0.00123
1018.18106	0.00111
1016.25269	0.00108
1014.32431	0.00111
1012.39594	0.00118
1010.46757	0.00116
1008.53919	0.00108
1006.61082	0.00113
1004.68245	0.00112
1002.75407	0.00098
1000.82570	0.00091
998.89733	0.00099
996.96896	0.00113
995.04058	0.00132
993.11221	0.00142
991.18384	0.00147
989.25546	0.00176
987.32709	0.00224
985.39872	0.00279
983.47034	0.00334
981.54197	0.00370
979.61360	0.00389
977.68522	0.00421
975.75685	0.00488
973.82848	0.00621
971.90010	0.00835
969.97173	0.01124
968.04336	0.01464
966.11498	0.01795
964.18661	0.02029
962.25824	0.02035
960.32986	0.01725
958.40149	0.01219
956.47312	0.00789
954.54474	0.00595
952.61637	0.00606
950.68800	0.00730
948.75962	0.00876
946.83125	0.01001
944.90288	0.01135
942.97451	0.01324
941.04613	0.01592
939.11776	0.01959
937.18939	0.02376
935.26101	0.02744
933.33264	0.03036
931.40427	0.03269
929.47589	0.03436
927.54752	0.03516
925.61915	0.03485
923.69077	0.03395
921.76240	0.03359
919.83403	0.03435
917.90565	0.03624
915.97728	0.03885
914.04891	0.04112
912.12053	0.04213
910.19216	0.04143
908.26379	0.03888
906.33541	0.03507
904.40704	0.03087
902.47867	0.02717
900.55029	0.02482
898.62192	0.02398
896.69355	0.02413
894.76517	0.02492
892.83680	0.02638
890.90843	0.02821
888.98005	0.02964
887.05168	0.03004
885.12331	0.02971
883.19494	0.03028
881.26656	0.03296
879.33819	0.03662
877.40982	0.03941
875.48144	0.04076
873.55307	0.04108
871.62470	0.04079
869.69632	0.04020
867.76795	0.03956
865.83958	0.03905
863.91120	0.03837
861.98283	0.03711
860.05446	0.03544
858.12608	0.03357
856.19771	0.03168
854.26934	0.03007
852.34096	0.02908
850.41259	0.02863
848.48422	0.02798
846.55584	0.02691
844.62747	0.02599
842.69910	0.02543
840.77072	0.02491
838.84235	0.02421
836.91398	0.02374
834.98560	0.02398
833.05723	0.02457
831.12886	0.02477
829.20049	0.02456
827.27211	0.02455
825.34374	0.02487
823.41537	0.02499
821.48699	0.02474
819.55862	0.02460
817.63025	0.02471
815.70187	0.02470
813.77350	0.02410
811.84513	0.02312
809.91675	0.02246
807.98838	0.02190
806.06001	0.02070
804.13163	0.01901
802.20326	0.01728
800.27489	0.01546
798.34651	0.01344
796.41814	0.01157
794.48977	0.00999
792.56139	0.00863
790.63302	0.00759
788.70465	0.00684
786.77627	0.00623
784.84790	0.00579
782.91953	0.00548
780.99115	0.00492
779.06278	0.00409
777.13441	0.00332
775.20603	0.00267
773.27766	0.00211
771.34929	0.00192
769.42092	0.00187
767.49254	0.00164
765.56417	0.00173
763.63580	0.00200
761.70742	0.00202
759.77905	0.00198
757.85068	0.00182
755.92230	0.00152
753.99393	0.00161
752.06556	0.00212
750.13718	0.00243
748.20881	0.00231
746.28044	0.00220
744.35206	0.00234
742.42369	0.00233
740.49532	0.00213
738.56694	0.00237
736.63857	0.00326
734.71020	0.00349
732.78182	0.00304
730.85345	0.00277
728.92508	0.00293
726.99670	0.00310
725.06833	0.00300
723.13996	0.00262
721.21158	0.00187
719.28321	0.00140
717.35484	0.00183
715.42647	0.00239
713.49809	0.00231
711.56972	0.00198
709.64135	0.00188
707.71297	0.00198
705.78460	0.00233
703.85623	0.00235
701.92785	0.00221
699.99948	0.00237
698.07111	0.00266
696.14273	0.00293
694.21436	0.00297
692.28599	0.00263
690.35761	0.00269
688.42924	0.00299
686.50087	0.00306
684.57249	0.00304
682.64412	0.00303
680.71575	0.00322
678.78737	0.00347
676.85900	0.00402
674.93063	0.00424
673.00225	0.00392
671.07388	0.00403
669.14551	0.00523
667.21713	0.00528
665.28876	0.00423
663.36039	0.00366
661.43201	0.00320
659.50364	0.00279
657.57527	0.00270
655.64690	0.00298
653.71852	0.00332
651.79015	0.00385
649.86178	0.00461
647.93340	0.00481
646.00503	0.00437
644.07666	0.00400
642.14828	0.00382
640.21991	0.00340
638.29154	0.00277
636.36316	0.00304
634.43479	0.00423
632.50642	0.00558
630.57804	0.00596
628.64967	0.00556
626.72130	0.00588
624.79292	0.00549
622.86455	0.00421
620.93618	0.00486
619.00780	0.00618
617.07943	0.00555
615.15106	0.00455
613.22268	0.00386
611.29431	0.00480
609.36594	0.00724
607.43756	0.00856
605.50919	0.00815
603.58082	0.00773
601.65244	0.00758
599.72407	0.00784
