3997.51769	0.12513
3995.58931	0.12585
3993.66094	0.12627
3991.73257	0.12629
3989.80419	0.12629
3987.87582	0.12640
3985.94745	0.12676
3984.01907	0.12711
3982.09070	0.12690
3980.16233	0.12675
3978.23396	0.12722
3976.30558	0.12734
3974.37721	0.12693
3972.44884	0.12702
3970.52046	0.12778
3968.59209	0.12874
3966.66372	0.12953
3964.73534	0.12990
3962.80697	0.13021
3960.87860	0.13078
3958.95022	0.13138
3957.02185	0.13196
3955.09348	0.13236
3953.16510	0.13247
3951.23673	0.13279
3949.30836	0.13336
3947.37998	0.13367
3945.45161	0.13380
3943.52324	0.13415
3941.59486	0.13453
3939.66649	0.13461
3937.73812	0.13467
3935.80974	0.13518
3933.88137	0.13594
3931.95300	0.13629
3930.02462	0.13643
3928.09625	0.13679
3926.16788	0.13709
3924.23950	0.13711
3922.31113	0.13743
3920.38276	0.13834
3918.45439	0.13908
3916.52601	0.13915
3914.59764	0.13906
3912.66927	0.13912
3910.74089	0.13943
3908.81252	0.14015
3906.88415	0.14114
3904.95577	0.14221
3903.02740	0.14285
3901.09903	0.14268
3899.17065	0.14250
3897.24228	0.14319
3895.31391	0.14444
3893.38553	0.14545
3891.45716	0.14575
3889.52879	0.14581
3887.60041	0.14642
3885.67204	0.14745
3883.74367	0.14808
3881.81529	0.14823
3879.88692	0.14833
3877.95855	0.14838
3876.03017	0.14866
3874.10180	0.14944
3872.17343	0.15028
3870.24505	0.15054
3868.31668	0.15028
3866.38831	0.15051
3864.45994	0.15146
3862.53156	0.15209
3860.60319	0.15208
3858.67482	0.15224
3856.74644	0.15290
3854.81807	0.15405
3852.88970	0.15462
3850.96132	0.15359
3849.03295	0.15263
3847.10458	0.15245
3845.17620	0.15301
3843.24783	0.15384
3841.31946	0.15461
3839.39108	0.15538
3837.46271	0.15570
3835.53434	0.15552
3833.60596	0.15548
3831.67759	0.15558
3829.74922	0.15576
3827.82084	0.15599
3825.89247	0.15604
3823.96410	0.15624
3822.03572	0.15709
3820.10735	0.15775
3818.17898	0.15761
3816.25060	0.15774
3814.32223	0.15782
3812.39386	0.15740
3810.46548	0.15713
3808.53711	0.15725
3806.60874	0.15756
3804.68037	0.15819
3802.75199	0.15921
3800.82362	0.15939
3798.89525	0.15836
3796.96687	0.15777
3795.03850	0.15763
3793.11013	0.15734
3791.18175	0.15709
3789.25338	0.15701
3787.32501	0.15668
3785.39663	0.15607
3783.46826	0.15592
3781.53989	0.15659
3779.61151	0.15745
3777.68314	0.15748
3775.75477	0.15709
3773.82639	0.15717
3771.89802	0.15753
3769.96965	0.15735
3768.04127	0.15654
3766.11290	0.15623
3764.18453	0.15639
3762.25615	0.15647
3760.32778	0.15655
3758.39941	0.15638
3756.47103	0.15595
3754.54266	0.15593
3752.61429	0.15650
3750.68591	0.15717
3748.75754	0.15754
3746.82917	0.15787
3744.90080	0.15766
3742.97242	0.15627
3741.04405	0.15507
3739.11568	0.15482
3737.18730	0.15517
3735.25893	0.15528
3733.33056	0.15440
3731.40218	0.15303
3729.47381	0.15209
3727.54544	0.15140
3725.61706	0.15031
3723.68869	0.14889
3721.76032	0.14781
3719.83194	0.14709
3717.90357	0.14624
3715.97520	0.14517
3714.04682	0.14433
3712.11845	0.14407
3710.19008	0.14360
3708.26170	0.14221
3706.33333	0.14056
3704.40496	0.13894
3702.47658	0.13702
3700.54821	0.13434
3698.61984	0.13144
3696.69146	0.12901
3694.76309	0.12735
3692.83472	0.12599
3690.90635	0.12349
3688.97797	0.11891
3687.04960	0.11398
3685.12123	0.11013
3683.19285	0.10642
3681.26448	0.10208
3679.33611	0.09753
3677.40773	0.09325
3675.47936	0.08801
3673.55099	0.08250
3671.62261	0.07812
3669.69424	0.07262
3667.76587	0.06669
3665.83749	0.06212
3663.90912	0.05810
3661.98075	0.05439
3660.05237	0.05083
3658.12400	0.04695
3656.19563	0.04257
3654.26725	0.03893
3652.33888	0.03657
3650.41051	0.03410
3648.48213	0.03027
3646.55376	0.02642
3644.62539	0.02390
3642.69701	0.02208
3640.76864	0.02017
3638.84027	0.01811
3636.91189	0.01617
3634.98352	0.01433
3633.05515	0.01260
3631.12678	0.01094
3629.19840	0.00909
3627.27003	0.00816
3625.34166	0.00789
3623.41328	0.00703
3621.48491	0.00581
3619.55654	0.00479
3617.62816	0.00423
3615.69979	0.00412
3613.77142	0.00378
3611.84304	0.00306
3609.91467	0.00252
3607.98630	0.00257
3606.05792	0.00295
3604.12955	0.00282
3602.20118	0.00211
3600.27280	0.00140
3598.34443	0.00124
3596.41606	0.00157
3594.48768	0.00188
3592.55931	0.00160
3590.63094	0.00082
3588.70256	0.00080
3586.77419	0.00126
3584.84582	0.00116
3582.91744	0.00093
3580.98907	0.00066
3579.06070	0.00059
3577.13233	0.00075
3575.20395	0.00074
3573.27558	0.00076
3571.34721	0.00059
3569.41883	0.00052
3567.49046	0.00068
3565.56209	0.00095
3563.63371	0.00080
3561.70534	0.00089
3559.77697	0.00110
3557.84859	0.00107
3555.92022	0.00085
3553.99185	0.00106
3552.06347	0.00120
3550.13510	0.00108
3548.20673	0.00098
3546.27835	0.00079
3544.34998	0.00065
3542.42161	0.00102
3540.49323	0.00135
3538.56486	0.00128
3536.63649	0.00106
3534.70811	0.00098
3532.77974	0.00078
3530.85137	0.00065
3528.92299	0.00065
3526.99462	0.00046
3525.06625	0.00037
3523.13787	0.00057
3521.20950	0.00128
3519.28113	0.00144
3517.35276	0.00077
3515.42438	0.00040
3513.49601	0.00058
3511.56764	0.00085
3509.63926	0.00067
3507.71089	0.00043
3505.78252	0.00037
3503.85414	0.00037
3501.92577	0.00062
3499.99740	0.00104
3498.06902	0.00111
3496.14065	0.00067
3494.21228	0.00036
3492.28390	0.00080
3490.35553	0.00080
3488.42716	0.00063
3486.49878	0.00066
3484.57041	0.00083
3482.64204	0.00104
3480.71366	0.00099
3478.78529	0.00076
3476.85692	0.00059
3474.92854	0.00064
3473.00017	0.00054
3471.07180	0.00063
3469.14342	0.00087
3467.21505	0.00095
3465.28668	0.00090
3463.35831	0.00085
3461.42993	0.00081
3459.50156	0.00085
3457.57319	0.00076
3455.64481	0.00059
3453.71644	0.00082
3451.78807	0.00079
3449.85969	0.00065
3447.93132	0.00039
3446.00295	0.00092
3444.07457	0.00123
3442.14620	0.00111
3440.21783	0.00109
3438.28945	0.00122
3436.36108	0.00117
3434.43271	0.00079
3432.50433	0.00078
3430.57596	0.00054
3428.64759	0.00066
3426.71921	0.00107
3424.79084	0.00133
3422.86247	0.00133
3420.93409	0.00086
3419.00572	0.00097
3417.07735	0.00073
3415.14897	0.00069
3413.22060	0.00079
3411.29223	0.00048
3409.36385	0.00046
3407.43548	0.00069
3405.50711	0.00085
3403.57874	0.00083
3401.65036	0.00063
3399.72199	0.00052
3397.79362	0.00054
3395.86524	0.00055
3393.93687	0.00063
3392.00850	0.00049
3390.08012	0.00033
3388.15175	0.00068
3386.22338	0.00120
3384.29500	0.00135
3382.36663	0.00092
3380.43826	0.00062
3378.50988	0.00064
3376.58151	0.00042
3374.65314	0.00046
3372.72476	0.00066
3370.79639	0.00081
3368.86802	0.00097
3366.93964	0.00101
3365.01127	0.00113
3363.08290	0.00106
3361.15452	0.00079
3359.22615	0.00070
3357.29778	0.00101
3355.36940	0.00123
3353.44103	0.00112
3351.51266	0.00065
3349.58428	0.00059
3347.65591	0.00045
3345.72754	0.00029
3343.79917	0.00062
3341.87079	0.00150
3339.94242	0.00184
3338.01405	0.00158
3336.08567	0.00128
3334.15730	0.00138
3332.22893	0.00121
3330.30055	0.00089
3328.37218	0.00061
3326.44381	0.00051
3324.51543	0.00060
3322.58706	0.00077
3320.65869	0.00074
3318.73031	0.00042
3316.80194	0.00035
3314.87357	0.00044
3312.94519	0.00067
3311.01682	0.00053
3309.08845	0.00057
3307.16007	0.00068
3305.23170	0.00077
3303.30333	0.00096
3301.37495	0.00090
3299.44658	0.00053
3297.51821	0.00048
3295.58983	0.00058
3293.66146	0.00060
3291.73309	0.00052
3289.80472	0.00083
3287.87634	0.00130
3285.94797	0.00139
3284.01960	0.00110
3282.09122	0.00094
3280.16285	0.00120
3278.23448	0.00104
3276.30610	0.00094
3274.37773	0.00104
3272.44936	0.00072
3270.52098	0.00051
3268.59261	0.00063
3266.66424	0.00048
3264.73586	0.00069
3262.80749	0.00070
3260.87912	0.00048
3258.95074	0.00046
3257.02237	0.00070
3255.09400	0.00046
3253.16562	0.00055
3251.23725	0.00100
3249.30888	0.00104
3247.38050	0.00074
3245.45213	0.00066
3243.52376	0.00116
3241.59538	0.00139
3239.66701	0.00113
3237.73864	0.00111
3235.81026	0.00086
3233.88189	0.00060
3231.95352	0.00073
3230.02515	0.00085
3228.09677	0.00068
3226.16840	0.00115
3224.24003	0.00185
3222.31165	0.00185
3220.38328	0.00129
3218.45491	0.00097
3216.52653	0.00098
3214.59816	0.00061
3212.66979	0.00068
3210.74141	0.00088
3208.81304	0.00074
3206.88467	0.00069
3204.95629	0.00109
3203.02792	0.00107
3201.09955	0.00097
3199.17117	0.00072
3197.24280	0.00090
3195.31443	0.00099
3193.38605	0.00051
3191.45768	0.00065
3189.52931	0.00090
3187.60093	0.00115
3185.67256	0.00121
3183.74419	0.00082
3181.81581	0.00074
3179.88744	0.00069
3177.95907	0.00065
3176.03070	0.00062
3174.10232	0.00036
3172.17395	0.00028
3170.24558	0.00057
3168.31720	0.00083
3166.38883	0.00080
3164.46046	0.00051
3162.53208	0.00069
3160.60371	0.00076
3158.67534	0.00093
3156.74696	0.00150
3154.81859	0.00155
3152.89022	0.00101
3150.96184	0.00049
3149.03347	0.00069
3147.10510	0.00086
3145.17672	0.00060
3143.24835	0.00007
3141.31998	0.00034
3139.39160	0.00042
3137.46323	0.00079
3135.53486	0.00094
3133.60648	0.00074
3131.67811	0.00064
3129.74974	0.00070
3127.82136	0.00111
3125.89299	0.00104
3123.96462	0.00081
3122.03624	0.00083
3120.10787	0.00097
3118.17950	0.00104
3116.25113	0.00083
3114.32275	0.00050
3112.39438	0.00052
3110.46601	0.00100
3108.53763	0.00087
3106.60926	0.00069
3104.68089	0.00066
3102.75251	0.00059
3100.82414	0.00067
3098.89577	0.00060
3096.96739	0.00073
3095.03902	0.00083
3093.11065	0.00072
3091.18227	0.00076
3089.25390	0.00053
3087.32553	0.00013
3085.39715	0.00053
3083.46878	0.00111
3081.54041	0.00110
3079.61203	0.00073
3077.68366	0.00054
3075.75529	0.00039
3073.82691	0.00058
3071.89854	0.00081
3069.97017	0.00087
3068.04179	0.00122
3066.11342	0.00115
3064.18505	0.00089
3062.25668	0.00082
3060.32830	0.00086
3058.39993	0.00096
3056.47156	0.00085
3054.54318	0.00060
3052.61481	0.00054
3050.68644	0.00061
3048.75806	0.00048
3046.82969	0.00084
3044.90132	0.00106
3042.97294	0.00121
3041.04457	0.00150
3039.11620	0.00135
3037.18782	0.00085
3035.25945	0.00075
3033.33108	0.00040
3031.40270	0.00033
3029.47433	0.00049
3027.54596	0.00059
3025.61758	0.00058
3023.68921	0.00069
3021.76084	0.00069
3019.83246	0.00091
3017.90409	0.00101
3015.97572	0.00081
3014.04734	0.00056
3012.11897	0.00058
3010.19060	0.00069
3008.26222	0.00062
3006.33385	0.00048
3004.40548	0.00056
3002.47711	0.00095
3000.54873	0.00127
2998.62036	0.00138
2996.69199	0.00105
2994.76361	0.00088
2992.83524	0.00066
2990.90687	0.00052
2988.97849	0.00079
2987.05012	0.00081
2985.12175	0.00080
2983.19337	0.00089
2981.26500	0.00104
2979.33663	0.00094
2977.40825	0.00062
2975.47988	0.00083
2973.55151	0.00107
2971.62313	0.00092
2969.69476	0.00160
2967.76639	0.00165
2965.83801	0.00114
2963.90964	0.00119
2961.98127	0.00112
2960.05289	0.00069
2958.12452	0.00077
2956.19615	0.00067
2954.26777	0.00049
2952.33940	0.00046
2950.41103	0.00081
2948.48266	0.00088
2946.55428	0.00087
2944.62591	0.00083
2942.69754	0.00075
2940.76916	0.00063
2938.84079	0.00093
2936.91242	0.00119
2934.98404	0.00113
2933.05567	0.00073
2931.12730	0.00089
2929.19892	0.00059
2927.27055	0.00058
2925.34218	0.00083
2923.41380	0.00079
2921.48543	0.00094
2919.55706	0.00092
2917.62868	0.00084
2915.70031	0.00075
2913.77194	0.00056
2911.84356	0.00014
2909.91519	0.00072
2907.98682	0.00083
2906.05844	0.00062
2904.13007	0.00081
2902.20170	0.00073
2900.27332	0.00048
2898.34495	0.00025
2896.41658	0.00029
2894.48820	0.00045
2892.55983	0.00066
2890.63146	0.00083
2888.70309	0.00083
2886.77471	0.00055
2884.84634	0.00048
2882.91797	0.00090
2880.98959	0.00111
2879.06122	0.00090
2877.13285	0.00065
2875.20447	0.00054
2873.27610	0.00079
2871.34773	0.00101
2869.41935	0.00097
2867.49098	0.00087
2865.56261	0.00071
2863.63423	0.00056
2861.70586	0.00037
2859.77749	0.00041
2857.84911	0.00086
2855.92074	0.00086
2853.99237	0.00065
2852.06399	0.00039
2850.13562	0.00035
2848.20725	0.00092
2846.27887	0.00123
2844.35050	0.00078
2842.42213	0.00072
2840.49375	0.00097
2838.56538	0.00078
2836.63701	0.00079
2834.70863	0.00110
2832.78026	0.00119
2830.85189	0.00106
2828.92352	0.00105
2826.99514	0.00153
2825.06677	0.00178
2823.13840	0.00188
2821.21002	0.00175
2819.28165	0.00154
2817.35328	0.00180
2815.42490	0.00237
2813.49653	0.00261
2811.56816	0.00246
2809.63978	0.00255
2807.71141	0.00303
2805.78304	0.00350
2803.85466	0.00370
2801.92629	0.00390
2799.99792	0.00422
2798.06954	0.00458
2796.14117	0.00482
2794.21280	0.00483
2792.28442	0.00455
2790.35605	0.00427
2788.42768	0.00431
2786.49930	0.00464
2784.57093	0.00516
2782.64256	0.00568
2780.71418	0.00589
2778.78581	0.00590
2776.85744	0.00599
2774.92907	0.00606
2773.00069	0.00603
2771.07232	0.00613
2769.14395	0.00645
2767.21557	0.00672
2765.28720	0.00690
2763.35883	0.00716
2761.43045	0.00746
2759.50208	0.00778
2757.57371	0.00808
2755.64533	0.00827
2753.71696	0.00837
2751.78859	0.00841
2749.86021	0.00846
2747.93184	0.00873
2746.00347	0.00913
2744.07509	0.00938
2742.14672	0.00948
2740.21835	0.00964
2738.28997	0.00985
2736.36160	0.00980
2734.43323	0.00954
2732.50485	0.00948
2730.57648	0.00952
2728.64811	0.00961
2726.71973	0.00998
2724.79136	0.01039
2722.86299	0.01044
2720.93461	0.01040
2719.00624	0.01071
2717.07787	0.01121
2715.14950	0.01161
2713.22112	0.01190
2711.29275	0.01223
2709.36438	0.01272
2707.43600	0.01330
2705.50763	0.01374
2703.57926	0.01387
2701.65088	0.01390
2699.72251	0.01415
2697.79414	0.01457
2695.86576	0.01489
2693.93739	0.01511
2692.00902	0.01536
2690.08064	0.01549
2688.15227	0.01547
2686.22390	0.01560
2684.29552	0.01591
2682.36715	0.01616
2680.43878	0.01629
2678.51040	0.01642
2676.58203	0.01676
2674.65366	0.01745
2672.72528	0.01820
2670.79691	0.01861
2668.86854	0.01870
2666.94016	0.01876
2665.01179	0.01891
2663.08342	0.01901
2661.15505	0.01897
2659.22667	0.01901
2657.29830	0.01918
2655.36993	0.01933
2653.44155	0.01951
2651.51318	0.01978
2649.58481	0.02002
2647.65643	0.02009
2645.72806	0.02006
2643.79969	0.02010
2641.87131	0.02033
2639.94294	0.02065
2638.01457	0.02091
2636.08619	0.02101
2634.15782	0.02090
2632.22945	0.02070
2630.30107	0.02085
2628.37270	0.02134
2626.44433	0.02164
2624.51595	0.02163
2622.58758	0.02171
2620.65921	0.02201
2618.73083	0.02228
2616.80246	0.02250
2614.87409	0.02288
2612.94571	0.02332
2611.01734	0.02360
2609.08897	0.02363
2607.16059	0.02375
2605.23222	0.02439
2603.30385	0.02512
2601.37548	0.02535
2599.44710	0.02532
2597.51873	0.02541
2595.59036	0.02565
2593.66198	0.02599
2591.73361	0.02632
2589.80524	0.02652
2587.87686	0.02665
2585.94849	0.02674
2584.02012	0.02691
2582.09174	0.02734
2580.16337	0.02789
2578.23500	0.02822
2576.30662	0.02840
2574.37825	0.02867
2572.44988	0.02919
2570.52150	0.02986
2568.59313	0.03037
2566.66476	0.03067
2564.73638	0.03104
2562.80801	0.03160
2560.87964	0.03223
2558.95126	0.03278
2557.02289	0.03316
2555.09452	0.03357
2553.16614	0.03432
2551.23777	0.03520
2549.30940	0.03573
2547.38103	0.03590
2545.45265	0.03608
2543.52428	0.03645
2541.59591	0.03675
2539.66753	0.03677
2537.73916	0.03678
2535.81079	0.03698
2533.88241	0.03725
2531.95404	0.03754
2530.02567	0.03778
2528.09729	0.03784
2526.16892	0.03791
2524.24055	0.03807
2522.31217	0.03831
2520.38380	0.03875
2518.45543	0.03922
2516.52705	0.03963
2514.59868	0.04012
2512.67031	0.04052
2510.74193	0.04063
2508.81356	0.04074
2506.88519	0.04103
2504.95681	0.04144
2503.02844	0.04180
2501.10007	0.04197
2499.17169	0.04235
2497.24332	0.04316
2495.31495	0.04391
2493.38657	0.04428
2491.45820	0.04450
2489.52983	0.04481
2487.60146	0.04513
2485.67308	0.04557
2483.74471	0.04620
2481.81634	0.04673
2479.88796	0.04716
2477.95959	0.04794
2476.03122	0.04884
2474.10284	0.04936
2472.17447	0.04963
2470.24610	0.04995
2468.31772	0.05038
2466.38935	0.05089
2464.46098	0.05139
2462.53260	0.05189
2460.60423	0.05261
2458.67586	0.05347
2456.74748	0.05428
2454.81911	0.05493
2452.89074	0.05536
2450.96236	0.05579
2449.03399	0.05654
2447.10562	0.05733
2445.17724	0.05784
2443.24887	0.05833
2441.32050	0.05901
2439.39212	0.05964
2437.46375	0.06006
2435.53538	0.06030
2433.60700	0.06059
2431.67863	0.06118
2429.75026	0.06196
2427.82189	0.06259
2425.89351	0.06286
2423.96514	0.06298
2422.03677	0.06331
2420.10839	0.06373
2418.18002	0.06393
2416.25165	0.06412
2414.32327	0.06451
2412.39490	0.06499
2410.46653	0.06555
2408.53815	0.06601
2406.60978	0.06630
2404.68141	0.06683
2402.75303	0.06780
2400.82466	0.06867
2398.89629	0.06901
2396.96791	0.06935
2395.03954	0.07023
2393.11117	0.07119
2391.18279	0.07182
2389.25442	0.07240
2387.32605	0.07305
2385.39767	0.07374
2383.46930	0.07455
2381.54093	0.07535
2379.61255	0.07585
2377.68418	0.07613
2375.75581	0.07646
2373.82744	0.07726
2371.89906	0.07857
2369.97069	0.07953
2368.04232	0.07999
2366.11394	0.08119
2364.18557	0.08300
2362.25720	0.08416
2360.32882	0.08517
2358.40045	0.08613
2356.47208	0.08620
2354.54370	0.08628
2352.61533	0.08671
2350.68696	0.08653
2348.75858	0.08593
2346.83021	0.08591
2344.90184	0.08664
2342.97346	0.08720
2341.04509	0.08745
2339.11672	0.08763
2337.18834	0.08740
2335.25997	0.08714
2333.33160	0.08761
2331.40322	0.08820
2329.47485	0.08796
2327.54648	0.08752
2325.61810	0.08775
2323.68973	0.08849
2321.76136	0.08894
2319.83298	0.08874
2317.90461	0.08874
2315.97624	0.08935
2314.04787	0.09004
2312.11949	0.09059
2310.19112	0.09112
2308.26275	0.09164
2306.33437	0.09220
2304.40600	0.09283
2302.47763	0.09336
2300.54925	0.09374
2298.62088	0.09414
2296.69251	0.09472
2294.76413	0.09537
2292.83576	0.09591
2290.90739	0.09635
2288.97901	0.09666
2287.05064	0.09666
2285.12227	0.09663
2283.19389	0.09680
2281.26552	0.09691
2279.33715	0.09680
2277.40877	0.09671
2275.48040	0.09682
2273.55203	0.09704
2271.62365	0.09720
2269.69528	0.09711
2267.76691	0.09699
2265.83853	0.09710
2263.91016	0.09730
2261.98179	0.09741
2260.05342	0.09761
2258.12504	0.09797
2256.19667	0.09849
2254.26830	0.09904
2252.33992	0.09937
2250.41155	0.09959
2248.48318	0.09990
2246.55480	0.10016
2244.62643	0.10032
2242.69806	0.10061
2240.76968	0.10102
2238.84131	0.10137
2236.91294	0.10151
2234.98456	0.10149
2233.05619	0.10145
2231.12782	0.10163
2229.19944	0.10203
2227.27107	0.10233
2225.34270	0.10230
2223.41432	0.10198
2221.48595	0.10167
2219.55758	0.10162
2217.62920	0.10174
2215.70083	0.10187
2213.77246	0.10199
2211.84408	0.10206
2209.91571	0.10199
2207.98734	0.10185
2206.05896	0.10165
2204.13059	0.10136
2202.20222	0.10104
2200.27385	0.10087
2198.34547	0.10091
2196.41710	0.10090
2194.48873	0.10074
2192.56035	0.10050
2190.63198	0.10022
2188.70361	0.09993
2186.77523	0.09975
2184.84686	0.09974
2182.91849	0.09969
2180.99011	0.09948
2179.06174	0.09929
2177.13337	0.09927
2175.20499	0.09924
2173.27662	0.09912
2171.34825	0.09903
2169.41987	0.09903
2167.49150	0.09899
2165.56313	0.09887
2163.63475	0.09879
2161.70638	0.09886
2159.77801	0.09904
2157.84963	0.09918
2155.92126	0.09914
2153.99289	0.09901
2152.06451	0.09897
2150.13614	0.09908
2148.20777	0.09919
2146.27940	0.09915
2144.35102	0.09906
2142.42265	0.09910
2140.49428	0.09938
2138.56590	0.09976
2136.63753	0.09994
2134.70916	0.09995
2132.78078	0.09998
2130.85241	0.10009
2128.92404	0.10023
2126.99566	0.10041
2125.06729	0.10081
2123.13892	0.10142
2121.21054	0.10210
2119.28217	0.10269
2117.35380	0.10314
2115.42542	0.10356
2113.49705	0.10402
2111.56868	0.10452
2109.64030	0.10501
2107.71193	0.10536
2105.78356	0.10552
2103.85518	0.10569
2101.92681	0.10597
2099.99844	0.10627
2098.07006	0.10647
2096.14169	0.10657
2094.21332	0.10680
2092.28494	0.10719
2090.35657	0.10751
2088.42820	0.10769
2086.49983	0.10786
2084.57145	0.10808
2082.64308	0.10817
2080.71471	0.10810
2078.78633	0.10805
2076.85796	0.10811
2074.92959	0.10815
2073.00121	0.10810
2071.07284	0.10808
2069.14447	0.10823
2067.21609	0.10847
2065.28772	0.10883
2063.35935	0.10921
2061.43097	0.10959
2059.50260	0.11019
2057.57423	0.11087
2055.64585	0.11132
2053.71748	0.11170
2051.78911	0.11221
2049.86073	0.11285
2047.93236	0.11343
2046.00399	0.11391
2044.07561	0.11455
2042.14724	0.11544
2040.21887	0.11628
2038.29049	0.11685
2036.36212	0.11737
2034.43375	0.11801
2032.50538	0.11843
2030.57700	0.11858
2028.64863	0.11894
2026.72026	0.11950
2024.79188	0.11986
2022.86351	0.12010
2020.93514	0.12047
2019.00676	0.12100
2017.07839	0.12149
2015.15002	0.12183
2013.22164	0.12214
2011.29327	0.12264
2009.36490	0.12333
2007.43652	0.12395
2005.50815	0.12433
2003.57978	0.12466
2001.65140	0.12523
1999.72303	0.12584
1997.79466	0.12626
1995.86628	0.12666
1993.93791	0.12712
1992.00954	0.12744
1990.08116	0.12754
1988.15279	0.12757
1986.22442	0.12765
1984.29604	0.12777
1982.36767	0.12794
1980.43930	0.12810
1978.51092	0.12813
1976.58255	0.12808
1974.65418	0.12812
1972.72581	0.12832
1970.79743	0.12869
1968.86906	0.12916
1966.94069	0.12948
1965.01231	0.12961
1963.08394	0.12991
1961.15557	0.13042
1959.22719	0.13098
1957.29882	0.13158
1955.37045	0.13208
1953.44207	0.13239
1951.51370	0.13290
1949.58533	0.13371
1947.65695	0.13458
1945.72858	0.13539
1943.80021	0.13615
1941.87183	0.13679
1939.94346	0.13726
1938.01509	0.13763
1936.08671	0.13804
1934.15834	0.13854
1932.22997	0.13900
1930.30159	0.13935
1928.37322	0.13975
1926.44485	0.14029
1924.51647	0.14090
1922.58810	0.14142
1920.65973	0.14170
1918.73135	0.14205
1916.80298	0.14250
1914.87461	0.14274
1912.94624	0.14289
1911.01786	0.14321
1909.08949	0.14355
1907.16112	0.14367
1905.23274	0.14359
1903.30437	0.14358
1901.37600	0.14376
1899.44762	0.14386
1897.51925	0.14385
1895.59088	0.14397
1893.66250	0.14429
1891.73413	0.14466
1889.80576	0.14486
1887.87738	0.14471
1885.94901	0.14463
1884.02064	0.14492
1882.09226	0.14528
1880.16389	0.14541
1878.23552	0.14553
1876.30714	0.14585
1874.37877	0.14619
1872.45040	0.14644
1870.52202	0.14675
1868.59365	0.14697
1866.66528	0.14684
1864.73690	0.14642
1862.80853	0.14599
1860.88016	0.14573
1858.95179	0.14556
1857.02341	0.14528
1855.09504	0.14502
1853.16667	0.14488
1851.23829	0.14477
1849.30992	0.14461
1847.38155	0.14436
1845.45317	0.14400
1843.52480	0.14369
1841.59643	0.14344
1839.66805	0.14304
1837.73968	0.14244
1835.81131	0.14196
1833.88293	0.14176
1831.95456	0.14166
1830.02619	0.14137
1828.09781	0.14082
1826.16944	0.14013
1824.24107	0.13911
1822.31269	0.13790
1820.38432	0.13690
1818.45595	0.13596
1816.52757	0.13494
1814.59920	0.13395
1812.67083	0.13296
1810.74245	0.13166
1808.81408	0.13020
1806.88571	0.12891
1804.95733	0.12768
1803.02896	0.12629
1801.10059	0.12452
1799.17222	0.12224
1797.24384	0.11982
1795.31547	0.11759
1793.38710	0.11517
1791.45872	0.11220
1789.53035	0.10941
1787.60198	0.10696
1785.67360	0.10432
1783.74523	0.10166
1781.81686	0.09937
1779.88848	0.09712
1777.96011	0.09471
1776.03174	0.09252
1774.10336	0.09051
1772.17499	0.08811
1770.24662	0.08528
1768.31824	0.08254
1766.38987	0.08011
1764.46150	0.07807
1762.53312	0.07574
1760.60475	0.07270
1758.67638	0.06943
1756.74800	0.06587
1754.81963	0.06238
1752.89126	0.05904
1750.96288	0.05497
1749.03451	0.05020
1747.10614	0.04576
1745.17777	0.04164
1743.24939	0.03784
1741.32102	0.03436
1739.39265	0.03054
1737.46427	0.02702
1735.53590	0.02394
1733.60753	0.01996
1731.67915	0.01632
1729.75078	0.01394
1727.82241	0.01174
1725.89403	0.00940
1723.96566	0.00720
1722.03729	0.00559
1720.10891	0.00468
1718.18054	0.00413
1716.25217	0.00321
1714.32379	0.00199
1712.39542	0.00131
1710.46705	0.00117
1708.53867	0.00103
1706.61030	0.00065
1704.68193	0.00049
1702.75355	0.00063
1700.82518	0.00059
1698.89681	0.00055
1696.96843	0.00054
1695.04006	0.00092
1693.11169	0.00091
1691.18331	0.00078
1689.25494	0.00068
1687.32657	0.00097
1685.39820	0.00096
1683.46982	0.00063
1681.54145	0.00063
1679.61308	0.00048
1677.68470	0.00056
1675.75633	0.00051
1673.82796	0.00051
1671.89958	0.00095
1669.97121	0.00094
1668.04284	0.00071
1666.11446	0.00030
1664.18609	0.00071
1662.25772	0.00070
1660.32934	0.00051
1658.40097	0.00045
1656.47260	0.00038
1654.54422	0.00052
1652.61585	0.00073
1650.68748	0.00089
1648.75910	0.00064
1646.83073	0.00030
1644.90236	0.00030
1642.97398	0.00029
1641.04561	0.00061
1639.11724	0.00056
1637.18886	0.00048
1635.26049	0.00019
1633.33212	0.00018
1631.40375	0.00022
1629.47537	0.00039
1627.54700	0.00069
1625.61863	0.00078
1623.69025	0.00077
1621.76188	0.00084
1619.83351	0.00079
1617.90513	0.00091
1615.97676	0.00070
1614.04839	0.00070
1612.12001	0.00067
1610.19164	0.00050
1608.26327	0.00037
1606.33489	0.00028
1604.40652	0.00036
1602.47815	0.00053
1600.54977	0.00041
1598.62140	0.00019
1596.69303	0.00007
1594.76465	0.00017
1592.83628	0.00026
1590.90791	0.00017
1588.97953	0.00014
1587.05116	0.00023
1585.12279	0.00032
1583.19441	0.00045
1581.26604	0.00051
1579.33767	0.00046
1577.40929	0.00063
1575.48092	0.00075
1573.55255	0.00058
1571.62418	0.00037
1569.69580	0.00039
1567.76743	0.00040
1565.83906	0.00049
1563.91068	0.00064
1561.98231	0.00084
1560.05394	0.00100
1558.12556	0.00094
1556.19719	0.00070
1554.26882	0.00051
1552.34044	0.00051
1550.41207	0.00038
1548.48370	0.00032
1546.55532	0.00034
1544.62695	0.00027
1542.69858	0.00034
1540.77020	0.00063
1538.84183	0.00087
1536.91346	0.00081
1534.98508	0.00059
1533.05671	0.00043
1531.12834	0.00038
1529.19996	0.00075
1527.27159	0.00097
1525.34322	0.00076
1523.41484	0.00067
1521.48647	0.00096
1519.55810	0.00092
1517.62972	0.00059
1515.70135	0.00066
1513.77298	0.00074
1511.84461	0.00086
1509.91623	0.00094
1507.98786	0.00059
1506.05949	0.00065
1504.13111	0.00062
1502.20274	0.00060
1500.27437	0.00065
1498.34599	0.00059
1496.41762	0.00040
1494.48925	0.00045
1492.56087	0.00051
1490.63250	0.00045
1488.70413	0.00038
1486.77575	0.00048
1484.84738	0.00052
1482.91901	0.00053
1480.99063	0.00061
1479.06226	0.00039
1477.13389	0.00053
1475.20551	0.00112
1473.27714	0.00130
1471.34877	0.00072
1469.42039	0.00090
1467.49202	0.00080
1465.56365	0.00058
1463.63527	0.00079
1461.70690	0.00089
1459.77853	0.00108
1457.85016	0.00163
1455.92178	0.00140
1453.99341	0.00081
1452.06504	0.00080
1450.13666	0.00057
1448.20829	0.00039
1446.27992	0.00026
1444.35154	0.00019
1442.42317	0.00021
1440.49480	0.00037
1438.56642	0.00066
1436.63805	0.00070
1434.70968	0.00050
1432.78130	0.00061
1430.85293	0.00063
1428.92456	0.00055
1426.99618	0.00050
1425.06781	0.00060
1423.13944	0.00078
1421.21106	0.00047
1419.28269	0.00050
1417.35432	0.00070
1415.42594	0.00063
1413.49757	0.00041
1411.56920	0.00037
1409.64082	0.00052
1407.71245	0.00063
1405.78408	0.00081
1403.85570	0.00091
1401.92733	0.00080
1399.99896	0.00068
1398.07059	0.00090
1396.14221	0.00086
1394.21384	0.00061
1392.28547	0.00061
1390.35709	0.00053
1388.42872	0.00080
1386.50035	0.00090
1384.57197	0.00066
1382.64360	0.00079
1380.71523	0.00083
1378.78685	0.00052
1376.85848	0.00057
1374.93011	0.00066
1373.00173	0.00060
1371.07336	0.00073
1369.14499	0.00102
1367.21661	0.00079
1365.28824	0.00077
1363.35987	0.00077
1361.43149	0.00074
1359.50312	0.00078
1357.57475	0.00091
1355.64637	0.00102
1353.71800	0.00065
1351.78963	0.00031
1349.86125	0.00067
1347.93288	0.00096
1346.00451	0.00085
1344.07614	0.00074
1342.14776	0.00057
1340.21939	0.00055
1338.29102	0.00055
1336.36264	0.00066
1334.43427	0.00091
1332.50590	0.00101
1330.57752	0.00093
1328.64915	0.00045
1326.72078	0.00041
1324.79240	0.00069
1322.86403	0.00072
1320.93566	0.00064
1319.00728	0.00063
1317.07891	0.00070
1315.15054	0.00099
1313.22216	0.00115
1311.29379	0.00084
1309.36542	0.00055
1307.43704	0.00058
1305.50867	0.00047
1303.58030	0.00063
1301.65192	0.00072
1299.72355	0.00092
1297.79518	0.00092
1295.86680	0.00060
1293.93843	0.00045
1292.01006	0.00032
1290.08168	0.00065
1288.15331	0.00098
1286.22494	0.00079
1284.29657	0.00056
1282.36819	0.00056
1280.43982	0.00082
1278.51145	0.00065
1276.58307	0.00030
1274.65470	0.00065
1272.72633	0.00077
1270.79795	0.00045
1268.86958	0.00046
1266.94121	0.00062
1265.01283	0.00059
1263.08446	0.00086
1261.15609	0.00093
1259.22771	0.00137
1257.29934	0.00129
1255.37097	0.00120
1253.44259	0.00120
1251.51422	0.00115
1249.58585	0.00098
1247.65747	0.00053
1245.72910	0.00064
1243.80073	0.00122
1241.87235	0.00117
1239.94398	0.00136
1238.01561	0.00127
1236.08723	0.00039
1234.15886	0.00066
1232.23049	0.00051
1230.30212	0.00087
1228.37374	0.00133
1226.44537	0.00153
1224.51700	0.00138
1222.58862	0.00074
1220.66025	0.00057
1218.73188	0.00095
1216.80350	0.00117
1214.87513	0.00167
1212.94676	0.00188
1211.01838	0.00116
1209.09001	0.00068
1207.16164	0.00055
1205.23326	0.00070
1203.30489	0.00127
1201.37652	0.00180
1199.44814	0.00157
1197.51977	0.00164
1195.59140	0.00195
1193.66302	0.00207
1191.73465	0.00175
1189.80628	0.00103
1187.87790	0.00087
1185.94953	0.00082
1184.02116	0.00080
1182.09278	0.00095
1180.16441	0.00082
1178.23604	0.00111
1176.30766	0.00141
1174.37929	0.00119
1172.45092	0.00085
1170.52255	0.00100
1168.59417	0.00118
1166.66580	0.00110
1164.73743	0.00128
1162.80905	0.00192
1160.88068	0.00218
1158.95231	0.00167
1157.02393	0.00090
1155.09556	0.00051
1153.16719	0.00073
1151.23881	0.00072
1149.31044	0.00130
1147.38207	0.00154
1145.45369	0.00093
1143.52532	0.00138
1141.59695	0.00238
1139.66857	0.00218
1137.74020	0.00155
1135.81183	0.00179
1133.88345	0.00179
1131.95508	0.00148
1130.02671	0.00144
1128.09833	0.00124
1126.16996	0.00043
1124.24159	0.00065
1122.31321	0.00093
1120.38484	0.00149
1118.45647	0.00138
1116.52809	0.00088
1114.59972	0.00129
1112.67135	0.00141
1110.74298	0.00097
1108.81460	0.00126
1106.88623	0.00134
1104.95786	0.00142
1103.02948	0.00134
1101.10111	0.00117
1099.17274	0.00088
1097.24436	0.00101
1095.31599	0.00161
1093.38762	0.00089
1091.45924	0.00096
1089.53087	0.00135
1087.60250	0.00077
1085.67412	0.00058
1083.74575	0.00172
1081.81738	0.00224
1079.88900	0.00152
1077.96063	0.00082
1076.03226	0.00145
1074.10388	0.00176
1072.17551	0.00169
1070.24714	0.00108
1068.31876	0.00051
1066.39039	0.00060
1064.46202	0.00121
1062.53364	0.00193
1060.60527	0.00168
1058.67690	0.00132
1056.74853	0.00185
1054.82015	0.00214
1052.89178	0.00199
1050.96341	0.00119
1049.03503	0.00138
1047.10666	0.00166
1045.17829	0.00181
1043.24991	0.00184
1041.32154	0.00201
1039.39317	0.00180
1037.46479	0.00129
1035.53642	0.00087
1033.60805	0.00042
1031.67967	0.00108
1029.75130	0.00189
1027.82293	0.00181
1025.89455	0.00098
1023.96618	0.00085
1022.03781	0.00100
1020.10943	0.00162
1018.18106	0.00163
1016.25269	0.00089
1014.32431	0.00055
1012.39594	0.00082
1010.46757	0.00110
1008.53919	0.00102
1006.61082	0.00082
1004.68245	0.00062
1002.75407	0.00057
1000.82570	0.00094
998.89733	0.00102
996.96896	0.00077
995.04058	0.00065
993.11221	0.00087
991.18384	0.00080
989.25546	0.00038
987.32709	0.00073
985.39872	0.00124
983.47034	0.00161
981.54197	0.00168
979.61360	0.00168
977.68522	0.00144
975.75685	0.00106
973.82848	0.00077
971.90010	0.00071
969.97173	0.00082
968.04336	0.00044
966.11498	0.00091
964.18661	0.00139
962.25824	0.00143
960.32986	0.00143
958.40149	0.00133
956.47312	0.00129
954.54474	0.00192
952.61637	0.00199
950.68800	0.00172
948.75962	0.00220
946.83125	0.00249
944.90288	0.00253
942.97451	0.00291
941.04613	0.00380
939.11776	0.00481
937.18939	0.00615
935.26101	0.00792
933.33264	0.00941
931.40427	0.01039
929.47589	0.01063
927.54752	0.01002
925.61915	0.00915
923.69077	0.00849
921.76240	0.00831
919.83403	0.00892
917.90565	0.00987
915.97728	0.01055
914.04891	0.01102
912.12053	0.01111
910.19216	0.01023
908.26379	0.00859
906.33541	0.00714
904.40704	0.00603
902.47867	0.00487
900.55029	0.00383
898.62192	0.00366
896.69355	0.00423
894.76517	0.00500
892.83680	0.00547
890.90843	0.00550
888.98005	0.00617
887.05168	0.00787
885.12331	0.00920
883.19494	0.01000
881.26656	0.01089
879.33819	0.01130
877.40982	0.01111
875.48144	0.01138
873.55307	0.01202
871.62470	0.01228
869.69632	0.01223
867.76795	0.01215
865.83958	0.01198
863.91120	0.01179
861.98283	0.01162
860.05446	0.01181
858.12608	0.01214
856.19771	0.01172
854.26934	0.01098
852.34096	0.01106
850.41259	0.01165
848.48422	0.01150
846.55584	0.01047
844.62747	0.00959
842.69910	0.00904
840.77072	0.00790
838.84235	0.00667
836.91398	0.00630
834.98560	0.00606
833.05723	0.00532
831.12886	0.00527
829.20049	0.00585
827.27211	0.00570
825.34374	0.00502
823.41537	0.00438
821.48699	0.00390
819.55862	0.00394
817.63025	0.00466
815.70187	0.00519
813.77350	0.00555
811.84513	0.00589
809.91675	0.00591
807.98838	0.00525
806.06001	0.00487
804.13163	0.00409
802.20326	0.00260
800.27489	0.00352
798.34651	0.00436
796.41814	0.00344
794.48977	0.00232
792.56139	0.00148
790.63302	0.00147
788.70465	0.00209
786.77627	0.00292
784.84790	0.00280
782.91953	0.00176
780.99115	0.00184
779.06278	0.00156
777.13441	0.00069
775.20603	0.00018
773.27766	0.00104
771.34929	0.00259
769.42092	0.00338
767.49254	0.00270
765.56417	0.00171
763.63580	0.00119
761.70742	0.00081
759.77905	0.00093
757.85068	0.00153
755.92230	0.00129
753.99393	0.00120
752.06556	0.00172
750.13718	0.00163
748.20881	0.00164
746.28044	0.00332
744.35206	0.00481
742.42369	0.00425
740.49532	0.00175
738.56694	0.00100
736.63857	0.00132
734.71020	0.00082
732.78182	0.00163
730.85345	0.00258
728.92508	0.00204
726.99670	0.00094
725.06833	0.00275
723.13996	0.00323
721.21158	0.00292
719.28321	0.00349
717.35484	0.00323
715.42647	0.00153
713.49809	0.00157
711.56972	0.00266
709.64135	0.00296
707.71297	0.00231
705.78460	0.00223
703.85623	0.00287
701.92785	0.00253
699.99948	0.00189
698.07111	0.00245
696.14273	0.00264
694.21436	0.00189
692.28599	0.00156
690.35761	0.00116
688.42924	0.00089
686.50087	0.00305
684.57249	0.00355
682.64412	0.00281
680.71575	0.00263
678.78737	0.00199
676.85900	0.00260
674.93063	0.00181
673.00225	0.00302
671.07388	0.00652
669.14551	0.00806
667.21713	0.00566
665.28876	0.00286
663.36039	0.00172
661.43201	0.00223
659.50364	0.00387
657.57527	0.00482
655.64690	0.00268
653.71852	0.00306
651.79015	0.00530
649.86178	0.00503
647.93340	0.00425
646.00503	0.00371
644.07666	0.00384
642.14828	0.00528
640.21991	0.00440
638.29154	0.00365
636.36316	0.00350
634.43479	0.00282
632.50642	0.00367
630.57804	0.00767
628.64967	0.00788
626.72130	0.00436
624.79292	0.00466
622.86455	0.00465
620.93618	0.00403
619.00780	0.00461
617.07943	0.00270
615.15106	0.00253
613.22268	0.00591
611.29431	0.00689
609.36594	0.00835
607.43756	0.01170
605.50919	0.00943
603.58082	0.00594
601.65244	0.01384
599.72407	0.01613
