3997.51769	0.84428
3995.58931	0.84441
3993.66094	0.84469
3991.73257	0.84516
3989.80419	0.84557
3987.87582	0.84544
3985.94745	0.84525
3984.01907	0.84535
3982.09070	0.84537
3980.16233	0.84545
3978.23396	0.84580
3976.30558	0.84610
3974.37721	0.84617
3972.44884	0.84626
3970.52046	0.84645
3968.59209	0.84658
3966.66372	0.84680
3964.73534	0.84714
3962.80697	0.84758
3960.87860	0.84812
3958.95022	0.84868
3957.02185	0.84934
3955.09348	0.84976
3953.16510	0.84980
3951.23673	0.84991
3949.30836	0.85006
3947.37998	0.84986
3945.45161	0.84976
3943.52324	0.85007
3941.59486	0.85020
3939.66649	0.84994
3937.73812	0.84957
3935.80974	0.84928
3933.88137	0.84968
3931.95300	0.85091
3930.02462	0.85174
3928.09625	0.85217
3926.16788	0.85327
3924.23950	0.85424
3922.31113	0.85408
3920.38276	0.85380
3918.45439	0.85422
3916.52601	0.85442
3914.59764	0.85337
3912.66927	0.85193
3910.74089	0.85134
3908.81252	0.85200
3906.88415	0.85347
3904.95577	0.85489
3903.02740	0.85607
3901.09903	0.85694
3899.17065	0.85641
3897.24228	0.85504
3895.31391	0.85511
3893.38553	0.85659
3891.45716	0.85717
3889.52879	0.85644
3887.60041	0.85656
3885.67204	0.85745
3883.74367	0.85773
3881.81529	0.85768
3879.88692	0.85698
3877.95855	0.85564
3876.03017	0.85558
3874.10180	0.85727
3872.17343	0.85971
3870.24505	0.86137
3868.31668	0.86080
3866.38831	0.85955
3864.45994	0.85929
3862.53156	0.85895
3860.60319	0.85809
3858.67482	0.85797
3856.74644	0.85869
3854.81807	0.86032
3852.88970	0.86237
3850.96132	0.86126
3849.03295	0.85843
3847.10458	0.85669
3845.17620	0.85716
3843.24783	0.85914
3841.31946	0.86126
3839.39108	0.86304
3837.46271	0.86334
3835.53434	0.86176
3833.60596	0.86004
3831.67759	0.85891
3829.74922	0.85855
3827.82084	0.85892
3825.89247	0.85907
3823.96410	0.85923
3822.03572	0.86066
3820.10735	0.86181
3818.17898	0.86182
3816.25060	0.86209
3814.32223	0.86089
3812.39386	0.85832
3810.46548	0.85709
3808.53711	0.85805
3806.60874	0.85908
3804.68037	0.85923
3802.75199	0.86042
3800.82362	0.86079
3798.89525	0.85898
3796.96687	0.85770
3795.03850	0.85702
3793.11013	0.85646
3791.18175	0.85629
3789.25338	0.85610
3787.32501	0.85580
3785.39663	0.85572
3783.46826	0.85595
3781.53989	0.85649
3779.61151	0.85650
3777.68314	0.85516
3775.75477	0.85401
3773.82639	0.85406
3771.89802	0.85486
3769.96965	0.85579
3768.04127	0.85629
3766.11290	0.85640
3764.18453	0.85640
3762.25615	0.85681
3760.32778	0.85785
3758.39941	0.85790
3756.47103	0.85659
3754.54266	0.85664
3752.61429	0.85931
3750.68591	0.86205
3748.75754	0.86193
3746.82917	0.86179
3744.90080	0.86289
3742.97242	0.86222
3741.04405	0.85969
3739.11568	0.85855
3737.18730	0.86011
3735.25893	0.86203
3733.33056	0.86058
3731.40218	0.85766
3729.47381	0.85613
3727.54544	0.85604
3725.61706	0.85626
3723.68869	0.85608
3721.76032	0.85561
3719.83194	0.85463
3717.90357	0.85362
3715.97520	0.85325
3714.04682	0.85421
3712.11845	0.85695
3710.19008	0.85787
3708.26170	0.85468
3706.33333	0.85149
3704.40496	0.85083
3702.47658	0.85198
3700.54821	0.85206
3698.61984	0.85031
3696.69146	0.84862
3694.76309	0.84839
3692.83472	0.84995
3690.90635	0.85205
3688.97797	0.85154
3687.04960	0.84790
3685.12123	0.84493
3683.19285	0.84386
3681.26448	0.84405
3679.33611	0.84477
3677.40773	0.84577
3675.47936	0.84564
3673.55099	0.84351
3671.62261	0.84258
3669.69424	0.84159
3667.76587	0.83796
3665.83749	0.83439
3663.90912	0.83199
3661.98075	0.83005
3660.05237	0.82867
3658.12400	0.82849
3656.19563	0.82892
3654.26725	0.82861
3652.33888	0.82835
3650.41051	0.82820
3648.48213	0.82499
3646.55376	0.81946
3644.62539	0.81594
3642.69701	0.81441
3640.76864	0.81303
3638.84027	0.81071
3636.91189	0.80818
3634.98352	0.80629
3633.05515	0.80521
3631.12678	0.80501
3629.19840	0.80425
3627.27003	0.80054
3625.34166	0.79648
3623.41328	0.79417
3621.48491	0.79323
3619.55654	0.79222
3617.62816	0.78984
3615.69979	0.78698
3613.77142	0.78431
3611.84304	0.78200
3609.91467	0.78049
3607.98630	0.77898
3606.05792	0.77588
3604.12955	0.77204
3602.20118	0.76911
3600.27280	0.76677
3598.34443	0.76414
3596.41606	0.76183
3594.48768	0.75978
3592.55931	0.75729
3590.63094	0.75524
3588.70256	0.75367
3586.77419	0.75058
3584.84582	0.74615
3582.91744	0.74238
3580.98907	0.73937
3579.06070	0.73681
3577.13233	0.73452
3575.20395	0.73203
3573.27558	0.72963
3571.34721	0.72826
3569.41883	0.72773
3567.49046	0.72627
3565.56209	0.72248
3563.63371	0.71811
3561.70534	0.71452
3559.77697	0.71164
3557.84859	0.70892
3555.92022	0.70589
3553.99185	0.70267
3552.06347	0.69958
3550.13510	0.69723
3548.20673	0.69567
3546.27835	0.69390
3544.34998	0.69103
3542.42161	0.68753
3540.49323	0.68441
3538.56486	0.68185
3536.63649	0.67945
3534.70811	0.67725
3532.77974	0.67525
3530.85137	0.67269
3528.92299	0.66938
3526.99462	0.66654
3525.06625	0.66481
3523.13787	0.66321
3521.20950	0.66073
3519.28113	0.65761
3517.35276	0.65441
3515.42438	0.65153
3513.49601	0.64887
3511.56764	0.64603
3509.63926	0.64360
3507.71089	0.64161
3505.78252	0.63927
3503.85414	0.63659
3501.92577	0.63398
3499.99740	0.63122
3498.06902	0.62838
3496.14065	0.62615
3494.21228	0.62465
3492.28390	0.62325
3490.35553	0.62138
3488.42716	0.61896
3486.49878	0.61661
3484.57041	0.61494
3482.64204	0.61352
3480.71366	0.61185
3478.78529	0.61025
3476.85692	0.60880
3474.92854	0.60736
3473.00017	0.60574
3471.07180	0.60369
3469.14342	0.60160
3467.21505	0.59978
3465.28668	0.59812
3463.35831	0.59649
3461.42993	0.59479
3459.50156	0.59309
3457.57319	0.59126
3455.64481	0.58940
3453.71644	0.58803
3451.78807	0.58718
3449.85969	0.58630
3447.93132	0.58491
3446.00295	0.58289
3444.07457	0.58102
3442.14620	0.57968
3440.21783	0.57844
3438.28945	0.57708
3436.36108	0.57577
3434.43271	0.57467
3432.50433	0.57354
3430.57596	0.57232
3428.64759	0.57114
3426.71921	0.56957
3424.79084	0.56790
3422.86247	0.56707
3420.93409	0.56655
3419.00572	0.56499
3417.07735	0.56266
3415.14897	0.56095
3413.22060	0.56017
3411.29223	0.55922
3409.36385	0.55768
3407.43548	0.55664
3405.50711	0.55622
3403.57874	0.55526
3401.65036	0.55391
3399.72199	0.55306
3397.79362	0.55244
3395.86524	0.55136
3393.93687	0.54967
3392.00850	0.54750
3390.08012	0.54534
3388.15175	0.54405
3386.22338	0.54337
3384.29500	0.54206
3382.36663	0.54003
3380.43826	0.53793
3378.50988	0.53586
3376.58151	0.53401
3374.65314	0.53248
3372.72476	0.53111
3370.79639	0.52979
3368.86802	0.52814
3366.93964	0.52573
3365.01127	0.52280
3363.08290	0.52016
3361.15452	0.51809
3359.22615	0.51600
3357.29778	0.51343
3355.36940	0.51036
3353.44103	0.50685
3351.51266	0.50358
3349.58428	0.50081
3347.65591	0.49772
3345.72754	0.49400
3343.79917	0.48991
3341.87079	0.48569
3339.94242	0.48160
3338.01405	0.47769
3336.08567	0.47372
3334.15730	0.46956
3332.22893	0.46503
3330.30055	0.46014
3328.37218	0.45511
3326.44381	0.44973
3324.51543	0.44398
3322.58706	0.43825
3320.65869	0.43276
3318.73031	0.42769
3316.80194	0.42291
3314.87357	0.41777
3312.94519	0.41217
3311.01682	0.40642
3309.08845	0.40056
3307.16007	0.39477
3305.23170	0.38969
3303.30333	0.38536
3301.37495	0.38119
3299.44658	0.37714
3297.51821	0.37394
3295.58983	0.37173
3293.66146	0.37019
3291.73309	0.36958
3289.80472	0.37017
3287.87634	0.37165
3285.94797	0.37355
3284.01960	0.37581
3282.09122	0.37887
3280.16285	0.38312
3278.23448	0.38839
3276.30610	0.39399
3274.37773	0.39966
3272.44936	0.40567
3270.52098	0.41198
3268.59261	0.41818
3266.66424	0.42432
3264.73586	0.43055
3262.80749	0.43696
3260.87912	0.44375
3258.95074	0.45062
3257.02237	0.45700
3255.09400	0.46276
3253.16562	0.46835
3251.23725	0.47417
3249.30888	0.47995
3247.38050	0.48545
3245.45213	0.49122
3243.52376	0.49727
3241.59538	0.50257
3239.66701	0.50684
3237.73864	0.51080
3235.81026	0.51463
3233.88189	0.51817
3231.95352	0.52154
3230.02515	0.52490
3228.09677	0.52831
3226.16840	0.53156
3224.24003	0.53465
3222.31165	0.53798
3220.38328	0.54121
3218.45491	0.54380
3216.52653	0.54622
3214.59816	0.54895
3212.66979	0.55177
3210.74141	0.55482
3208.81304	0.55798
3206.88467	0.56044
3204.95629	0.56260
3203.02792	0.56532
3201.09955	0.56818
3199.17117	0.57096
3197.24280	0.57411
3195.31443	0.57756
3193.38605	0.58075
3191.45768	0.58355
3189.52931	0.58631
3187.60093	0.58915
3185.67256	0.59192
3183.74419	0.59445
3181.81581	0.59681
3179.88744	0.59921
3177.95907	0.60180
3176.03070	0.60463
3174.10232	0.60746
3172.17395	0.60989
3170.24558	0.61168
3168.31720	0.61345
3166.38883	0.61592
3164.46046	0.61856
3162.53208	0.62078
3160.60371	0.62306
3158.67534	0.62542
3156.74696	0.62723
3154.81859	0.62843
3152.89022	0.62961
3150.96184	0.63106
3149.03347	0.63240
3147.10510	0.63356
3145.17672	0.63480
3143.24835	0.63601
3141.31998	0.63696
3139.39160	0.63794
3137.46323	0.63930
3135.53486	0.64050
3133.60648	0.64101
3131.67811	0.64132
3129.74974	0.64184
3127.82136	0.64216
3125.89299	0.64212
3123.96462	0.64228
3122.03624	0.64277
3120.10787	0.64292
3118.17950	0.64231
3116.25113	0.64129
3114.32275	0.64042
3112.39438	0.63998
3110.46601	0.63969
3108.53763	0.63915
3106.60926	0.63862
3104.68089	0.63818
3102.75251	0.63726
3100.82414	0.63605
3098.89577	0.63515
3096.96739	0.63443
3095.03902	0.63357
3093.11065	0.63271
3091.18227	0.63192
3089.25390	0.63111
3087.32553	0.63022
3085.39715	0.62914
3083.46878	0.62794
3081.54041	0.62709
3079.61203	0.62706
3077.68366	0.62789
3075.75529	0.62903
3073.82691	0.62961
3071.89854	0.62934
3069.97017	0.62897
3068.04179	0.62911
3066.11342	0.62973
3064.18505	0.63066
3062.25668	0.63193
3060.32830	0.63363
3058.39993	0.63546
3056.47156	0.63718
3054.54318	0.63903
3052.61481	0.64113
3050.68644	0.64323
3048.75806	0.64510
3046.82969	0.64672
3044.90132	0.64836
3042.97294	0.65008
3041.04457	0.65152
3039.11620	0.65303
3037.18782	0.65504
3035.25945	0.65705
3033.33108	0.65874
3031.40270	0.66003
3029.47433	0.66084
3027.54596	0.66186
3025.61758	0.66371
3023.68921	0.66610
3021.76084	0.66845
3019.83246	0.67020
3017.90409	0.67107
3015.97572	0.67148
3014.04734	0.67191
3012.11897	0.67244
3010.19060	0.67300
3008.26222	0.67339
3006.33385	0.67362
3004.40548	0.67373
3002.47711	0.67359
3000.54873	0.67300
2998.62036	0.67150
2996.69199	0.66913
2994.76361	0.66668
2992.83524	0.66454
2990.90687	0.66249
2988.97849	0.65993
2987.05012	0.65621
2985.12175	0.65161
2983.19337	0.64704
2981.26500	0.64271
2979.33663	0.63831
2977.40825	0.63371
2975.47988	0.62885
2973.55151	0.62375
2971.62313	0.61890
2969.69476	0.61511
2967.76639	0.61248
2965.83801	0.61033
2963.90964	0.60868
2961.98127	0.60828
2960.05289	0.60907
2958.12452	0.61082
2956.19615	0.61372
2954.26777	0.61724
2952.33940	0.62071
2950.41103	0.62381
2948.48266	0.62588
2946.55428	0.62605
2944.62591	0.62445
2942.69754	0.62217
2940.76916	0.61977
2938.84079	0.61735
2936.91242	0.61482
2934.98404	0.61216
2933.05567	0.60980
2931.12730	0.60803
2929.19892	0.60741
2927.27055	0.60836
2925.34218	0.60984
2923.41380	0.61083
2921.48543	0.61175
2919.55706	0.61302
2917.62868	0.61554
2915.70031	0.62080
2913.77194	0.62797
2911.84356	0.63434
2909.91519	0.63913
2907.98682	0.64329
2906.05844	0.64719
2904.13007	0.65039
2902.20170	0.65300
2900.27332	0.65547
2898.34495	0.65737
2896.41658	0.65821
2894.48820	0.65865
2892.55983	0.65952
2890.63146	0.66062
2888.70309	0.66115
2886.77471	0.66107
2884.84634	0.66082
2882.91797	0.66012
2880.98959	0.65864
2879.06122	0.65687
2877.13285	0.65559
2875.20447	0.65508
2873.27610	0.65572
2871.34773	0.65829
2869.41935	0.66220
2867.49098	0.66586
2865.56261	0.66886
2863.63423	0.67147
2861.70586	0.67343
2859.77749	0.67465
2857.84911	0.67545
2855.92074	0.67581
2853.99237	0.67549
2852.06399	0.67459
2850.13562	0.67451
2848.20725	0.67720
2846.27887	0.68242
2844.35050	0.68785
2842.42213	0.69196
2840.49375	0.69487
2838.56538	0.69707
2836.63701	0.69890
2834.70863	0.70061
2832.78026	0.70215
2830.85189	0.70351
2828.92352	0.70470
2826.99514	0.70544
2825.06677	0.70595
2823.13840	0.70673
2821.21002	0.70754
2819.28165	0.70803
2817.35328	0.70838
2815.42490	0.70893
2813.49653	0.70989
2811.56816	0.71102
2809.63978	0.71181
2807.71141	0.71207
2805.78304	0.71206
2803.85466	0.71218
2801.92629	0.71279
2799.99792	0.71403
2798.06954	0.71559
2796.14117	0.71674
2794.21280	0.71703
2792.28442	0.71701
2790.35605	0.71726
2788.42768	0.71771
2786.49930	0.71835
2784.57093	0.71914
2782.64256	0.71998
2780.71418	0.72086
2778.78581	0.72134
2776.85744	0.72148
2774.92907	0.72211
2773.00069	0.72318
2771.07232	0.72394
2769.14395	0.72414
2767.21557	0.72422
2765.28720	0.72462
2763.35883	0.72538
2761.43045	0.72607
2759.50208	0.72644
2757.57371	0.72683
2755.64533	0.72749
2753.71696	0.72833
2751.78859	0.72916
2749.86021	0.72973
2747.93184	0.73005
2746.00347	0.73035
2744.07509	0.73074
2742.14672	0.73140
2740.21835	0.73226
2738.28997	0.73310
2736.36160	0.73382
2734.43323	0.73434
2732.50485	0.73476
2730.57648	0.73527
2728.64811	0.73586
2726.71973	0.73638
2724.79136	0.73687
2722.86299	0.73740
2720.93461	0.73803
2719.00624	0.73889
2717.07787	0.73957
2715.14950	0.73975
2713.22112	0.74000
2711.29275	0.74054
2709.36438	0.74117
2707.43600	0.74195
2705.50763	0.74257
2703.57926	0.74277
2701.65088	0.74302
2699.72251	0.74383
2697.79414	0.74496
2695.86576	0.74568
2693.93739	0.74577
2692.00902	0.74576
2690.08064	0.74614
2688.15227	0.74675
2686.22390	0.74727
2684.29552	0.74767
2682.36715	0.74795
2680.43878	0.74798
2678.51040	0.74797
2676.58203	0.74846
2674.65366	0.74943
2672.72528	0.75011
2670.79691	0.75012
2668.86854	0.75007
2666.94016	0.75047
2665.01179	0.75108
2663.08342	0.75158
2661.15505	0.75178
2659.22667	0.75190
2657.29830	0.75232
2655.36993	0.75276
2653.44155	0.75305
2651.51318	0.75358
2649.58481	0.75411
2647.65643	0.75437
2645.72806	0.75489
2643.79969	0.75565
2641.87131	0.75621
2639.94294	0.75653
2638.01457	0.75662
2636.08619	0.75680
2634.15782	0.75735
2632.22945	0.75800
2630.30107	0.75847
2628.37270	0.75872
2626.44433	0.75892
2624.51595	0.75933
2622.58758	0.75989
2620.65921	0.76031
2618.73083	0.76032
2616.80246	0.76035
2614.87409	0.76102
2612.94571	0.76174
2611.01734	0.76195
2609.08897	0.76234
2607.16059	0.76313
2605.23222	0.76379
2603.30385	0.76439
2601.37548	0.76512
2599.44710	0.76579
2597.51873	0.76622
2595.59036	0.76642
2593.66198	0.76668
2591.73361	0.76726
2589.80524	0.76798
2587.87686	0.76853
2585.94849	0.76889
2584.02012	0.76928
2582.09174	0.76983
2580.16337	0.77044
2578.23500	0.77085
2576.30662	0.77090
2574.37825	0.77106
2572.44988	0.77179
2570.52150	0.77262
2568.59313	0.77315
2566.66476	0.77370
2564.73638	0.77430
2562.80801	0.77472
2560.87964	0.77521
2558.95126	0.77604
2557.02289	0.77691
2555.09452	0.77743
2553.16614	0.77777
2551.23777	0.77798
2549.30940	0.77791
2547.38103	0.77802
2545.45265	0.77864
2543.52428	0.77945
2541.59591	0.78024
2539.66753	0.78111
2537.73916	0.78190
2535.81079	0.78230
2533.88241	0.78239
2531.95404	0.78268
2530.02567	0.78337
2528.09729	0.78418
2526.16892	0.78485
2524.24055	0.78526
2522.31217	0.78541
2520.38380	0.78559
2518.45543	0.78610
2516.52705	0.78684
2514.59868	0.78753
2512.67031	0.78791
2510.74193	0.78812
2508.81356	0.78859
2506.88519	0.78920
2504.95681	0.78979
2503.02844	0.79068
2501.10007	0.79181
2499.17169	0.79267
2497.24332	0.79311
2495.31495	0.79332
2493.38657	0.79346
2491.45820	0.79364
2489.52983	0.79394
2487.60146	0.79441
2485.67308	0.79504
2483.74471	0.79540
2481.81634	0.79532
2479.88796	0.79565
2477.95959	0.79664
2476.03122	0.79744
2474.10284	0.79786
2472.17447	0.79838
2470.24610	0.79904
2468.31772	0.79972
2466.38935	0.80044
2464.46098	0.80115
2462.53260	0.80162
2460.60423	0.80183
2458.67586	0.80223
2456.74748	0.80302
2454.81911	0.80375
2452.89074	0.80443
2450.96236	0.80533
2449.03399	0.80599
2447.10562	0.80623
2445.17724	0.80663
2443.24887	0.80735
2441.32050	0.80786
2439.39212	0.80793
2437.46375	0.80814
2435.53538	0.80901
2433.60700	0.81014
2431.67863	0.81100
2429.75026	0.81156
2427.82189	0.81210
2425.89351	0.81276
2423.96514	0.81323
2422.03677	0.81357
2420.10839	0.81405
2418.18002	0.81449
2416.25165	0.81496
2414.32327	0.81584
2412.39490	0.81691
2410.46653	0.81758
2408.53815	0.81774
2406.60978	0.81784
2404.68141	0.81819
2402.75303	0.81865
2400.82466	0.81927
2398.89629	0.82021
2396.96791	0.82108
2395.03954	0.82153
2393.11117	0.82195
2391.18279	0.82254
2389.25442	0.82305
2387.32605	0.82362
2385.39767	0.82444
2383.46930	0.82557
2381.54093	0.82716
2379.61255	0.82905
2377.68418	0.83110
2375.75581	0.83389
2373.82744	0.83779
2371.89906	0.84193
2369.97069	0.84533
2368.04232	0.84764
2366.11394	0.85011
2364.18557	0.85465
2362.25720	0.85949
2360.32882	0.86142
2358.40045	0.86060
2356.47208	0.85760
2354.54370	0.85270
2352.61533	0.84828
2350.68696	0.84579
2348.75858	0.84492
2346.83021	0.84595
2344.90184	0.84899
2342.97346	0.85199
2341.04509	0.85308
2339.11672	0.85314
2337.18834	0.85294
2335.25997	0.85226
2333.33160	0.85129
2331.40322	0.85098
2329.47485	0.85190
2327.54648	0.85309
2325.61810	0.85322
2323.68973	0.85248
2321.76136	0.85166
2319.83298	0.85060
2317.90461	0.84968
2315.97624	0.84955
2314.04787	0.84977
2312.11949	0.85001
2310.19112	0.85033
2308.26275	0.85027
2306.33437	0.84965
2304.40600	0.84901
2302.47763	0.84881
2300.54925	0.84898
2298.62088	0.84939
2296.69251	0.84985
2294.76413	0.85007
2292.83576	0.85028
2290.90739	0.85052
2288.97901	0.85039
2287.05064	0.85018
2285.12227	0.85054
2283.19389	0.85121
2281.26552	0.85167
2279.33715	0.85195
2277.40877	0.85233
2275.48040	0.85306
2273.55203	0.85402
2271.62365	0.85477
2269.69528	0.85522
2267.76691	0.85550
2265.83853	0.85562
2263.91016	0.85576
2261.98179	0.85609
2260.05342	0.85641
2258.12504	0.85667
2256.19667	0.85699
2254.26830	0.85735
2252.33992	0.85770
2250.41155	0.85804
2248.48318	0.85851
2246.55480	0.85915
2244.62643	0.85973
2242.69806	0.86027
2240.76968	0.86090
2238.84131	0.86139
2236.91294	0.86163
2234.98456	0.86189
2233.05619	0.86232
2231.12782	0.86294
2229.19944	0.86358
2227.27107	0.86397
2225.34270	0.86407
2223.41432	0.86404
2221.48595	0.86424
2219.55758	0.86494
2217.62920	0.86574
2215.70083	0.86628
2213.77246	0.86666
2211.84408	0.86690
2209.91571	0.86701
2207.98734	0.86725
2206.05896	0.86761
2204.13059	0.86795
2202.20222	0.86828
2200.27385	0.86854
2198.34547	0.86891
2196.41710	0.86953
2194.48873	0.87017
2192.56035	0.87069
2190.63198	0.87118
2188.70361	0.87147
2186.77523	0.87174
2184.84686	0.87237
2182.91849	0.87304
2180.99011	0.87325
2179.06174	0.87332
2177.13337	0.87379
2175.20499	0.87410
2173.27662	0.87384
2171.34825	0.87376
2169.41987	0.87430
2167.49150	0.87495
2165.56313	0.87531
2163.63475	0.87555
2161.70638	0.87608
2159.77801	0.87678
2157.84963	0.87700
2155.92126	0.87692
2153.99289	0.87717
2152.06451	0.87772
2150.13614	0.87823
2148.20777	0.87857
2146.27940	0.87877
2144.35102	0.87888
2142.42265	0.87897
2140.49428	0.87927
2138.56590	0.87984
2136.63753	0.88036
2134.70916	0.88076
2132.78078	0.88126
2130.85241	0.88172
2128.92404	0.88196
2126.99566	0.88224
2125.06729	0.88268
2123.13892	0.88314
2121.21054	0.88350
2119.28217	0.88384
2117.35380	0.88439
2115.42542	0.88479
2113.49705	0.88469
2111.56868	0.88463
2109.64030	0.88494
2107.71193	0.88551
2105.78356	0.88605
2103.85518	0.88609
2101.92681	0.88583
2099.99844	0.88586
2098.07006	0.88611
2096.14169	0.88641
2094.21332	0.88689
2092.28494	0.88735
2090.35657	0.88759
2088.42820	0.88794
2086.49983	0.88862
2084.57145	0.88941
2082.64308	0.89010
2080.71471	0.89048
2078.78633	0.89049
2076.85796	0.89036
2074.92959	0.89032
2073.00121	0.89045
2071.07284	0.89085
2069.14447	0.89139
2067.21609	0.89189
2065.28772	0.89236
2063.35935	0.89271
2061.43097	0.89278
2059.50260	0.89283
2057.57423	0.89304
2055.64585	0.89315
2053.71748	0.89328
2051.78911	0.89366
2049.86073	0.89411
2047.93236	0.89455
2046.00399	0.89484
2044.07561	0.89485
2042.14724	0.89492
2040.21887	0.89524
2038.29049	0.89558
2036.36212	0.89583
2034.43375	0.89592
2032.50538	0.89595
2030.57700	0.89622
2028.64863	0.89673
2026.72026	0.89717
2024.79188	0.89721
2022.86351	0.89709
2020.93514	0.89747
2019.00676	0.89810
2017.07839	0.89829
2015.15002	0.89823
2013.22164	0.89832
2011.29327	0.89849
2009.36490	0.89869
2007.43652	0.89886
2005.50815	0.89896
2003.57978	0.89904
2001.65140	0.89918
1999.72303	0.89938
1997.79466	0.89939
1995.86628	0.89942
1993.93791	0.89983
1992.00954	0.90011
1990.08116	0.90000
1988.15279	0.89987
1986.22442	0.89982
1984.29604	0.89999
1982.36767	0.90020
1980.43930	0.90005
1978.51092	0.89991
1976.58255	0.90012
1974.65418	0.90029
1972.72581	0.90026
1970.79743	0.90049
1968.86906	0.90107
1966.94069	0.90135
1965.01231	0.90117
1963.08394	0.90113
1961.15557	0.90135
1959.22719	0.90152
1957.29882	0.90166
1955.37045	0.90166
1953.44207	0.90142
1951.51370	0.90125
1949.58533	0.90128
1947.65695	0.90153
1945.72858	0.90201
1943.80021	0.90244
1941.87183	0.90249
1939.94346	0.90230
1938.01509	0.90212
1936.08671	0.90197
1934.15834	0.90194
1932.22997	0.90200
1930.30159	0.90199
1928.37322	0.90212
1926.44485	0.90238
1924.51647	0.90271
1922.58810	0.90301
1920.65973	0.90309
1918.73135	0.90297
1916.80298	0.90250
1914.87461	0.90197
1912.94624	0.90191
1911.01786	0.90223
1909.08949	0.90267
1907.16112	0.90268
1905.23274	0.90221
1903.30437	0.90194
1901.37600	0.90198
1899.44762	0.90193
1897.51925	0.90167
1895.59088	0.90133
1893.66250	0.90124
1891.73413	0.90162
1889.80576	0.90187
1887.87738	0.90137
1885.94901	0.90058
1884.02064	0.90016
1882.09226	0.90022
1880.16389	0.90022
1878.23552	0.89976
1876.30714	0.89935
1874.37877	0.89964
1872.45040	0.90050
1870.52202	0.90148
1868.59365	0.90179
1866.66528	0.90114
1864.73690	0.90044
1862.80853	0.90004
1860.88016	0.89963
1858.95179	0.89909
1857.02341	0.89841
1855.09504	0.89785
1853.16667	0.89782
1851.23829	0.89815
1849.30992	0.89847
1847.38155	0.89887
1845.45317	0.89939
1843.52480	0.89925
1841.59643	0.89814
1839.66805	0.89700
1837.73968	0.89656
1835.81131	0.89675
1833.88293	0.89713
1831.95456	0.89768
1830.02619	0.89787
1828.09781	0.89701
1826.16944	0.89624
1824.24107	0.89576
1822.31269	0.89471
1820.38432	0.89359
1818.45595	0.89278
1816.52757	0.89207
1814.59920	0.89172
1812.67083	0.89176
1810.74245	0.89180
1808.81408	0.89167
1806.88571	0.89141
1804.95733	0.89109
1803.02896	0.89100
1801.10059	0.89095
1799.17222	0.89049
1797.24384	0.88976
1795.31547	0.88933
1793.38710	0.88936
1791.45872	0.88853
1789.53035	0.88655
1787.60198	0.88528
1785.67360	0.88484
1783.74523	0.88422
1781.81686	0.88336
1779.88848	0.88241
1777.96011	0.88133
1776.03174	0.88107
1774.10336	0.88202
1772.17499	0.88263
1770.24662	0.88126
1768.31824	0.87919
1766.38987	0.87741
1764.46150	0.87627
1762.53312	0.87566
1760.60475	0.87441
1758.67638	0.87260
1756.74800	0.87079
1754.81963	0.86920
1752.89126	0.86866
1750.96288	0.86862
1749.03451	0.86718
1747.10614	0.86411
1745.17777	0.86083
1743.24939	0.85781
1741.32102	0.85488
1739.39265	0.85205
1737.46427	0.84990
1735.53590	0.84858
1733.60753	0.84488
1731.67915	0.83807
1729.75078	0.83154
1727.82241	0.82553
1725.89403	0.82000
1723.96566	0.81395
1722.03729	0.80774
1720.10891	0.80292
1718.18054	0.79787
1716.25217	0.78850
1714.32379	0.77681
1712.39542	0.76556
1710.46705	0.75367
1708.53867	0.74014
1706.61030	0.72113
1704.68193	0.69681
1702.75355	0.67461
1700.82518	0.65104
1698.89681	0.62549
1696.96843	0.60523
1695.04006	0.58377
1693.11169	0.56391
1691.18331	0.54667
1689.25494	0.52758
1687.32657	0.50955
1685.39820	0.48951
1683.46982	0.46063
1681.54145	0.43730
1679.61308	0.42102
1677.68470	0.40553
1675.75633	0.38809
1673.82796	0.37033
1671.89958	0.35558
1669.97121	0.33948
1668.04284	0.32166
1666.11446	0.30790
1664.18609	0.29497
1662.25772	0.27961
1660.32934	0.26544
1658.40097	0.25471
1656.47260	0.24663
1654.54422	0.23897
1652.61585	0.23026
1650.68748	0.22678
1648.75910	0.22732
1646.83073	0.22980
1644.90236	0.23246
1642.97398	0.23427
1641.04561	0.23552
1639.11724	0.23602
1637.18886	0.23514
1635.26049	0.23250
1633.33212	0.23002
1631.40375	0.22939
1629.47537	0.23286
1627.54700	0.24408
1625.61863	0.26516
1623.69025	0.29917
1621.76188	0.34037
1619.83351	0.37492
1617.90513	0.40918
1615.97676	0.44991
1614.04839	0.48241
1612.12001	0.50692
1610.19164	0.53106
1608.26327	0.55396
1606.33489	0.57247
1604.40652	0.58713
1602.47815	0.59952
1600.54977	0.60926
1598.62140	0.61612
1596.69303	0.62103
1594.76465	0.62496
1592.83628	0.62803
1590.90791	0.62987
1588.97953	0.63004
1587.05116	0.62837
1585.12279	0.62507
1583.19441	0.62049
1581.26604	0.61525
1579.33767	0.60987
1577.40929	0.60254
1575.48092	0.58988
1573.55255	0.57728
1571.62418	0.56683
1569.69580	0.55283
1567.76743	0.53614
1565.83906	0.52087
1563.91068	0.50651
1561.98231	0.49458
1560.05394	0.48065
1558.12556	0.45618
1556.19719	0.43863
1554.26882	0.42773
1552.34044	0.41810
1550.41207	0.41012
1548.48370	0.40413
1546.55532	0.40114
1544.62695	0.40096
1542.69858	0.40270
1540.77020	0.40569
1538.84183	0.40801
1536.91346	0.40916
1534.98508	0.41139
1533.05671	0.41482
1531.12834	0.41750
1529.19996	0.41957
1527.27159	0.42203
1525.34322	0.42467
1523.41484	0.42730
1521.48647	0.42973
1519.55810	0.43122
1517.62972	0.43459
1515.70135	0.44259
1513.77298	0.45458
1511.84461	0.46982
1509.91623	0.48743
1507.98786	0.51133
1506.05949	0.54418
1504.13111	0.56501
1502.20274	0.57839
1500.27437	0.59398
1498.34599	0.61293
1496.41762	0.63226
1494.48925	0.64724
1492.56087	0.65885
1490.63250	0.67125
1488.70413	0.68303
1486.77575	0.68940
1484.84738	0.69228
1482.91901	0.69385
1480.99063	0.69433
1479.06226	0.69344
1477.13389	0.69085
1475.20551	0.68611
1473.27714	0.67781
1471.34877	0.66700
1469.42039	0.65891
1467.49202	0.65344
1465.56365	0.64731
1463.63527	0.63986
1461.70690	0.63430
1459.77853	0.63080
1457.85016	0.62521
1455.92178	0.61588
1453.99341	0.60988
1452.06504	0.60755
1450.13666	0.60716
1448.20829	0.60823
1446.27992	0.60986
1444.35154	0.61171
1442.42317	0.61435
1440.49480	0.61793
1438.56642	0.62244
1436.63805	0.62771
1434.70968	0.63214
1432.78130	0.63626
1430.85293	0.64216
1428.92456	0.64909
1426.99618	0.65450
1425.06781	0.65793
1423.13944	0.65950
1421.21106	0.65976
1419.28269	0.65928
1417.35432	0.65758
1415.42594	0.65558
1413.49757	0.65402
1411.56920	0.65268
1409.64082	0.65181
1407.71245	0.65169
1405.78408	0.65169
1403.85570	0.65135
1401.92733	0.65127
1399.99896	0.65182
1398.07059	0.65260
1396.14221	0.65287
1394.21384	0.65207
1392.28547	0.65103
1390.35709	0.65098
1388.42872	0.65152
1386.50035	0.65127
1384.57197	0.65054
1382.64360	0.65095
1380.71523	0.65255
1378.78685	0.65470
1376.85848	0.65771
1374.93011	0.66156
1373.00173	0.66519
1371.07336	0.66856
1369.14499	0.67270
1367.21661	0.67732
1365.28824	0.68180
1363.35987	0.68629
1361.43149	0.68990
1359.50312	0.69192
1357.57475	0.69277
1355.64637	0.69243
1353.71800	0.69125
1351.78963	0.69004
1349.86125	0.68894
1347.93288	0.68769
1346.00451	0.68631
1344.07614	0.68485
1342.14776	0.68352
1340.21939	0.68248
1338.29102	0.68150
1336.36264	0.68038
1334.43427	0.67917
1332.50590	0.67799
1330.57752	0.67724
1328.64915	0.67711
1326.72078	0.67719
1324.79240	0.67722
1322.86403	0.67721
1320.93566	0.67710
1319.00728	0.67677
1317.07891	0.67619
1315.15054	0.67542
1313.22216	0.67424
1311.29379	0.67304
1309.36542	0.67271
1307.43704	0.67275
1305.50867	0.67205
1303.58030	0.67083
1301.65192	0.66982
1299.72355	0.66930
1297.79518	0.66918
1295.86680	0.66901
1293.93843	0.66855
1292.01006	0.66793
1290.08168	0.66678
1288.15331	0.66461
1286.22494	0.66209
1284.29657	0.66033
1282.36819	0.65932
1280.43982	0.65862
1278.51145	0.65799
1276.58307	0.65694
1274.65470	0.65500
1272.72633	0.65279
1270.79795	0.65127
1268.86958	0.65044
1266.94121	0.64981
1265.01283	0.64892
1263.08446	0.64763
1261.15609	0.64650
1259.22771	0.64550
1257.29934	0.64368
1255.37097	0.64113
1253.44259	0.63871
1251.51422	0.63631
1249.58585	0.63394
1247.65747	0.63219
1245.72910	0.63076
1243.80073	0.62905
1241.87235	0.62746
1239.94398	0.62648
1238.01561	0.62597
1236.08723	0.62660
1234.15886	0.62899
1232.23049	0.63155
1230.30212	0.63342
1228.37374	0.63598
1226.44537	0.63983
1224.51700	0.64420
1222.58862	0.64871
1220.66025	0.65399
1218.73188	0.66021
1216.80350	0.66599
1214.87513	0.66972
1212.94676	0.67135
1211.01838	0.67249
1209.09001	0.67473
1207.16164	0.67821
1205.23326	0.68138
1203.30489	0.68312
1201.37652	0.68464
1199.44814	0.68746
1197.51977	0.69097
1195.59140	0.69355
1193.66302	0.69501
1191.73465	0.69646
1189.80628	0.69842
1187.87790	0.70041
1185.94953	0.70237
1184.02116	0.70388
1182.09278	0.70407
1180.16441	0.70334
1178.23604	0.70267
1176.30766	0.70181
1174.37929	0.70018
1172.45092	0.69786
1170.52255	0.69475
1168.59417	0.69115
1166.66580	0.68780
1164.73743	0.68462
1162.80905	0.68256
1160.88068	0.68281
1158.95231	0.68434
1157.02393	0.68659
1155.09556	0.69031
1153.16719	0.69450
1151.23881	0.69781
1149.31044	0.70122
1147.38207	0.70515
1145.45369	0.70804
1143.52532	0.70983
1141.59695	0.71179
1139.66857	0.71338
1137.74020	0.71339
1135.81183	0.71212
1133.88345	0.71009
1131.95508	0.70740
1130.02671	0.70454
1128.09833	0.70196
1126.16996	0.69982
1124.24159	0.69776
1122.31321	0.69578
1120.38484	0.69428
1118.45647	0.69308
1116.52809	0.69265
1114.59972	0.69348
1112.67135	0.69441
1110.74298	0.69479
1108.81460	0.69535
1106.88623	0.69609
1104.95786	0.69654
1103.02948	0.69695
1101.10111	0.69774
1099.17274	0.69813
1097.24436	0.69690
1095.31599	0.69513
1093.38762	0.69394
1091.45924	0.69226
1089.53087	0.68953
1087.60250	0.68603
1085.67412	0.68148
1083.74575	0.67622
1081.81738	0.67136
1079.88900	0.66787
1077.96063	0.66589
1076.03226	0.66490
1074.10388	0.66524
1072.17551	0.66785
1070.24714	0.67153
1068.31876	0.67414
1066.39039	0.67566
1064.46202	0.67728
1062.53364	0.67930
1060.60527	0.68138
1058.67690	0.68321
1056.74853	0.68454
1054.82015	0.68516
1052.89178	0.68493
1050.96341	0.68455
1049.03503	0.68467
1047.10666	0.68464
1045.17829	0.68444
1043.24991	0.68447
1041.32154	0.68328
1039.39317	0.68009
1037.46479	0.67673
1035.53642	0.67433
1033.60805	0.67267
1031.67967	0.67191
1029.75130	0.67183
1027.82293	0.67190
1025.89455	0.67247
1023.96618	0.67380
1022.03781	0.67534
1020.10943	0.67695
1018.18106	0.67917
1016.25269	0.68167
1014.32431	0.68401
1012.39594	0.68677
1010.46757	0.69019
1008.53919	0.69379
1006.61082	0.69700
1004.68245	0.69954
1002.75407	0.70193
1000.82570	0.70461
998.89733	0.70708
996.96896	0.70886
995.04058	0.71022
993.11221	0.71172
991.18384	0.71326
989.25546	0.71432
987.32709	0.71494
985.39872	0.71540
983.47034	0.71579
981.54197	0.71631
979.61360	0.71708
977.68522	0.71766
975.75685	0.71800
973.82848	0.71880
971.90010	0.71998
969.97173	0.72104
968.04336	0.72234
966.11498	0.72408
964.18661	0.72570
962.25824	0.72629
960.32986	0.72535
958.40149	0.72340
956.47312	0.72144
954.54474	0.72071
952.61637	0.72197
950.68800	0.72388
948.75962	0.72471
946.83125	0.72509
944.90288	0.72625
942.97451	0.72763
941.04613	0.72802
939.11776	0.72783
937.18939	0.72841
935.26101	0.72952
933.33264	0.72984
931.40427	0.72907
929.47589	0.72778
927.54752	0.72665
925.61915	0.72663
923.69077	0.72809
921.76240	0.72969
919.83403	0.73022
917.90565	0.73002
915.97728	0.72981
914.04891	0.72953
912.12053	0.72923
910.19216	0.72967
908.26379	0.73064
906.33541	0.73119
904.40704	0.73083
902.47867	0.72936
900.55029	0.72822
898.62192	0.72904
896.69355	0.73049
894.76517	0.73091
892.83680	0.73088
890.90843	0.73106
888.98005	0.73130
887.05168	0.73182
885.12331	0.73303
883.19494	0.73459
881.26656	0.73520
879.33819	0.73408
877.40982	0.73266
875.48144	0.73244
873.55307	0.73255
871.62470	0.73247
869.69632	0.73353
867.76795	0.73567
865.83958	0.73691
863.91120	0.73667
861.98283	0.73613
860.05446	0.73609
858.12608	0.73640
856.19771	0.73579
854.26934	0.73371
852.34096	0.73249
850.41259	0.73375
848.48422	0.73519
846.55584	0.73533
844.62747	0.73553
842.69910	0.73583
840.77072	0.73469
838.84235	0.73183
836.91398	0.72901
834.98560	0.72752
833.05723	0.72654
831.12886	0.72573
829.20049	0.72608
827.27211	0.72740
825.34374	0.72830
823.41537	0.72810
821.48699	0.72688
819.55862	0.72580
817.63025	0.72591
815.70187	0.72641
813.77350	0.72694
811.84513	0.72718
809.91675	0.72617
807.98838	0.72570
806.06001	0.72666
804.13163	0.72633
802.20326	0.72422
800.27489	0.72250
798.34651	0.72195
796.41814	0.72239
794.48977	0.72312
792.56139	0.72259
790.63302	0.72017
788.70465	0.71725
786.77627	0.71513
784.84790	0.71328
782.91953	0.71203
780.99115	0.71270
779.06278	0.71378
777.13441	0.71312
775.20603	0.71155
773.27766	0.71043
771.34929	0.70951
769.42092	0.70853
767.49254	0.70770
765.56417	0.70658
763.63580	0.70489
761.70742	0.70373
759.77905	0.70345
757.85068	0.70263
755.92230	0.70139
753.99393	0.70053
752.06556	0.69888
750.13718	0.69622
748.20881	0.69419
746.28044	0.69344
744.35206	0.69283
742.42369	0.69178
740.49532	0.69109
738.56694	0.69007
736.63857	0.68809
734.71020	0.68692
732.78182	0.68668
730.85345	0.68586
728.92508	0.68454
726.99670	0.68273
725.06833	0.68010
723.13996	0.67761
721.21158	0.67529
719.28321	0.67334
717.35484	0.67300
715.42647	0.67276
713.49809	0.67057
711.56972	0.66780
709.64135	0.66563
707.71297	0.66244
705.78460	0.65828
703.85623	0.65564
701.92785	0.65453
699.99948	0.65362
698.07111	0.65267
696.14273	0.65164
694.21436	0.65141
692.28599	0.65315
690.35761	0.65638
688.42924	0.65888
686.50087	0.65930
684.57249	0.65833
682.64412	0.65703
680.71575	0.65659
678.78737	0.65725
676.85900	0.65771
674.93063	0.65775
673.00225	0.65805
671.07388	0.65826
669.14551	0.65754
667.21713	0.65465
665.28876	0.65191
663.36039	0.65246
661.43201	0.65581
659.50364	0.65768
657.57527	0.65676
655.64690	0.65693
653.71852	0.65979
651.79015	0.66193
649.86178	0.66154
647.93340	0.66019
646.00503	0.65763
644.07666	0.65480
642.14828	0.65508
640.21991	0.65794
638.29154	0.65961
636.36316	0.65928
634.43479	0.65880
632.50642	0.65642
630.57804	0.65223
628.64967	0.65221
626.72130	0.65520
624.79292	0.65584
622.86455	0.65514
620.93618	0.65401
619.00780	0.65381
617.07943	0.65720
615.15106	0.65923
613.22268	0.65460
611.29431	0.64900
609.36594	0.65142
607.43756	0.66193
605.50919	0.67102
603.58082	0.67289
601.65244	0.67233
599.72407	0.67613
