3997.51769	0.20061
3995.58931	0.20090
3993.66094	0.20127
3991.73257	0.20155
3989.80419	0.20166
3987.87582	0.20186
3985.94745	0.20223
3984.01907	0.20258
3982.09070	0.20280
3980.16233	0.20290
3978.23396	0.20300
3976.30558	0.20315
3974.37721	0.20348
3972.44884	0.20405
3970.52046	0.20457
3968.59209	0.20511
3966.66372	0.20586
3964.73534	0.20646
3962.80697	0.20672
3960.87860	0.20715
3958.95022	0.20794
3957.02185	0.20878
3955.09348	0.20958
3953.16510	0.20989
3951.23673	0.20937
3949.30836	0.20898
3947.37998	0.20985
3945.45161	0.21095
3943.52324	0.21095
3941.59486	0.21143
3939.66649	0.21333
3937.73812	0.21493
3935.80974	0.21515
3933.88137	0.21405
3931.95300	0.21307
3930.02462	0.21400
3928.09625	0.21565
3926.16788	0.21587
3924.23950	0.21569
3922.31113	0.21663
3920.38276	0.21721
3918.45439	0.21677
3916.52601	0.21752
3914.59764	0.22040
3912.66927	0.22328
3910.74089	0.22476
3908.81252	0.22475
3906.88415	0.22245
3904.95577	0.21818
3903.02740	0.21528
3901.09903	0.21586
3899.17065	0.21921
3897.24228	0.22408
3895.31391	0.22727
3893.38553	0.22674
3891.45716	0.22556
3889.52879	0.22729
3887.60041	0.22849
3885.67204	0.22723
3883.74367	0.22658
3881.81529	0.22662
3879.88692	0.22806
3877.95855	0.23195
3876.03017	0.23334
3874.10180	0.23107
3872.17343	0.22862
3870.24505	0.22782
3868.31668	0.22987
3866.38831	0.23185
3864.45994	0.23162
3862.53156	0.23329
3860.60319	0.23743
3858.67482	0.23921
3856.74644	0.23648
3854.81807	0.22976
3852.88970	0.22521
3850.96132	0.23110
3849.03295	0.23933
3847.10458	0.24335
3845.17620	0.24248
3843.24783	0.23871
3841.31946	0.23446
3839.39108	0.23131
3837.46271	0.23166
3835.53434	0.23527
3833.60596	0.23865
3831.67759	0.24134
3829.74922	0.24353
3827.82084	0.24410
3825.89247	0.24366
3823.96410	0.24190
3822.03572	0.23730
3820.10735	0.23512
3818.17898	0.23809
3816.25060	0.24132
3814.32223	0.24588
3812.39386	0.25070
3810.46548	0.25173
3808.53711	0.24864
3806.60874	0.24511
3804.68037	0.24346
3802.75199	0.24064
3800.82362	0.23883
3798.89525	0.24151
3796.96687	0.24499
3795.03850	0.24893
3793.11013	0.25311
3791.18175	0.25520
3789.25338	0.25516
3787.32501	0.25371
3785.39663	0.25180
3783.46826	0.25103
3781.53989	0.25012
3779.61151	0.24849
3777.68314	0.24961
3775.75477	0.25271
3773.82639	0.25344
3771.89802	0.25047
3769.96965	0.24655
3768.04127	0.24535
3766.11290	0.24618
3764.18453	0.24744
3762.25615	0.24741
3760.32778	0.24442
3758.39941	0.24164
3756.47103	0.24157
3754.54266	0.23997
3752.61429	0.23385
3750.68591	0.22770
3748.75754	0.22818
3746.82917	0.23005
3744.90080	0.22968
3742.97242	0.23162
3741.04405	0.23497
3739.11568	0.23441
3737.18730	0.22850
3735.25893	0.22196
3733.33056	0.22290
3731.40218	0.22979
3729.47381	0.23478
3727.54544	0.23449
3725.61706	0.23127
3723.68869	0.22908
3721.76032	0.22897
3719.83194	0.23020
3717.90357	0.23136
3715.97520	0.23033
3714.04682	0.22535
3712.11845	0.21778
3710.19008	0.21436
3708.26170	0.21734
3706.33333	0.22033
3704.40496	0.21905
3702.47658	0.21441
3700.54821	0.21092
3698.61984	0.20963
3696.69146	0.20720
3694.76309	0.20234
3692.83472	0.19479
3690.90635	0.18467
3688.97797	0.17588
3687.04960	0.17221
3685.12123	0.17023
3683.19285	0.16593
3681.26448	0.15837
3679.33611	0.14870
3677.40773	0.13770
3675.47936	0.12617
3673.55099	0.11898
3671.62261	0.11423
3669.69424	0.10720
3667.76587	0.10126
3665.83749	0.09745
3663.90912	0.09240
3661.98075	0.08589
3660.05237	0.07925
3658.12400	0.07266
3656.19563	0.06576
3654.26725	0.05965
3652.33888	0.05421
3650.41051	0.04785
3648.48213	0.04187
3646.55376	0.03854
3644.62539	0.03640
3642.69701	0.03391
3640.76864	0.03095
3638.84027	0.02801
3636.91189	0.02524
3634.98352	0.02255
3633.05515	0.02004
3631.12678	0.01783
3629.19840	0.01553
3627.27003	0.01366
3625.34166	0.01284
3623.41328	0.01212
3621.48491	0.01091
3619.55654	0.00941
3617.62816	0.00819
3615.69979	0.00734
3613.77142	0.00665
3611.84304	0.00613
3609.91467	0.00545
3607.98630	0.00456
3606.05792	0.00401
3604.12955	0.00374
3602.20118	0.00334
3600.27280	0.00287
3598.34443	0.00248
3596.41606	0.00227
3594.48768	0.00207
3592.55931	0.00170
3590.63094	0.00141
3588.70256	0.00127
3586.77419	0.00119
3584.84582	0.00129
3582.91744	0.00131
3580.98907	0.00123
3579.06070	0.00106
3577.13233	0.00091
3575.20395	0.00083
3573.27558	0.00085
3571.34721	0.00083
3569.41883	0.00073
3567.49046	0.00061
3565.56209	0.00050
3563.63371	0.00050
3561.70534	0.00043
3559.77697	0.00036
3557.84859	0.00032
3555.92022	0.00041
3553.99185	0.00046
3552.06347	0.00042
3550.13510	0.00037
3548.20673	0.00046
3546.27835	0.00053
3544.34998	0.00047
3542.42161	0.00034
3540.49323	0.00028
3538.56486	0.00036
3536.63649	0.00044
3534.70811	0.00068
3532.77974	0.00089
3530.85137	0.00081
3528.92299	0.00053
3526.99462	0.00041
3525.06625	0.00028
3523.13787	0.00031
3521.20950	0.00037
3519.28113	0.00049
3517.35276	0.00045
3515.42438	0.00043
3513.49601	0.00047
3511.56764	0.00038
3509.63926	0.00035
3507.71089	0.00037
3505.78252	0.00036
3503.85414	0.00046
3501.92577	0.00070
3499.99740	0.00072
3498.06902	0.00057
3496.14065	0.00042
3494.21228	0.00030
3492.28390	0.00017
3490.35553	0.00015
3488.42716	0.00026
3486.49878	0.00030
3484.57041	0.00061
3482.64204	0.00080
3480.71366	0.00066
3478.78529	0.00042
3476.85692	0.00029
3474.92854	0.00038
3473.00017	0.00043
3471.07180	0.00026
3469.14342	0.00026
3467.21505	0.00029
3465.28668	0.00023
3463.35831	0.00034
3461.42993	0.00045
3459.50156	0.00049
3457.57319	0.00042
3455.64481	0.00025
3453.71644	0.00028
3451.78807	0.00024
3449.85969	0.00024
3447.93132	0.00027
3446.00295	0.00038
3444.07457	0.00051
3442.14620	0.00050
3440.21783	0.00038
3438.28945	0.00044
3436.36108	0.00049
3434.43271	0.00040
3432.50433	0.00026
3430.57596	0.00029
3428.64759	0.00023
3426.71921	0.00021
3424.79084	0.00022
3422.86247	0.00031
3420.93409	0.00046
3419.00572	0.00019
3417.07735	0.00030
3415.14897	0.00040
3413.22060	0.00013
3411.29223	0.00033
3409.36385	0.00060
3407.43548	0.00060
3405.50711	0.00044
3403.57874	0.00044
3401.65036	0.00049
3399.72199	0.00028
3397.79362	0.00031
3395.86524	0.00031
3393.93687	0.00037
3392.00850	0.00030
3390.08012	0.00020
3388.15175	0.00040
3386.22338	0.00046
3384.29500	0.00043
3382.36663	0.00035
3380.43826	0.00027
3378.50988	0.00023
3376.58151	0.00022
3374.65314	0.00034
3372.72476	0.00044
3370.79639	0.00038
3368.86802	0.00043
3366.93964	0.00055
3365.01127	0.00040
3363.08290	0.00026
3361.15452	0.00027
3359.22615	0.00023
3357.29778	0.00025
3355.36940	0.00031
3353.44103	0.00036
3351.51266	0.00031
3349.58428	0.00017
3347.65591	0.00015
3345.72754	0.00020
3343.79917	0.00028
3341.87079	0.00027
3339.94242	0.00029
3338.01405	0.00038
3336.08567	0.00036
3334.15730	0.00034
3332.22893	0.00038
3330.30055	0.00051
3328.37218	0.00042
3326.44381	0.00025
3324.51543	0.00034
3322.58706	0.00036
3320.65869	0.00009
3318.73031	0.00026
3316.80194	0.00044
3314.87357	0.00050
3312.94519	0.00036
3311.01682	0.00046
3309.08845	0.00059
3307.16007	0.00061
3305.23170	0.00063
3303.30333	0.00053
3301.37495	0.00037
3299.44658	0.00032
3297.51821	0.00024
3295.58983	0.00019
3293.66146	0.00023
3291.73309	0.00028
3289.80472	0.00048
3287.87634	0.00042
3285.94797	0.00040
3284.01960	0.00050
3282.09122	0.00044
3280.16285	0.00043
3278.23448	0.00055
3276.30610	0.00056
3274.37773	0.00048
3272.44936	0.00040
3270.52098	0.00043
3268.59261	0.00036
3266.66424	0.00023
3264.73586	0.00025
3262.80749	0.00031
3260.87912	0.00024
3258.95074	0.00028
3257.02237	0.00038
3255.09400	0.00047
3253.16562	0.00056
3251.23725	0.00053
3249.30888	0.00036
3247.38050	0.00033
3245.45213	0.00040
3243.52376	0.00034
3241.59538	0.00030
3239.66701	0.00031
3237.73864	0.00033
3235.81026	0.00025
3233.88189	0.00017
3231.95352	0.00034
3230.02515	0.00036
3228.09677	0.00049
3226.16840	0.00051
3224.24003	0.00047
3222.31165	0.00055
3220.38328	0.00054
3218.45491	0.00045
3216.52653	0.00052
3214.59816	0.00050
3212.66979	0.00040
3210.74141	0.00032
3208.81304	0.00022
3206.88467	0.00030
3204.95629	0.00018
3203.02792	0.00010
3201.09955	0.00020
3199.17117	0.00027
3197.24280	0.00044
3195.31443	0.00054
3193.38605	0.00047
3191.45768	0.00029
3189.52931	0.00047
3187.60093	0.00057
3185.67256	0.00043
3183.74419	0.00035
3181.81581	0.00030
3179.88744	0.00038
3177.95907	0.00027
3176.03070	0.00029
3174.10232	0.00030
3172.17395	0.00028
3170.24558	0.00043
3168.31720	0.00056
3166.38883	0.00051
3164.46046	0.00027
3162.53208	0.00012
3160.60371	0.00023
3158.67534	0.00036
3156.74696	0.00052
3154.81859	0.00052
3152.89022	0.00041
3150.96184	0.00033
3149.03347	0.00026
3147.10510	0.00035
3145.17672	0.00042
3143.24835	0.00036
3141.31998	0.00030
3139.39160	0.00044
3137.46323	0.00055
3135.53486	0.00038
3133.60648	0.00036
3131.67811	0.00034
3129.74974	0.00027
3127.82136	0.00031
3125.89299	0.00032
3123.96462	0.00018
3122.03624	0.00022
3120.10787	0.00030
3118.17950	0.00030
3116.25113	0.00028
3114.32275	0.00036
3112.39438	0.00036
3110.46601	0.00029
3108.53763	0.00025
3106.60926	0.00021
3104.68089	0.00030
3102.75251	0.00039
3100.82414	0.00038
3098.89577	0.00033
3096.96739	0.00034
3095.03902	0.00029
3093.11065	0.00014
3091.18227	0.00020
3089.25390	0.00029
3087.32553	0.00028
3085.39715	0.00040
3083.46878	0.00036
3081.54041	0.00035
3079.61203	0.00040
3077.68366	0.00032
3075.75529	0.00022
3073.82691	0.00014
3071.89854	0.00013
3069.97017	0.00021
3068.04179	0.00028
3066.11342	0.00023
3064.18505	0.00021
3062.25668	0.00011
3060.32830	0.00011
3058.39993	0.00040
3056.47156	0.00064
3054.54318	0.00062
3052.61481	0.00056
3050.68644	0.00051
3048.75806	0.00035
3046.82969	0.00026
3044.90132	0.00030
3042.97294	0.00009
3041.04457	0.00035
3039.11620	0.00049
3037.18782	0.00041
3035.25945	0.00026
3033.33108	0.00017
3031.40270	0.00012
3029.47433	0.00024
3027.54596	0.00043
3025.61758	0.00063
3023.68921	0.00066
3021.76084	0.00048
3019.83246	0.00034
3017.90409	0.00031
3015.97572	0.00033
3014.04734	0.00031
3012.11897	0.00030
3010.19060	0.00026
3008.26222	0.00010
3006.33385	0.00015
3004.40548	0.00034
3002.47711	0.00055
3000.54873	0.00062
2998.62036	0.00038
2996.69199	0.00010
2994.76361	0.00012
2992.83524	0.00019
2990.90687	0.00036
2988.97849	0.00039
2987.05012	0.00035
2985.12175	0.00047
2983.19337	0.00066
2981.26500	0.00057
2979.33663	0.00035
2977.40825	0.00016
2975.47988	0.00031
2973.55151	0.00057
2971.62313	0.00064
2969.69476	0.00058
2967.76639	0.00055
2965.83801	0.00060
2963.90964	0.00062
2961.98127	0.00051
2960.05289	0.00049
2958.12452	0.00054
2956.19615	0.00062
2954.26777	0.00060
2952.33940	0.00052
2950.41103	0.00067
2948.48266	0.00060
2946.55428	0.00036
2944.62591	0.00028
2942.69754	0.00019
2940.76916	0.00022
2938.84079	0.00047
2936.91242	0.00060
2934.98404	0.00042
2933.05567	0.00046
2931.12730	0.00061
2929.19892	0.00043
2927.27055	0.00021
2925.34218	0.00039
2923.41380	0.00061
2921.48543	0.00064
2919.55706	0.00053
2917.62868	0.00040
2915.70031	0.00037
2913.77194	0.00053
2911.84356	0.00057
2909.91519	0.00061
2907.98682	0.00049
2906.05844	0.00027
2904.13007	0.00030
2902.20170	0.00025
2900.27332	0.00033
2898.34495	0.00044
2896.41658	0.00034
2894.48820	0.00014
2892.55983	0.00024
2890.63146	0.00023
2888.70309	0.00019
2886.77471	0.00031
2884.84634	0.00043
2882.91797	0.00048
2880.98959	0.00036
2879.06122	0.00030
2877.13285	0.00043
2875.20447	0.00040
2873.27610	0.00029
2871.34773	0.00014
2869.41935	0.00026
2867.49098	0.00041
2865.56261	0.00037
2863.63423	0.00040
2861.70586	0.00050
2859.77749	0.00051
2857.84911	0.00057
2855.92074	0.00055
2853.99237	0.00054
2852.06399	0.00068
2850.13562	0.00079
2848.20725	0.00087
2846.27887	0.00096
2844.35050	0.00108
2842.42213	0.00115
2840.49375	0.00125
2838.56538	0.00141
2836.63701	0.00154
2834.70863	0.00158
2832.78026	0.00158
2830.85189	0.00172
2828.92352	0.00197
2826.99514	0.00209
2825.06677	0.00216
2823.13840	0.00238
2821.21002	0.00267
2819.28165	0.00279
2817.35328	0.00285
2815.42490	0.00307
2813.49653	0.00344
2811.56816	0.00371
2809.63978	0.00389
2807.71141	0.00410
2805.78304	0.00432
2803.85466	0.00444
2801.92629	0.00450
2799.99792	0.00464
2798.06954	0.00500
2796.14117	0.00554
2794.21280	0.00606
2792.28442	0.00637
2790.35605	0.00652
2788.42768	0.00673
2786.49930	0.00700
2784.57093	0.00728
2782.64256	0.00758
2780.71418	0.00783
2778.78581	0.00802
2776.85744	0.00827
2774.92907	0.00854
2773.00069	0.00875
2771.07232	0.00895
2769.14395	0.00920
2767.21557	0.00949
2765.28720	0.00973
2763.35883	0.00984
2761.43045	0.00991
2759.50208	0.01003
2757.57371	0.01020
2755.64533	0.01038
2753.71696	0.01069
2751.78859	0.01114
2749.86021	0.01156
2747.93184	0.01185
2746.00347	0.01212
2744.07509	0.01242
2742.14672	0.01258
2740.21835	0.01258
2738.28997	0.01262
2736.36160	0.01284
2734.43323	0.01321
2732.50485	0.01354
2730.57648	0.01379
2728.64811	0.01404
2726.71973	0.01431
2724.79136	0.01460
2722.86299	0.01493
2720.93461	0.01528
2719.00624	0.01569
2717.07787	0.01611
2715.14950	0.01652
2713.22112	0.01701
2711.29275	0.01750
2709.36438	0.01790
2707.43600	0.01833
2705.50763	0.01887
2703.57926	0.01947
2701.65088	0.02000
2699.72251	0.02039
2697.79414	0.02074
2695.86576	0.02113
2693.93739	0.02148
2692.00902	0.02173
2690.08064	0.02198
2688.15227	0.02230
2686.22390	0.02267
2684.29552	0.02297
2682.36715	0.02320
2680.43878	0.02348
2678.51040	0.02388
2676.58203	0.02438
2674.65366	0.02500
2672.72528	0.02552
2670.79691	0.02573
2668.86854	0.02592
2666.94016	0.02631
2665.01179	0.02669
2663.08342	0.02698
2661.15505	0.02731
2659.22667	0.02769
2657.29830	0.02797
2655.36993	0.02812
2653.44155	0.02825
2651.51318	0.02842
2649.58481	0.02859
2647.65643	0.02878
2645.72806	0.02898
2643.79969	0.02919
2641.87131	0.02946
2639.94294	0.02972
2638.01457	0.02992
2636.08619	0.03007
2634.15782	0.03023
2632.22945	0.03043
2630.30107	0.03062
2628.37270	0.03081
2626.44433	0.03114
2624.51595	0.03154
2622.58758	0.03184
2620.65921	0.03208
2618.73083	0.03234
2616.80246	0.03267
2614.87409	0.03301
2612.94571	0.03337
2611.01734	0.03380
2609.08897	0.03435
2607.16059	0.03492
2605.23222	0.03538
2603.30385	0.03575
2601.37548	0.03615
2599.44710	0.03653
2597.51873	0.03684
2595.59036	0.03716
2593.66198	0.03751
2591.73361	0.03783
2589.80524	0.03818
2587.87686	0.03860
2585.94849	0.03906
2584.02012	0.03951
2582.09174	0.03995
2580.16337	0.04038
2578.23500	0.04086
2576.30662	0.04139
2574.37825	0.04191
2572.44988	0.04242
2570.52150	0.04298
2568.59313	0.04367
2566.66476	0.04452
2564.73638	0.04541
2562.80801	0.04624
2560.87964	0.04709
2558.95126	0.04798
2557.02289	0.04883
2555.09452	0.04967
2553.16614	0.05056
2551.23777	0.05133
2549.30940	0.05190
2547.38103	0.05241
2545.45265	0.05291
2543.52428	0.05336
2541.59591	0.05380
2539.66753	0.05421
2537.73916	0.05457
2535.81079	0.05488
2533.88241	0.05517
2531.95404	0.05546
2530.02567	0.05582
2528.09729	0.05625
2526.16892	0.05664
2524.24055	0.05700
2522.31217	0.05739
2520.38380	0.05785
2518.45543	0.05836
2516.52705	0.05887
2514.59868	0.05936
2512.67031	0.05980
2510.74193	0.06021
2508.81356	0.06075
2506.88519	0.06141
2504.95681	0.06207
2503.02844	0.06273
2501.10007	0.06341
2499.17169	0.06409
2497.24332	0.06475
2495.31495	0.06553
2493.38657	0.06641
2491.45820	0.06725
2489.52983	0.06796
2487.60146	0.06861
2485.67308	0.06924
2483.74471	0.06998
2481.81634	0.07083
2479.88796	0.07169
2477.95959	0.07247
2476.03122	0.07322
2474.10284	0.07396
2472.17447	0.07471
2470.24610	0.07554
2468.31772	0.07648
2466.38935	0.07748
2464.46098	0.07847
2462.53260	0.07942
2460.60423	0.08036
2458.67586	0.08136
2456.74748	0.08241
2454.81911	0.08344
2452.89074	0.08444
2450.96236	0.08540
2449.03399	0.08627
2447.10562	0.08712
2445.17724	0.08796
2443.24887	0.08876
2441.32050	0.08958
2439.39212	0.09044
2437.46375	0.09126
2435.53538	0.09203
2433.60700	0.09287
2431.67863	0.09372
2429.75026	0.09444
2427.82189	0.09508
2425.89351	0.09569
2423.96514	0.09619
2422.03677	0.09660
2420.10839	0.09702
2418.18002	0.09758
2416.25165	0.09820
2414.32327	0.09885
2412.39490	0.09961
2410.46653	0.10049
2408.53815	0.10141
2406.60978	0.10242
2404.68141	0.10352
2402.75303	0.10464
2400.82466	0.10576
2398.89629	0.10694
2396.96791	0.10813
2395.03954	0.10927
2393.11117	0.11042
2391.18279	0.11149
2389.25442	0.11237
2387.32605	0.11311
2385.39767	0.11369
2383.46930	0.11401
2381.54093	0.11416
2379.61255	0.11424
2377.68418	0.11442
2375.75581	0.11477
2373.82744	0.11518
2371.89906	0.11552
2369.97069	0.11600
2368.04232	0.11671
2366.11394	0.11689
2364.18557	0.11640
2362.25720	0.11660
2360.32882	0.11777
2358.40045	0.11878
2356.47208	0.11969
2354.54370	0.12114
2352.61533	0.12292
2350.68696	0.12440
2348.75858	0.12531
2346.83021	0.12577
2344.90184	0.12586
2342.97346	0.12572
2341.04509	0.12569
2339.11672	0.12582
2337.18834	0.12609
2335.25997	0.12657
2333.33160	0.12711
2331.40322	0.12770
2329.47485	0.12832
2327.54648	0.12878
2325.61810	0.12913
2323.68973	0.12966
2321.76136	0.13054
2319.83298	0.13170
2317.90461	0.13300
2315.97624	0.13426
2314.04787	0.13549
2312.11949	0.13683
2310.19112	0.13827
2308.26275	0.13972
2306.33437	0.14116
2304.40600	0.14264
2302.47763	0.14410
2300.54925	0.14537
2298.62088	0.14641
2296.69251	0.14729
2294.76413	0.14804
2292.83576	0.14874
2290.90739	0.14944
2288.97901	0.15016
2287.05064	0.15088
2285.12227	0.15153
2283.19389	0.15203
2281.26552	0.15235
2279.33715	0.15253
2277.40877	0.15264
2275.48040	0.15274
2273.55203	0.15287
2271.62365	0.15306
2269.69528	0.15327
2267.76691	0.15342
2265.83853	0.15349
2263.91016	0.15361
2261.98179	0.15385
2260.05342	0.15416
2258.12504	0.15452
2256.19667	0.15500
2254.26830	0.15571
2252.33992	0.15661
2250.41155	0.15752
2248.48318	0.15829
2246.55480	0.15895
2244.62643	0.15964
2242.69806	0.16027
2240.76968	0.16074
2238.84131	0.16118
2236.91294	0.16161
2234.98456	0.16194
2233.05619	0.16220
2231.12782	0.16243
2229.19944	0.16257
2227.27107	0.16268
2225.34270	0.16280
2223.41432	0.16288
2221.48595	0.16291
2219.55758	0.16286
2217.62920	0.16269
2215.70083	0.16256
2213.77246	0.16250
2211.84408	0.16232
2209.91571	0.16206
2207.98734	0.16190
2206.05896	0.16181
2204.13059	0.16165
2202.20222	0.16142
2200.27385	0.16121
2198.34547	0.16097
2196.41710	0.16060
2194.48873	0.16016
2192.56035	0.15981
2190.63198	0.15959
2188.70361	0.15938
2186.77523	0.15913
2184.84686	0.15891
2182.91849	0.15873
2180.99011	0.15863
2179.06174	0.15865
2177.13337	0.15866
2175.20499	0.15850
2173.27662	0.15824
2171.34825	0.15804
2169.41987	0.15791
2167.49150	0.15772
2165.56313	0.15749
2163.63475	0.15733
2161.70638	0.15723
2159.77801	0.15713
2157.84963	0.15711
2155.92126	0.15729
2153.99289	0.15757
2152.06451	0.15773
2150.13614	0.15773
2148.20777	0.15772
2146.27940	0.15786
2144.35102	0.15811
2142.42265	0.15831
2140.49428	0.15841
2138.56590	0.15855
2136.63753	0.15877
2134.70916	0.15902
2132.78078	0.15934
2130.85241	0.15977
2128.92404	0.16024
2126.99566	0.16072
2125.06729	0.16125
2123.13892	0.16189
2121.21054	0.16267
2119.28217	0.16354
2117.35380	0.16435
2115.42542	0.16503
2113.49705	0.16568
2111.56868	0.16639
2109.64030	0.16717
2107.71193	0.16790
2105.78356	0.16851
2103.85518	0.16903
2101.92681	0.16951
2099.99844	0.16996
2098.07006	0.17040
2096.14169	0.17081
2094.21332	0.17118
2092.28494	0.17139
2090.35657	0.17144
2088.42820	0.17153
2086.49983	0.17166
2084.57145	0.17169
2082.64308	0.17167
2080.71471	0.17167
2078.78633	0.17163
2076.85796	0.17155
2074.92959	0.17158
2073.00121	0.17174
2071.07284	0.17196
2069.14447	0.17212
2067.21609	0.17213
2065.28772	0.17210
2063.35935	0.17241
2061.43097	0.17307
2059.50260	0.17381
2057.57423	0.17456
2055.64585	0.17538
2053.71748	0.17630
2051.78911	0.17728
2049.86073	0.17825
2047.93236	0.17920
2046.00399	0.18015
2044.07561	0.18106
2042.14724	0.18189
2040.21887	0.18283
2038.29049	0.18394
2036.36212	0.18501
2034.43375	0.18594
2032.50538	0.18669
2030.57700	0.18735
2028.64863	0.18797
2026.72026	0.18852
2024.79188	0.18900
2022.86351	0.18946
2020.93514	0.18985
2019.00676	0.19000
2017.07839	0.19029
2015.15002	0.19121
2013.22164	0.19241
2011.29327	0.19338
2009.36490	0.19419
2007.43652	0.19505
2005.50815	0.19599
2003.57978	0.19695
2001.65140	0.19783
1999.72303	0.19861
1997.79466	0.19934
1995.86628	0.19971
1993.93791	0.19935
1992.00954	0.19893
1990.08116	0.19939
1988.15279	0.20035
1986.22442	0.20121
1984.29604	0.20183
1982.36767	0.20211
1980.43930	0.20218
1978.51092	0.20225
1976.58255	0.20238
1974.65418	0.20256
1972.72581	0.20275
1970.79743	0.20273
1968.86906	0.20231
1966.94069	0.20217
1965.01231	0.20295
1963.08394	0.20395
1961.15557	0.20462
1959.22719	0.20521
1957.29882	0.20583
1955.37045	0.20652
1953.44207	0.20750
1951.51370	0.20867
1949.58533	0.20968
1947.65695	0.21029
1945.72858	0.21027
1943.80021	0.20987
1941.87183	0.21079
1939.94346	0.21345
1938.01509	0.21580
1936.08671	0.21699
1934.15834	0.21769
1932.22997	0.21830
1930.30159	0.21890
1928.37322	0.21941
1926.44485	0.21947
1924.51647	0.21876
1922.58810	0.21831
1920.65973	0.21863
1918.73135	0.21886
1916.80298	0.21994
1914.87461	0.22207
1912.94624	0.22311
1911.01786	0.22267
1909.08949	0.22236
1907.16112	0.22307
1905.23274	0.22402
1903.30437	0.22450
1901.37600	0.22471
1899.44762	0.22471
1897.51925	0.22416
1895.59088	0.22341
1893.66250	0.22318
1891.73413	0.22266
1889.80576	0.22188
1887.87738	0.22266
1885.94901	0.22431
1884.02064	0.22531
1882.09226	0.22590
1880.16389	0.22632
1878.23552	0.22660
1876.30714	0.22680
1874.37877	0.22661
1872.45040	0.22496
1870.52202	0.22111
1868.59365	0.21811
1866.66528	0.21980
1864.73690	0.22344
1862.80853	0.22523
1860.88016	0.22525
1858.95179	0.22488
1857.02341	0.22472
1855.09504	0.22464
1853.16667	0.22434
1851.23829	0.22341
1849.30992	0.22144
1847.38155	0.21837
1845.45317	0.21480
1843.52480	0.21386
1841.59643	0.21660
1839.66805	0.21869
1837.73968	0.21851
1835.81131	0.21789
1833.88293	0.21686
1831.95456	0.21349
1830.02619	0.20938
1828.09781	0.20817
1826.16944	0.20841
1824.24107	0.20863
1822.31269	0.20956
1820.38432	0.20972
1818.45595	0.20835
1816.52757	0.20657
1814.59920	0.20439
1812.67083	0.20104
1810.74245	0.19763
1808.81408	0.19595
1806.88571	0.19498
1804.95733	0.19266
1803.02896	0.18830
1801.10059	0.18324
1799.17222	0.17975
1797.24384	0.17728
1795.31547	0.17328
1793.38710	0.16708
1791.45872	0.16222
1789.53035	0.16113
1787.60198	0.15990
1785.67360	0.15621
1783.74523	0.15152
1781.81686	0.14701
1779.88848	0.14305
1777.96011	0.13981
1776.03174	0.13578
1774.10336	0.12967
1772.17499	0.12330
1770.24662	0.12016
1768.31824	0.11904
1766.38987	0.11732
1764.46150	0.11402
1762.53312	0.10883
1760.60475	0.10357
1758.67638	0.09923
1756.74800	0.09447
1754.81963	0.08941
1752.89126	0.08347
1750.96288	0.07565
1749.03451	0.06806
1747.10614	0.06251
1745.17777	0.05751
1743.24939	0.05201
1741.32102	0.04626
1739.39265	0.04066
1737.46427	0.03593
1735.53590	0.03119
1733.60753	0.02552
1731.67915	0.02112
1729.75078	0.01813
1727.82241	0.01522
1725.89403	0.01239
1723.96566	0.00979
1722.03729	0.00752
1720.10891	0.00561
1718.18054	0.00389
1716.25217	0.00257
1714.32379	0.00196
1712.39542	0.00158
1710.46705	0.00120
1708.53867	0.00082
1706.61030	0.00049
1704.68193	0.00029
1702.75355	0.00024
1700.82518	0.00037
1698.89681	0.00028
1696.96843	0.00022
1695.04006	0.00016
1693.11169	0.00020
1691.18331	0.00024
1689.25494	0.00022
1687.32657	0.00016
1685.39820	0.00018
1683.46982	0.00021
1681.54145	0.00022
1679.61308	0.00035
1677.68470	0.00041
1675.75633	0.00041
1673.82796	0.00038
1671.89958	0.00030
1669.97121	0.00027
1668.04284	0.00024
1666.11446	0.00022
1664.18609	0.00013
1662.25772	0.00016
1660.32934	0.00023
1658.40097	0.00024
1656.47260	0.00025
1654.54422	0.00027
1652.61585	0.00036
1650.68748	0.00013
1648.75910	0.00013
1646.83073	0.00023
1644.90236	0.00029
1642.97398	0.00028
1641.04561	0.00027
1639.11724	0.00029
1637.18886	0.00029
1635.26049	0.00035
1633.33212	0.00029
1631.40375	0.00022
1629.47537	0.00025
1627.54700	0.00023
1625.61863	0.00019
1623.69025	0.00014
1621.76188	0.00018
1619.83351	0.00025
1617.90513	0.00036
1615.97676	0.00036
1614.04839	0.00026
1612.12001	0.00017
1610.19164	0.00011
1608.26327	0.00011
1606.33489	0.00010
1604.40652	0.00009
1602.47815	0.00014
1600.54977	0.00024
1598.62140	0.00024
1596.69303	0.00013
1594.76465	0.00012
1592.83628	0.00016
1590.90791	0.00018
1588.97953	0.00016
1587.05116	0.00013
1585.12279	0.00019
1583.19441	0.00017
1581.26604	0.00016
1579.33767	0.00019
1577.40929	0.00016
1575.48092	0.00017
1573.55255	0.00012
1571.62418	0.00008
1569.69580	0.00016
1567.76743	0.00014
1565.83906	0.00011
1563.91068	0.00010
1561.98231	0.00015
1560.05394	0.00033
1558.12556	0.00048
1556.19719	0.00049
1554.26882	0.00047
1552.34044	0.00040
1550.41207	0.00028
1548.48370	0.00030
1546.55532	0.00039
1544.62695	0.00039
1542.69858	0.00033
1540.77020	0.00037
1538.84183	0.00030
1536.91346	0.00008
1534.98508	0.00013
1533.05671	0.00022
1531.12834	0.00033
1529.19996	0.00031
1527.27159	0.00017
1525.34322	0.00015
1523.41484	0.00027
1521.48647	0.00028
1519.55810	0.00019
1517.62972	0.00015
1515.70135	0.00024
1513.77298	0.00029
1511.84461	0.00027
1509.91623	0.00018
1507.98786	0.00011
1506.05949	0.00033
1504.13111	0.00042
1502.20274	0.00036
1500.27437	0.00032
1498.34599	0.00036
1496.41762	0.00029
1494.48925	0.00010
1492.56087	0.00006
1490.63250	0.00010
1488.70413	0.00026
1486.77575	0.00041
1484.84738	0.00029
1482.91901	0.00019
1480.99063	0.00016
1479.06226	0.00016
1477.13389	0.00020
1475.20551	0.00016
1473.27714	0.00016
1471.34877	0.00017
1469.42039	0.00017
1467.49202	0.00024
1465.56365	0.00030
1463.63527	0.00020
1461.70690	0.00028
1459.77853	0.00032
1457.85016	0.00020
1455.92178	0.00039
1453.99341	0.00033
1452.06504	0.00016
1450.13666	0.00021
1448.20829	0.00030
1446.27992	0.00030
1444.35154	0.00024
1442.42317	0.00023
1440.49480	0.00025
1438.56642	0.00023
1436.63805	0.00016
1434.70968	0.00013
1432.78130	0.00019
1430.85293	0.00021
1428.92456	0.00023
1426.99618	0.00023
1425.06781	0.00017
1423.13944	0.00011
1421.21106	0.00013
1419.28269	0.00013
1417.35432	0.00014
1415.42594	0.00012
1413.49757	0.00020
1411.56920	0.00024
1409.64082	0.00016
1407.71245	0.00006
1405.78408	0.00016
1403.85570	0.00025
1401.92733	0.00021
1399.99896	0.00022
1398.07059	0.00027
1396.14221	0.00025
1394.21384	0.00029
1392.28547	0.00023
1390.35709	0.00017
1388.42872	0.00012
1386.50035	0.00009
1384.57197	0.00023
1382.64360	0.00029
1380.71523	0.00025
1378.78685	0.00024
1376.85848	0.00025
1374.93011	0.00020
1373.00173	0.00023
1371.07336	0.00022
1369.14499	0.00048
1367.21661	0.00050
1365.28824	0.00026
1363.35987	0.00012
1361.43149	0.00017
1359.50312	0.00016
1357.57475	0.00010
1355.64637	0.00011
1353.71800	0.00020
1351.78963	0.00033
1349.86125	0.00030
1347.93288	0.00027
1346.00451	0.00034
1344.07614	0.00041
1342.14776	0.00032
1340.21939	0.00017
1338.29102	0.00019
1336.36264	0.00022
1334.43427	0.00020
1332.50590	0.00022
1330.57752	0.00030
1328.64915	0.00035
1326.72078	0.00035
1324.79240	0.00029
1322.86403	0.00027
1320.93566	0.00022
1319.00728	0.00023
1317.07891	0.00030
1315.15054	0.00031
1313.22216	0.00021
1311.29379	0.00021
1309.36542	0.00024
1307.43704	0.00024
1305.50867	0.00029
1303.58030	0.00037
1301.65192	0.00041
1299.72355	0.00039
1297.79518	0.00043
1295.86680	0.00039
1293.93843	0.00025
1292.01006	0.00020
1290.08168	0.00029
1288.15331	0.00030
1286.22494	0.00016
1284.29657	0.00029
1282.36819	0.00031
1280.43982	0.00023
1278.51145	0.00019
1276.58307	0.00020
1274.65470	0.00026
1272.72633	0.00023
1270.79795	0.00024
1268.86958	0.00033
1266.94121	0.00022
1265.01283	0.00027
1263.08446	0.00035
1261.15609	0.00022
1259.22771	0.00022
1257.29934	0.00017
1255.37097	0.00026
1253.44259	0.00042
1251.51422	0.00035
1249.58585	0.00010
1247.65747	0.00036
1245.72910	0.00052
1243.80073	0.00045
1241.87235	0.00028
1239.94398	0.00020
1238.01561	0.00024
1236.08723	0.00030
1234.15886	0.00039
1232.23049	0.00041
1230.30212	0.00051
1228.37374	0.00049
1226.44537	0.00058
1224.51700	0.00047
1222.58862	0.00030
1220.66025	0.00044
1218.73188	0.00036
1216.80350	0.00055
1214.87513	0.00071
1212.94676	0.00068
1211.01838	0.00070
1209.09001	0.00077
1207.16164	0.00058
1205.23326	0.00053
1203.30489	0.00040
1201.37652	0.00031
1199.44814	0.00029
1197.51977	0.00029
1195.59140	0.00039
1193.66302	0.00039
1191.73465	0.00035
1189.80628	0.00035
1187.87790	0.00043
1185.94953	0.00043
1184.02116	0.00032
1182.09278	0.00021
1180.16441	0.00036
1178.23604	0.00057
1176.30766	0.00053
1174.37929	0.00041
1172.45092	0.00030
1170.52255	0.00032
1168.59417	0.00050
1166.66580	0.00043
1164.73743	0.00030
1162.80905	0.00030
1160.88068	0.00034
1158.95231	0.00042
1157.02393	0.00052
1155.09556	0.00067
1153.16719	0.00068
1151.23881	0.00047
1149.31044	0.00021
1147.38207	0.00038
1145.45369	0.00041
1143.52532	0.00048
1141.59695	0.00055
1139.66857	0.00043
1137.74020	0.00062
1135.81183	0.00079
1133.88345	0.00058
1131.95508	0.00046
1130.02671	0.00035
1128.09833	0.00039
1126.16996	0.00026
1124.24159	0.00040
1122.31321	0.00027
1120.38484	0.00027
1118.45647	0.00055
1116.52809	0.00035
1114.59972	0.00030
1112.67135	0.00031
1110.74298	0.00037
1108.81460	0.00032
1106.88623	0.00036
1104.95786	0.00058
1103.02948	0.00046
1101.10111	0.00021
1099.17274	0.00065
1097.24436	0.00087
1095.31599	0.00061
1093.38762	0.00031
1091.45924	0.00044
1089.53087	0.00028
1087.60250	0.00042
1085.67412	0.00055
1083.74575	0.00025
1081.81738	0.00038
1079.88900	0.00050
1077.96063	0.00046
1076.03226	0.00040
1074.10388	0.00030
1072.17551	0.00062
1070.24714	0.00072
1068.31876	0.00036
1066.39039	0.00014
1064.46202	0.00038
1062.53364	0.00048
1060.60527	0.00037
1058.67690	0.00026
1056.74853	0.00052
1054.82015	0.00085
1052.89178	0.00089
1050.96341	0.00067
1049.03503	0.00062
1047.10666	0.00046
1045.17829	0.00021
1043.24991	0.00039
1041.32154	0.00024
1039.39317	0.00033
1037.46479	0.00058
1035.53642	0.00081
1033.60805	0.00087
1031.67967	0.00069
1029.75130	0.00042
1027.82293	0.00026
1025.89455	0.00042
1023.96618	0.00027
1022.03781	0.00012
1020.10943	0.00031
1018.18106	0.00031
1016.25269	0.00022
1014.32431	0.00014
1012.39594	0.00025
1010.46757	0.00045
1008.53919	0.00043
1006.61082	0.00035
1004.68245	0.00027
1002.75407	0.00040
1000.82570	0.00043
998.89733	0.00024
996.96896	0.00028
995.04058	0.00041
993.11221	0.00034
991.18384	0.00050
989.25546	0.00081
987.32709	0.00114
985.39872	0.00130
983.47034	0.00115
981.54197	0.00085
979.61360	0.00068
977.68522	0.00073
975.75685	0.00087
973.82848	0.00100
971.90010	0.00131
969.97173	0.00168
968.04336	0.00201
966.11498	0.00242
964.18661	0.00283
962.25824	0.00280
960.32986	0.00204
958.40149	0.00104
956.47312	0.00044
954.54474	0.00017
952.61637	0.00061
950.68800	0.00106
948.75962	0.00162
946.83125	0.00266
944.90288	0.00414
942.97451	0.00561
941.04613	0.00679
939.11776	0.00784
937.18939	0.00899
935.26101	0.01033
933.33264	0.01173
931.40427	0.01296
929.47589	0.01370
927.54752	0.01380
925.61915	0.01324
923.69077	0.01233
921.76240	0.01178
919.83403	0.01216
917.90565	0.01338
915.97728	0.01496
914.04891	0.01636
912.12053	0.01705
910.19216	0.01656
908.26379	0.01481
906.33541	0.01229
904.40704	0.00983
902.47867	0.00811
900.55029	0.00706
898.62192	0.00634
896.69355	0.00588
894.76517	0.00583
892.83680	0.00635
890.90843	0.00727
888.98005	0.00836
887.05168	0.00968
885.12331	0.01113
883.19494	0.01247
881.26656	0.01350
879.33819	0.01423
877.40982	0.01501
875.48144	0.01593
873.55307	0.01660
871.62470	0.01695
869.69632	0.01726
867.76795	0.01754
865.83958	0.01773
863.91120	0.01780
861.98283	0.01777
860.05446	0.01766
858.12608	0.01736
856.19771	0.01678
854.26934	0.01609
852.34096	0.01535
850.41259	0.01466
848.48422	0.01425
846.55584	0.01399
844.62747	0.01371
842.69910	0.01347
840.77072	0.01325
838.84235	0.01276
836.91398	0.01191
834.98560	0.01088
833.05723	0.00979
831.12886	0.00885
829.20049	0.00831
827.27211	0.00801
825.34374	0.00775
823.41537	0.00743
821.48699	0.00696
819.55862	0.00660
817.63025	0.00661
815.70187	0.00673
813.77350	0.00664
811.84513	0.00643
809.91675	0.00619
807.98838	0.00593
806.06001	0.00568
804.13163	0.00542
802.20326	0.00502
800.27489	0.00464
798.34651	0.00443
796.41814	0.00410
794.48977	0.00349
792.56139	0.00295
790.63302	0.00257
788.70465	0.00217
786.77627	0.00196
784.84790	0.00211
782.91953	0.00230
780.99115	0.00219
779.06278	0.00191
777.13441	0.00163
775.20603	0.00133
773.27766	0.00100
771.34929	0.00093
769.42092	0.00087
767.49254	0.00070
765.56417	0.00087
763.63580	0.00071
761.70742	0.00062
759.77905	0.00069
757.85068	0.00071
755.92230	0.00071
753.99393	0.00083
752.06556	0.00098
750.13718	0.00118
748.20881	0.00137
746.28044	0.00129
744.35206	0.00084
742.42369	0.00054
740.49532	0.00053
738.56694	0.00054
736.63857	0.00076
734.71020	0.00077
732.78182	0.00088
730.85345	0.00104
728.92508	0.00094
726.99670	0.00083
725.06833	0.00056
723.13996	0.00061
721.21158	0.00066
719.28321	0.00037
717.35484	0.00024
715.42647	0.00024
713.49809	0.00055
711.56972	0.00060
709.64135	0.00074
707.71297	0.00080
705.78460	0.00079
703.85623	0.00056
701.92785	0.00047
699.99948	0.00039
698.07111	0.00100
696.14273	0.00114
694.21436	0.00078
692.28599	0.00047
690.35761	0.00091
688.42924	0.00138
686.50087	0.00119
684.57249	0.00117
682.64412	0.00089
680.71575	0.00054
678.78737	0.00055
676.85900	0.00063
674.93063	0.00081
673.00225	0.00109
671.07388	0.00187
669.14551	0.00233
667.21713	0.00157
665.28876	0.00056
663.36039	0.00065
661.43201	0.00072
659.50364	0.00122
657.57527	0.00135
655.64690	0.00180
653.71852	0.00124
651.79015	0.00128
649.86178	0.00210
647.93340	0.00270
646.00503	0.00327
644.07666	0.00290
642.14828	0.00191
640.21991	0.00130
638.29154	0.00156
636.36316	0.00166
634.43479	0.00160
632.50642	0.00232
630.57804	0.00310
628.64967	0.00263
626.72130	0.00280
624.79292	0.00219
622.86455	0.00213
620.93618	0.00222
619.00780	0.00246
617.07943	0.00132
615.15106	0.00140
613.22268	0.00225
611.29431	0.00289
609.36594	0.00328
607.43756	0.00238
605.50919	0.00229
603.58082	0.00326
601.65244	0.00470
599.72407	0.00604
