3997.51769	0.08801
3995.58931	0.08818
3993.66094	0.08849
3991.73257	0.08899
3989.80419	0.08946
3987.87582	0.08963
3985.94745	0.08968
3984.01907	0.08989
3982.09070	0.08999
3980.16233	0.08971
3978.23396	0.08959
3976.30558	0.09003
3974.37721	0.09055
3972.44884	0.09069
3970.52046	0.09066
3968.59209	0.09070
3966.66372	0.09099
3964.73534	0.09136
3962.80697	0.09141
3960.87860	0.09139
3958.95022	0.09156
3957.02185	0.09195
3955.09348	0.09255
3953.16510	0.09304
3951.23673	0.09325
3949.30836	0.09327
3947.37998	0.09320
3945.45161	0.09322
3943.52324	0.09362
3941.59486	0.09451
3939.66649	0.09549
3937.73812	0.09614
3935.80974	0.09620
3933.88137	0.09598
3931.95300	0.09618
3930.02462	0.09674
3928.09625	0.09701
3926.16788	0.09700
3924.23950	0.09705
3922.31113	0.09724
3920.38276	0.09754
3918.45439	0.09778
3916.52601	0.09800
3914.59764	0.09838
3912.66927	0.09867
3910.74089	0.09874
3908.81252	0.09891
3906.88415	0.09944
3904.95577	0.10060
3903.02740	0.10212
3901.09903	0.10314
3899.17065	0.10347
3897.24228	0.10330
3895.31391	0.10303
3893.38553	0.10303
3891.45716	0.10310
3889.52879	0.10298
3887.60041	0.10325
3885.67204	0.10422
3883.74367	0.10508
3881.81529	0.10540
3879.88692	0.10540
3877.95855	0.10522
3876.03017	0.10558
3874.10180	0.10677
3872.17343	0.10798
3870.24505	0.10833
3868.31668	0.10796
3866.38831	0.10775
3864.45994	0.10790
3862.53156	0.10827
3860.60319	0.10881
3858.67482	0.10928
3856.74644	0.10969
3854.81807	0.11002
3852.88970	0.10980
3850.96132	0.10948
3849.03295	0.10948
3847.10458	0.10950
3845.17620	0.10974
3843.24783	0.11050
3841.31946	0.11153
3839.39108	0.11236
3837.46271	0.11233
3835.53434	0.11172
3833.60596	0.11153
3831.67759	0.11150
3829.74922	0.11120
3827.82084	0.11137
3825.89247	0.11215
3823.96410	0.11270
3822.03572	0.11268
3820.10735	0.11210
3818.17898	0.11165
3816.25060	0.11206
3814.32223	0.11247
3812.39386	0.11224
3810.46548	0.11223
3808.53711	0.11261
3806.60874	0.11271
3804.68037	0.11262
3802.75199	0.11323
3800.82362	0.11408
3798.89525	0.11386
3796.96687	0.11301
3795.03850	0.11222
3793.11013	0.11190
3791.18175	0.11221
3789.25338	0.11284
3787.32501	0.11314
3785.39663	0.11267
3783.46826	0.11205
3781.53989	0.11218
3779.61151	0.11269
3777.68314	0.11255
3775.75477	0.11198
3773.82639	0.11182
3771.89802	0.11222
3769.96965	0.11260
3768.04127	0.11272
3766.11290	0.11321
3764.18453	0.11370
3762.25615	0.11334
3760.32778	0.11249
3758.39941	0.11205
3756.47103	0.11229
3754.54266	0.11277
3752.61429	0.11296
3750.68591	0.11240
3748.75754	0.11170
3746.82917	0.11177
3744.90080	0.11185
3742.97242	0.11110
3741.04405	0.11050
3739.11568	0.11043
3737.18730	0.11021
3735.25893	0.10948
3733.33056	0.10880
3731.40218	0.10860
3729.47381	0.10861
3727.54544	0.10831
3725.61706	0.10772
3723.68869	0.10743
3721.76032	0.10724
3719.83194	0.10653
3717.90357	0.10571
3715.97520	0.10503
3714.04682	0.10424
3712.11845	0.10351
3710.19008	0.10270
3708.26170	0.10146
3706.33333	0.10034
3704.40496	0.09951
3702.47658	0.09815
3700.54821	0.09605
3698.61984	0.09417
3696.69146	0.09241
3694.76309	0.09064
3692.83472	0.08923
3690.90635	0.08739
3688.97797	0.08394
3687.04960	0.08024
3685.12123	0.07745
3683.19285	0.07499
3681.26448	0.07241
3679.33611	0.06926
3677.40773	0.06535
3675.47936	0.06084
3673.55099	0.05719
3671.62261	0.05446
3669.69424	0.05089
3667.76587	0.04723
3665.83749	0.04432
3663.90912	0.04113
3661.98075	0.03781
3660.05237	0.03506
3658.12400	0.03243
3656.19563	0.02903
3654.26725	0.02567
3652.33888	0.02324
3650.41051	0.02131
3648.48213	0.01954
3646.55376	0.01782
3644.62539	0.01617
3642.69701	0.01475
3640.76864	0.01349
3638.84027	0.01227
3636.91189	0.01114
3634.98352	0.01018
3633.05515	0.00922
3631.12678	0.00800
3629.19840	0.00647
3627.27003	0.00546
3625.34166	0.00486
3623.41328	0.00433
3621.48491	0.00386
3619.55654	0.00322
3617.62816	0.00250
3615.69979	0.00238
3613.77142	0.00223
3611.84304	0.00176
3609.91467	0.00176
3607.98630	0.00202
3606.05792	0.00156
3604.12955	0.00096
3602.20118	0.00118
3600.27280	0.00170
3598.34443	0.00154
3596.41606	0.00099
3594.48768	0.00130
3592.55931	0.00148
3590.63094	0.00126
3588.70256	0.00104
3586.77419	0.00098
3584.84582	0.00087
3582.91744	0.00088
3580.98907	0.00093
3579.06070	0.00092
3577.13233	0.00104
3575.20395	0.00129
3573.27558	0.00143
3571.34721	0.00141
3569.41883	0.00132
3567.49046	0.00111
3565.56209	0.00081
3563.63371	0.00068
3561.70534	0.00057
3559.77697	0.00049
3557.84859	0.00061
3555.92022	0.00077
3553.99185	0.00034
3552.06347	0.00040
3550.13510	0.00062
3548.20673	0.00053
3546.27835	0.00062
3544.34998	0.00132
3542.42161	0.00155
3540.49323	0.00126
3538.56486	0.00092
3536.63649	0.00079
3534.70811	0.00053
3532.77974	0.00040
3530.85137	0.00042
3528.92299	0.00031
3526.99462	0.00057
3525.06625	0.00049
3523.13787	0.00101
3521.20950	0.00128
3519.28113	0.00101
3517.35276	0.00054
3515.42438	0.00037
3513.49601	0.00123
3511.56764	0.00160
3509.63926	0.00105
3507.71089	0.00068
3505.78252	0.00099
3503.85414	0.00108
3501.92577	0.00079
3499.99740	0.00063
3498.06902	0.00112
3496.14065	0.00092
3494.21228	0.00083
3492.28390	0.00104
3490.35553	0.00071
3488.42716	0.00049
3486.49878	0.00071
3484.57041	0.00078
3482.64204	0.00076
3480.71366	0.00094
3478.78529	0.00121
3476.85692	0.00136
3474.92854	0.00134
3473.00017	0.00132
3471.07180	0.00133
3469.14342	0.00101
3467.21505	0.00044
3465.28668	0.00036
3463.35831	0.00095
3461.42993	0.00092
3459.50156	0.00066
3457.57319	0.00048
3455.64481	0.00084
3453.71644	0.00099
3451.78807	0.00066
3449.85969	0.00049
3447.93132	0.00080
3446.00295	0.00098
3444.07457	0.00111
3442.14620	0.00069
3440.21783	0.00025
3438.28945	0.00074
3436.36108	0.00082
3434.43271	0.00071
3432.50433	0.00058
3430.57596	0.00065
3428.64759	0.00086
3426.71921	0.00094
3424.79084	0.00081
3422.86247	0.00048
3420.93409	0.00031
3419.00572	0.00024
3417.07735	0.00043
3415.14897	0.00019
3413.22060	0.00030
3411.29223	0.00041
3409.36385	0.00045
3407.43548	0.00041
3405.50711	0.00056
3403.57874	0.00068
3401.65036	0.00056
3399.72199	0.00073
3397.79362	0.00086
3395.86524	0.00105
3393.93687	0.00105
3392.00850	0.00070
3390.08012	0.00070
3388.15175	0.00087
3386.22338	0.00049
3384.29500	0.00026
3382.36663	0.00048
3380.43826	0.00059
3378.50988	0.00112
3376.58151	0.00116
3374.65314	0.00108
3372.72476	0.00094
3370.79639	0.00076
3368.86802	0.00058
3366.93964	0.00067
3365.01127	0.00089
3363.08290	0.00068
3361.15452	0.00069
3359.22615	0.00108
3357.29778	0.00108
3355.36940	0.00090
3353.44103	0.00077
3351.51266	0.00095
3349.58428	0.00107
3347.65591	0.00082
3345.72754	0.00059
3343.79917	0.00142
3341.87079	0.00184
3339.94242	0.00144
3338.01405	0.00089
3336.08567	0.00135
3334.15730	0.00145
3332.22893	0.00122
3330.30055	0.00147
3328.37218	0.00194
3326.44381	0.00184
3324.51543	0.00144
3322.58706	0.00124
3320.65869	0.00112
3318.73031	0.00091
3316.80194	0.00096
3314.87357	0.00126
3312.94519	0.00114
3311.01682	0.00103
3309.08845	0.00142
3307.16007	0.00148
3305.23170	0.00103
3303.30333	0.00095
3301.37495	0.00144
3299.44658	0.00124
3297.51821	0.00055
3295.58983	0.00048
3293.66146	0.00062
3291.73309	0.00058
3289.80472	0.00045
3287.87634	0.00060
3285.94797	0.00065
3284.01960	0.00086
3282.09122	0.00065
3280.16285	0.00048
3278.23448	0.00055
3276.30610	0.00079
3274.37773	0.00080
3272.44936	0.00072
3270.52098	0.00058
3268.59261	0.00079
3266.66424	0.00123
3264.73586	0.00108
3262.80749	0.00078
3260.87912	0.00062
3258.95074	0.00074
3257.02237	0.00090
3255.09400	0.00089
3253.16562	0.00081
3251.23725	0.00048
3249.30888	0.00029
3247.38050	0.00044
3245.45213	0.00083
3243.52376	0.00102
3241.59538	0.00091
3239.66701	0.00111
3237.73864	0.00099
3235.81026	0.00054
3233.88189	0.00047
3231.95352	0.00071
3230.02515	0.00063
3228.09677	0.00039
3226.16840	0.00078
3224.24003	0.00108
3222.31165	0.00115
3220.38328	0.00112
3218.45491	0.00096
3216.52653	0.00054
3214.59816	0.00090
3212.66979	0.00102
3210.74141	0.00094
3208.81304	0.00080
3206.88467	0.00083
3204.95629	0.00122
3203.02792	0.00121
3201.09955	0.00062
3199.17117	0.00032
3197.24280	0.00077
3195.31443	0.00070
3193.38605	0.00048
3191.45768	0.00038
3189.52931	0.00045
3187.60093	0.00060
3185.67256	0.00075
3183.74419	0.00088
3181.81581	0.00096
3179.88744	0.00118
3177.95907	0.00093
3176.03070	0.00071
3174.10232	0.00053
3172.17395	0.00077
3170.24558	0.00091
3168.31720	0.00098
3166.38883	0.00099
3164.46046	0.00145
3162.53208	0.00135
3160.60371	0.00087
3158.67534	0.00064
3156.74696	0.00090
3154.81859	0.00115
3152.89022	0.00130
3150.96184	0.00118
3149.03347	0.00079
3147.10510	0.00069
3145.17672	0.00062
3143.24835	0.00091
3141.31998	0.00087
3139.39160	0.00085
3137.46323	0.00087
3135.53486	0.00064
3133.60648	0.00068
3131.67811	0.00060
3129.74974	0.00062
3127.82136	0.00062
3125.89299	0.00056
3123.96462	0.00035
3122.03624	0.00061
3120.10787	0.00108
3118.17950	0.00096
3116.25113	0.00093
3114.32275	0.00087
3112.39438	0.00071
3110.46601	0.00075
3108.53763	0.00069
3106.60926	0.00045
3104.68089	0.00040
3102.75251	0.00065
3100.82414	0.00076
3098.89577	0.00071
3096.96739	0.00088
3095.03902	0.00084
3093.11065	0.00068
3091.18227	0.00055
3089.25390	0.00027
3087.32553	0.00058
3085.39715	0.00075
3083.46878	0.00064
3081.54041	0.00069
3079.61203	0.00066
3077.68366	0.00034
3075.75529	0.00069
3073.82691	0.00091
3071.89854	0.00074
3069.97017	0.00050
3068.04179	0.00058
3066.11342	0.00081
3064.18505	0.00090
3062.25668	0.00085
3060.32830	0.00056
3058.39993	0.00037
3056.47156	0.00062
3054.54318	0.00057
3052.61481	0.00037
3050.68644	0.00035
3048.75806	0.00041
3046.82969	0.00051
3044.90132	0.00035
3042.97294	0.00017
3041.04457	0.00043
3039.11620	0.00061
3037.18782	0.00048
3035.25945	0.00054
3033.33108	0.00083
3031.40270	0.00099
3029.47433	0.00098
3027.54596	0.00086
3025.61758	0.00083
3023.68921	0.00075
3021.76084	0.00100
3019.83246	0.00122
3017.90409	0.00118
3015.97572	0.00086
3014.04734	0.00086
3012.11897	0.00097
3010.19060	0.00087
3008.26222	0.00056
3006.33385	0.00037
3004.40548	0.00029
3002.47711	0.00050
3000.54873	0.00098
2998.62036	0.00121
2996.69199	0.00114
2994.76361	0.00104
2992.83524	0.00077
2990.90687	0.00059
2988.97849	0.00076
2987.05012	0.00094
2985.12175	0.00076
2983.19337	0.00054
2981.26500	0.00078
2979.33663	0.00066
2977.40825	0.00078
2975.47988	0.00085
2973.55151	0.00101
2971.62313	0.00105
2969.69476	0.00096
2967.76639	0.00076
2965.83801	0.00086
2963.90964	0.00125
2961.98127	0.00129
2960.05289	0.00120
2958.12452	0.00147
2956.19615	0.00216
2954.26777	0.00252
2952.33940	0.00193
2950.41103	0.00121
2948.48266	0.00055
2946.55428	0.00030
2944.62591	0.00034
2942.69754	0.00088
2940.76916	0.00108
2938.84079	0.00074
2936.91242	0.00057
2934.98404	0.00119
2933.05567	0.00173
2931.12730	0.00130
2929.19892	0.00085
2927.27055	0.00104
2925.34218	0.00128
2923.41380	0.00146
2921.48543	0.00126
2919.55706	0.00128
2917.62868	0.00145
2915.70031	0.00132
2913.77194	0.00071
2911.84356	0.00046
2909.91519	0.00081
2907.98682	0.00078
2906.05844	0.00071
2904.13007	0.00064
2902.20170	0.00091
2900.27332	0.00098
2898.34495	0.00060
2896.41658	0.00050
2894.48820	0.00094
2892.55983	0.00086
2890.63146	0.00052
2888.70309	0.00064
2886.77471	0.00123
2884.84634	0.00177
2882.91797	0.00160
2880.98959	0.00116
2879.06122	0.00105
2877.13285	0.00100
2875.20447	0.00096
2873.27610	0.00108
2871.34773	0.00112
2869.41935	0.00098
2867.49098	0.00090
2865.56261	0.00126
2863.63423	0.00106
2861.70586	0.00049
2859.77749	0.00038
2857.84911	0.00078
2855.92074	0.00102
2853.99237	0.00069
2852.06399	0.00035
2850.13562	0.00049
2848.20725	0.00084
2846.27887	0.00104
2844.35050	0.00101
2842.42213	0.00106
2840.49375	0.00079
2838.56538	0.00053
2836.63701	0.00067
2834.70863	0.00049
2832.78026	0.00036
2830.85189	0.00080
2828.92352	0.00099
2826.99514	0.00105
2825.06677	0.00102
2823.13840	0.00117
2821.21002	0.00159
2819.28165	0.00180
2817.35328	0.00162
2815.42490	0.00142
2813.49653	0.00118
2811.56816	0.00094
2809.63978	0.00120
2807.71141	0.00179
2805.78304	0.00213
2803.85466	0.00220
2801.92629	0.00231
2799.99792	0.00244
2798.06954	0.00240
2796.14117	0.00238
2794.21280	0.00260
2792.28442	0.00294
2790.35605	0.00328
2788.42768	0.00367
2786.49930	0.00380
2784.57093	0.00364
2782.64256	0.00357
2780.71418	0.00354
2778.78581	0.00348
2776.85744	0.00346
2774.92907	0.00347
2773.00069	0.00364
2771.07232	0.00390
2769.14395	0.00400
2767.21557	0.00384
2765.28720	0.00367
2763.35883	0.00391
2761.43045	0.00439
2759.50208	0.00462
2757.57371	0.00474
2755.64533	0.00499
2753.71696	0.00516
2751.78859	0.00518
2749.86021	0.00517
2747.93184	0.00510
2746.00347	0.00503
2744.07509	0.00507
2742.14672	0.00525
2740.21835	0.00570
2738.28997	0.00629
2736.36160	0.00675
2734.43323	0.00700
2732.50485	0.00685
2730.57648	0.00645
2728.64811	0.00635
2726.71973	0.00656
2724.79136	0.00680
2722.86299	0.00683
2720.93461	0.00671
2719.00624	0.00685
2717.07787	0.00708
2715.14950	0.00713
2713.22112	0.00746
2711.29275	0.00801
2709.36438	0.00811
2707.43600	0.00796
2705.50763	0.00810
2703.57926	0.00839
2701.65088	0.00862
2699.72251	0.00883
2697.79414	0.00909
2695.86576	0.00945
2693.93739	0.00971
2692.00902	0.00972
2690.08064	0.00958
2688.15227	0.00955
2686.22390	0.00981
2684.29552	0.01025
2682.36715	0.01052
2680.43878	0.01064
2678.51040	0.01097
2676.58203	0.01140
2674.65366	0.01158
2672.72528	0.01163
2670.79691	0.01174
2668.86854	0.01184
2666.94016	0.01189
2665.01179	0.01196
2663.08342	0.01199
2661.15505	0.01204
2659.22667	0.01219
2657.29830	0.01240
2655.36993	0.01260
2653.44155	0.01277
2651.51318	0.01293
2649.58481	0.01306
2647.65643	0.01307
2645.72806	0.01295
2643.79969	0.01294
2641.87131	0.01313
2639.94294	0.01332
2638.01457	0.01344
2636.08619	0.01361
2634.15782	0.01384
2632.22945	0.01399
2630.30107	0.01413
2628.37270	0.01443
2626.44433	0.01474
2624.51595	0.01471
2622.58758	0.01444
2620.65921	0.01439
2618.73083	0.01469
2616.80246	0.01505
2614.87409	0.01524
2612.94571	0.01527
2611.01734	0.01526
2609.08897	0.01535
2607.16059	0.01565
2605.23222	0.01608
2603.30385	0.01644
2601.37548	0.01670
2599.44710	0.01681
2597.51873	0.01676
2595.59036	0.01677
2593.66198	0.01697
2591.73361	0.01730
2589.80524	0.01768
2587.87686	0.01789
2585.94849	0.01785
2584.02012	0.01777
2582.09174	0.01792
2580.16337	0.01842
2578.23500	0.01887
2576.30662	0.01906
2574.37825	0.01921
2572.44988	0.01941
2570.52150	0.01964
2568.59313	0.01999
2566.66476	0.02045
2564.73638	0.02082
2562.80801	0.02108
2560.87964	0.02142
2558.95126	0.02188
2557.02289	0.02233
2555.09452	0.02273
2553.16614	0.02317
2551.23777	0.02368
2549.30940	0.02407
2547.38103	0.02432
2545.45265	0.02455
2543.52428	0.02463
2541.59591	0.02465
2539.66753	0.02495
2537.73916	0.02529
2535.81079	0.02535
2533.88241	0.02535
2531.95404	0.02553
2530.02567	0.02582
2528.09729	0.02602
2526.16892	0.02593
2524.24055	0.02573
2522.31217	0.02582
2520.38380	0.02628
2518.45543	0.02685
2516.52705	0.02737
2514.59868	0.02772
2512.67031	0.02790
2510.74193	0.02806
2508.81356	0.02836
2506.88519	0.02866
2504.95681	0.02886
2503.02844	0.02907
2501.10007	0.02925
2499.17169	0.02947
2497.24332	0.02992
2495.31495	0.03043
2493.38657	0.03084
2491.45820	0.03120
2489.52983	0.03158
2487.60146	0.03189
2485.67308	0.03202
2483.74471	0.03225
2481.81634	0.03283
2479.88796	0.03330
2477.95959	0.03339
2476.03122	0.03358
2474.10284	0.03400
2472.17447	0.03435
2470.24610	0.03471
2468.31772	0.03532
2466.38935	0.03605
2464.46098	0.03667
2462.53260	0.03713
2460.60423	0.03747
2458.67586	0.03784
2456.74748	0.03837
2454.81911	0.03903
2452.89074	0.03943
2450.96236	0.03950
2449.03399	0.03968
2447.10562	0.04028
2445.17724	0.04100
2443.24887	0.04139
2441.32050	0.04161
2439.39212	0.04194
2437.46375	0.04231
2435.53538	0.04259
2433.60700	0.04288
2431.67863	0.04326
2429.75026	0.04364
2427.82189	0.04392
2425.89351	0.04414
2423.96514	0.04437
2422.03677	0.04457
2420.10839	0.04473
2418.18002	0.04495
2416.25165	0.04528
2414.32327	0.04562
2412.39490	0.04594
2410.46653	0.04629
2408.53815	0.04670
2406.60978	0.04718
2404.68141	0.04769
2402.75303	0.04833
2400.82466	0.04908
2398.89629	0.04969
2396.96791	0.05013
2395.03954	0.05060
2393.11117	0.05116
2391.18279	0.05177
2389.25442	0.05223
2387.32605	0.05237
2385.39767	0.05250
2383.46930	0.05287
2381.54093	0.05340
2379.61255	0.05411
2377.68418	0.05487
2375.75581	0.05540
2373.82744	0.05574
2371.89906	0.05638
2369.97069	0.05762
2368.04232	0.05866
2366.11394	0.05857
2364.18557	0.05849
2362.25720	0.06002
2360.32882	0.06233
2358.40045	0.06323
2356.47208	0.06189
2354.54370	0.06015
2352.61533	0.05992
2350.68696	0.06090
2348.75858	0.06200
2346.83021	0.06294
2344.90184	0.06386
2342.97346	0.06457
2341.04509	0.06444
2339.11672	0.06363
2337.18834	0.06290
2335.25997	0.06253
2333.33160	0.06234
2331.40322	0.06258
2329.47485	0.06326
2327.54648	0.06356
2325.61810	0.06327
2323.68973	0.06317
2321.76136	0.06368
2319.83298	0.06419
2317.90461	0.06433
2315.97624	0.06450
2314.04787	0.06488
2312.11949	0.06540
2310.19112	0.06589
2308.26275	0.06633
2306.33437	0.06698
2304.40600	0.06785
2302.47763	0.06837
2300.54925	0.06828
2298.62088	0.06818
2296.69251	0.06857
2294.76413	0.06923
2292.83576	0.06964
2290.90739	0.06982
2288.97901	0.07012
2287.05064	0.07035
2285.12227	0.07028
2283.19389	0.07015
2281.26552	0.07017
2279.33715	0.07030
2277.40877	0.07045
2275.48040	0.07069
2273.55203	0.07103
2271.62365	0.07120
2269.69528	0.07106
2267.76691	0.07090
2265.83853	0.07097
2263.91016	0.07107
2261.98179	0.07108
2260.05342	0.07112
2258.12504	0.07120
2256.19667	0.07128
2254.26830	0.07156
2252.33992	0.07208
2250.41155	0.07259
2248.48318	0.07309
2246.55480	0.07350
2244.62643	0.07362
2242.69806	0.07361
2240.76968	0.07372
2238.84131	0.07397
2236.91294	0.07426
2234.98456	0.07455
2233.05619	0.07474
2231.12782	0.07476
2229.19944	0.07475
2227.27107	0.07496
2225.34270	0.07518
2223.41432	0.07519
2221.48595	0.07515
2219.55758	0.07515
2217.62920	0.07510
2215.70083	0.07492
2213.77246	0.07467
2211.84408	0.07453
2209.91571	0.07456
2207.98734	0.07471
2206.05896	0.07477
2204.13059	0.07464
2202.20222	0.07445
2200.27385	0.07438
2198.34547	0.07434
2196.41710	0.07409
2194.48873	0.07369
2192.56035	0.07344
2190.63198	0.07339
2188.70361	0.07332
2186.77523	0.07312
2184.84686	0.07304
2182.91849	0.07319
2180.99011	0.07326
2179.06174	0.07306
2177.13337	0.07291
2175.20499	0.07297
2173.27662	0.07301
2171.34825	0.07286
2169.41987	0.07266
2167.49150	0.07265
2165.56313	0.07281
2163.63475	0.07283
2161.70638	0.07277
2159.77801	0.07302
2157.84963	0.07338
2155.92126	0.07334
2153.99289	0.07314
2152.06451	0.07315
2150.13614	0.07328
2148.20777	0.07336
2146.27940	0.07338
2144.35102	0.07326
2142.42265	0.07315
2140.49428	0.07324
2138.56590	0.07336
2136.63753	0.07339
2134.70916	0.07350
2132.78078	0.07377
2130.85241	0.07405
2128.92404	0.07431
2126.99566	0.07457
2125.06729	0.07482
2123.13892	0.07508
2121.21054	0.07537
2119.28217	0.07571
2117.35380	0.07602
2115.42542	0.07627
2113.49705	0.07657
2111.56868	0.07705
2109.64030	0.07758
2107.71193	0.07796
2105.78356	0.07822
2103.85518	0.07843
2101.92681	0.07865
2099.99844	0.07888
2098.07006	0.07897
2096.14169	0.07907
2094.21332	0.07931
2092.28494	0.07959
2090.35657	0.07966
2088.42820	0.07949
2086.49983	0.07961
2084.57145	0.08026
2082.64308	0.08078
2080.71471	0.08073
2078.78633	0.08040
2076.85796	0.08012
2074.92959	0.07992
2073.00121	0.07993
2071.07284	0.08005
2069.14447	0.08014
2067.21609	0.08023
2065.28772	0.08033
2063.35935	0.08067
2061.43097	0.08134
2059.50260	0.08186
2057.57423	0.08200
2055.64585	0.08209
2053.71748	0.08244
2051.78911	0.08296
2049.86073	0.08342
2047.93236	0.08391
2046.00399	0.08452
2044.07561	0.08518
2042.14724	0.08590
2040.21887	0.08658
2038.29049	0.08707
2036.36212	0.08736
2034.43375	0.08758
2032.50538	0.08786
2030.57700	0.08827
2028.64863	0.08869
2026.72026	0.08897
2024.79188	0.08924
2022.86351	0.08957
2020.93514	0.08972
2019.00676	0.08971
2017.07839	0.08989
2015.15002	0.09033
2013.22164	0.09082
2011.29327	0.09123
2009.36490	0.09162
2007.43652	0.09204
2005.50815	0.09239
2003.57978	0.09269
2001.65140	0.09304
1999.72303	0.09351
1997.79466	0.09403
1995.86628	0.09436
1993.93791	0.09446
1992.00954	0.09458
1990.08116	0.09482
1988.15279	0.09511
1986.22442	0.09538
1984.29604	0.09562
1982.36767	0.09579
1980.43930	0.09587
1978.51092	0.09595
1976.58255	0.09615
1974.65418	0.09635
1972.72581	0.09647
1970.79743	0.09660
1968.86906	0.09672
1966.94069	0.09688
1965.01231	0.09715
1963.08394	0.09748
1961.15557	0.09779
1959.22719	0.09807
1957.29882	0.09833
1955.37045	0.09861
1953.44207	0.09890
1951.51370	0.09934
1949.58533	0.10007
1947.65695	0.10097
1945.72858	0.10168
1943.80021	0.10218
1941.87183	0.10265
1939.94346	0.10317
1938.01509	0.10361
1936.08671	0.10389
1934.15834	0.10426
1932.22997	0.10478
1930.30159	0.10527
1928.37322	0.10572
1926.44485	0.10611
1924.51647	0.10643
1922.58810	0.10666
1920.65973	0.10678
1918.73135	0.10698
1916.80298	0.10723
1914.87461	0.10732
1912.94624	0.10737
1911.01786	0.10745
1909.08949	0.10751
1907.16112	0.10765
1905.23274	0.10789
1903.30437	0.10798
1901.37600	0.10781
1899.44762	0.10790
1897.51925	0.10830
1895.59088	0.10850
1893.66250	0.10855
1891.73413	0.10883
1889.80576	0.10925
1887.87738	0.10949
1885.94901	0.10951
1884.02064	0.10951
1882.09226	0.10963
1880.16389	0.10985
1878.23552	0.10998
1876.30714	0.11007
1874.37877	0.11025
1872.45040	0.11040
1870.52202	0.11050
1868.59365	0.11053
1866.66528	0.11041
1864.73690	0.11021
1862.80853	0.11019
1860.88016	0.11036
1858.95179	0.11041
1857.02341	0.11021
1855.09504	0.11004
1853.16667	0.11007
1851.23829	0.11011
1849.30992	0.10997
1847.38155	0.10957
1845.45317	0.10924
1843.52480	0.10928
1841.59643	0.10936
1839.66805	0.10913
1837.73968	0.10864
1835.81131	0.10811
1833.88293	0.10779
1831.95456	0.10764
1830.02619	0.10744
1828.09781	0.10697
1826.16944	0.10623
1824.24107	0.10525
1822.31269	0.10434
1820.38432	0.10383
1818.45595	0.10348
1816.52757	0.10292
1814.59920	0.10221
1812.67083	0.10151
1810.74245	0.10060
1808.81408	0.09943
1806.88571	0.09831
1804.95733	0.09732
1803.02896	0.09624
1801.10059	0.09480
1799.17222	0.09314
1797.24384	0.09141
1795.31547	0.08972
1793.38710	0.08795
1791.45872	0.08566
1789.53035	0.08326
1787.60198	0.08122
1785.67360	0.07927
1783.74523	0.07738
1781.81686	0.07573
1779.88848	0.07395
1777.96011	0.07198
1776.03174	0.07024
1774.10336	0.06866
1772.17499	0.06662
1770.24662	0.06425
1768.31824	0.06218
1766.38987	0.06036
1764.46150	0.05863
1762.53312	0.05656
1760.60475	0.05416
1758.67638	0.05180
1756.74800	0.04922
1754.81963	0.04665
1752.89126	0.04406
1750.96288	0.04079
1749.03451	0.03713
1747.10614	0.03383
1745.17777	0.03073
1743.24939	0.02789
1741.32102	0.02512
1739.39265	0.02194
1737.46427	0.01903
1735.53590	0.01645
1733.60753	0.01346
1731.67915	0.01101
1729.75078	0.00928
1727.82241	0.00765
1725.89403	0.00604
1723.96566	0.00450
1722.03729	0.00338
1720.10891	0.00298
1718.18054	0.00304
1716.25217	0.00275
1714.32379	0.00193
1712.39542	0.00117
1710.46705	0.00098
1708.53867	0.00096
1706.61030	0.00098
1704.68193	0.00102
1702.75355	0.00073
1700.82518	0.00068
1698.89681	0.00061
1696.96843	0.00088
1695.04006	0.00103
1693.11169	0.00088
1691.18331	0.00060
1689.25494	0.00051
1687.32657	0.00068
1685.39820	0.00112
1683.46982	0.00134
1681.54145	0.00099
1679.61308	0.00062
1677.68470	0.00065
1675.75633	0.00048
1673.82796	0.00063
1671.89958	0.00086
1669.97121	0.00059
1668.04284	0.00020
1666.11446	0.00069
1664.18609	0.00071
1662.25772	0.00044
1660.32934	0.00059
1658.40097	0.00096
1656.47260	0.00109
1654.54422	0.00111
1652.61585	0.00067
1650.68748	0.00051
1648.75910	0.00068
1646.83073	0.00080
1644.90236	0.00049
1642.97398	0.00048
1641.04561	0.00043
1639.11724	0.00027
1637.18886	0.00059
1635.26049	0.00120
1633.33212	0.00130
1631.40375	0.00110
1629.47537	0.00117
1627.54700	0.00118
1625.61863	0.00102
1623.69025	0.00090
1621.76188	0.00088
1619.83351	0.00090
1617.90513	0.00092
1615.97676	0.00089
1614.04839	0.00062
1612.12001	0.00041
1610.19164	0.00037
1608.26327	0.00051
1606.33489	0.00061
1604.40652	0.00072
1602.47815	0.00072
1600.54977	0.00057
1598.62140	0.00053
1596.69303	0.00046
1594.76465	0.00060
1592.83628	0.00082
1590.90791	0.00074
1588.97953	0.00052
1587.05116	0.00051
1585.12279	0.00048
1583.19441	0.00037
1581.26604	0.00032
1579.33767	0.00032
1577.40929	0.00060
1575.48092	0.00073
1573.55255	0.00067
1571.62418	0.00075
1569.69580	0.00092
1567.76743	0.00101
1565.83906	0.00076
1563.91068	0.00071
1561.98231	0.00095
1560.05394	0.00126
1558.12556	0.00126
1556.19719	0.00092
1554.26882	0.00065
1552.34044	0.00053
1550.41207	0.00026
1548.48370	0.00032
1546.55532	0.00037
1544.62695	0.00031
1542.69858	0.00059
1540.77020	0.00086
1538.84183	0.00093
1536.91346	0.00099
1534.98508	0.00124
1533.05671	0.00117
1531.12834	0.00076
1529.19996	0.00065
1527.27159	0.00056
1525.34322	0.00027
1523.41484	0.00067
1521.48647	0.00094
1519.55810	0.00056
1517.62972	0.00028
1515.70135	0.00051
1513.77298	0.00065
1511.84461	0.00091
1509.91623	0.00133
1507.98786	0.00158
1506.05949	0.00113
1504.13111	0.00068
1502.20274	0.00048
1500.27437	0.00046
1498.34599	0.00034
1496.41762	0.00032
1494.48925	0.00054
1492.56087	0.00080
1490.63250	0.00103
1488.70413	0.00098
1486.77575	0.00069
1484.84738	0.00059
1482.91901	0.00061
1480.99063	0.00043
1479.06226	0.00041
1477.13389	0.00062
1475.20551	0.00058
1473.27714	0.00039
1471.34877	0.00044
1469.42039	0.00044
1467.49202	0.00038
1465.56365	0.00053
1463.63527	0.00079
1461.70690	0.00072
1459.77853	0.00050
1457.85016	0.00167
1455.92178	0.00150
1453.99341	0.00089
1452.06504	0.00063
1450.13666	0.00056
1448.20829	0.00068
1446.27992	0.00076
1444.35154	0.00063
1442.42317	0.00073
1440.49480	0.00086
1438.56642	0.00062
1436.63805	0.00043
1434.70968	0.00056
1432.78130	0.00068
1430.85293	0.00049
1428.92456	0.00017
1426.99618	0.00044
1425.06781	0.00077
1423.13944	0.00072
1421.21106	0.00043
1419.28269	0.00086
1417.35432	0.00124
1415.42594	0.00116
1413.49757	0.00098
1411.56920	0.00070
1409.64082	0.00038
1407.71245	0.00049
1405.78408	0.00118
1403.85570	0.00157
1401.92733	0.00148
1399.99896	0.00138
1398.07059	0.00105
1396.14221	0.00072
1394.21384	0.00083
1392.28547	0.00073
1390.35709	0.00070
1388.42872	0.00075
1386.50035	0.00071
1384.57197	0.00043
1382.64360	0.00041
1380.71523	0.00064
1378.78685	0.00084
1376.85848	0.00083
1374.93011	0.00075
1373.00173	0.00100
1371.07336	0.00076
1369.14499	0.00065
1367.21661	0.00078
1365.28824	0.00092
1363.35987	0.00067
1361.43149	0.00069
1359.50312	0.00090
1357.57475	0.00088
1355.64637	0.00084
1353.71800	0.00070
1351.78963	0.00079
1349.86125	0.00070
1347.93288	0.00050
1346.00451	0.00050
1344.07614	0.00053
1342.14776	0.00102
1340.21939	0.00153
1338.29102	0.00121
1336.36264	0.00098
1334.43427	0.00091
1332.50590	0.00052
1330.57752	0.00027
1328.64915	0.00029
1326.72078	0.00059
1324.79240	0.00101
1322.86403	0.00109
1320.93566	0.00091
1319.00728	0.00078
1317.07891	0.00082
1315.15054	0.00085
1313.22216	0.00112
1311.29379	0.00081
1309.36542	0.00046
1307.43704	0.00091
1305.50867	0.00122
1303.58030	0.00095
1301.65192	0.00021
1299.72355	0.00074
1297.79518	0.00085
1295.86680	0.00072
1293.93843	0.00089
1292.01006	0.00126
1290.08168	0.00134
1288.15331	0.00101
1286.22494	0.00069
1284.29657	0.00107
1282.36819	0.00144
1280.43982	0.00151
1278.51145	0.00130
1276.58307	0.00137
1274.65470	0.00130
1272.72633	0.00128
1270.79795	0.00089
1268.86958	0.00086
1266.94121	0.00101
1265.01283	0.00119
1263.08446	0.00112
1261.15609	0.00131
1259.22771	0.00132
1257.29934	0.00101
1255.37097	0.00085
1253.44259	0.00052
1251.51422	0.00039
1249.58585	0.00086
1247.65747	0.00101
1245.72910	0.00099
1243.80073	0.00091
1241.87235	0.00088
1239.94398	0.00081
1238.01561	0.00056
1236.08723	0.00024
1234.15886	0.00062
1232.23049	0.00079
1230.30212	0.00053
1228.37374	0.00118
1226.44537	0.00115
1224.51700	0.00129
1222.58862	0.00074
1220.66025	0.00104
1218.73188	0.00192
1216.80350	0.00201
1214.87513	0.00210
1212.94676	0.00200
1211.01838	0.00129
1209.09001	0.00039
1207.16164	0.00096
1205.23326	0.00094
1203.30489	0.00137
1201.37652	0.00204
1199.44814	0.00190
1197.51977	0.00120
1195.59140	0.00117
1193.66302	0.00120
1191.73465	0.00093
1189.80628	0.00127
1187.87790	0.00174
1185.94953	0.00195
1184.02116	0.00122
1182.09278	0.00016
1180.16441	0.00061
1178.23604	0.00138
1176.30766	0.00211
1174.37929	0.00190
1172.45092	0.00094
1170.52255	0.00101
1168.59417	0.00134
1166.66580	0.00136
1164.73743	0.00127
1162.80905	0.00140
1160.88068	0.00096
1158.95231	0.00040
1157.02393	0.00074
1155.09556	0.00075
1153.16719	0.00054
1151.23881	0.00089
1149.31044	0.00114
1147.38207	0.00157
1145.45369	0.00145
1143.52532	0.00144
1141.59695	0.00116
1139.66857	0.00054
1137.74020	0.00136
1135.81183	0.00195
1133.88345	0.00153
1131.95508	0.00138
1130.02671	0.00151
1128.09833	0.00123
1126.16996	0.00086
1124.24159	0.00162
1122.31321	0.00238
1120.38484	0.00230
1118.45647	0.00196
1116.52809	0.00169
1114.59972	0.00099
1112.67135	0.00040
1110.74298	0.00037
1108.81460	0.00085
1106.88623	0.00100
1104.95786	0.00090
1103.02948	0.00135
1101.10111	0.00108
1099.17274	0.00057
1097.24436	0.00112
1095.31599	0.00144
1093.38762	0.00162
1091.45924	0.00115
1089.53087	0.00099
1087.60250	0.00141
1085.67412	0.00160
1083.74575	0.00160
1081.81738	0.00130
1079.88900	0.00136
1077.96063	0.00096
1076.03226	0.00073
1074.10388	0.00116
1072.17551	0.00060
1070.24714	0.00058
1068.31876	0.00104
1066.39039	0.00148
1064.46202	0.00174
1062.53364	0.00171
1060.60527	0.00150
1058.67690	0.00134
1056.74853	0.00168
1054.82015	0.00162
1052.89178	0.00084
1050.96341	0.00061
1049.03503	0.00088
1047.10666	0.00070
1045.17829	0.00106
1043.24991	0.00126
1041.32154	0.00115
1039.39317	0.00099
1037.46479	0.00167
1035.53642	0.00155
1033.60805	0.00058
1031.67967	0.00069
1029.75130	0.00158
1027.82293	0.00194
1025.89455	0.00113
1023.96618	0.00056
1022.03781	0.00043
1020.10943	0.00050
1018.18106	0.00047
1016.25269	0.00114
1014.32431	0.00176
1012.39594	0.00152
1010.46757	0.00067
1008.53919	0.00061
1006.61082	0.00087
1004.68245	0.00100
1002.75407	0.00101
1000.82570	0.00168
998.89733	0.00155
996.96896	0.00092
995.04058	0.00060
993.11221	0.00045
991.18384	0.00046
989.25546	0.00069
987.32709	0.00112
985.39872	0.00109
983.47034	0.00069
981.54197	0.00085
979.61360	0.00081
977.68522	0.00057
975.75685	0.00111
973.82848	0.00100
971.90010	0.00042
969.97173	0.00087
968.04336	0.00147
966.11498	0.00196
964.18661	0.00251
962.25824	0.00257
960.32986	0.00206
958.40149	0.00143
956.47312	0.00088
954.54474	0.00059
952.61637	0.00090
950.68800	0.00114
948.75962	0.00093
946.83125	0.00106
944.90288	0.00167
942.97451	0.00243
941.04613	0.00319
939.11776	0.00378
937.18939	0.00434
935.26101	0.00547
933.33264	0.00687
931.40427	0.00763
929.47589	0.00760
927.54752	0.00734
925.61915	0.00718
923.69077	0.00688
921.76240	0.00657
919.83403	0.00656
917.90565	0.00719
915.97728	0.00814
914.04891	0.00872
912.12053	0.00877
910.19216	0.00806
908.26379	0.00673
906.33541	0.00574
904.40704	0.00526
902.47867	0.00458
900.55029	0.00339
898.62192	0.00273
896.69355	0.00304
894.76517	0.00391
892.83680	0.00387
890.90843	0.00265
888.98005	0.00213
887.05168	0.00272
885.12331	0.00475
883.19494	0.00661
881.26656	0.00708
879.33819	0.00700
877.40982	0.00712
875.48144	0.00712
873.55307	0.00720
871.62470	0.00764
869.69632	0.00831
867.76795	0.00886
865.83958	0.00908
863.91120	0.00917
861.98283	0.00899
860.05446	0.00804
858.12608	0.00687
856.19771	0.00708
854.26934	0.00808
852.34096	0.00835
850.41259	0.00807
848.48422	0.00753
846.55584	0.00697
844.62747	0.00608
842.69910	0.00537
840.77072	0.00573
838.84235	0.00646
836.91398	0.00631
834.98560	0.00570
833.05723	0.00519
831.12886	0.00453
829.20049	0.00412
827.27211	0.00444
825.34374	0.00496
823.41537	0.00466
821.48699	0.00340
819.55862	0.00242
817.63025	0.00223
815.70187	0.00349
813.77350	0.00460
811.84513	0.00455
809.91675	0.00384
807.98838	0.00290
806.06001	0.00204
804.13163	0.00168
802.20326	0.00135
800.27489	0.00198
798.34651	0.00298
796.41814	0.00289
794.48977	0.00255
792.56139	0.00259
790.63302	0.00193
788.70465	0.00239
786.77627	0.00231
784.84790	0.00231
782.91953	0.00209
780.99115	0.00271
779.06278	0.00281
777.13441	0.00228
775.20603	0.00239
773.27766	0.00199
771.34929	0.00183
769.42092	0.00138
767.49254	0.00096
765.56417	0.00086
763.63580	0.00167
761.70742	0.00201
759.77905	0.00134
757.85068	0.00173
755.92230	0.00222
753.99393	0.00230
752.06556	0.00117
750.13718	0.00119
748.20881	0.00082
746.28044	0.00087
744.35206	0.00111
742.42369	0.00140
740.49532	0.00136
738.56694	0.00092
736.63857	0.00143
734.71020	0.00247
732.78182	0.00247
730.85345	0.00172
728.92508	0.00153
726.99670	0.00085
725.06833	0.00126
723.13996	0.00263
721.21158	0.00379
719.28321	0.00382
717.35484	0.00358
715.42647	0.00305
713.49809	0.00245
711.56972	0.00261
709.64135	0.00193
707.71297	0.00082
705.78460	0.00175
703.85623	0.00233
701.92785	0.00290
699.99948	0.00381
698.07111	0.00384
696.14273	0.00326
694.21436	0.00264
692.28599	0.00192
690.35761	0.00330
688.42924	0.00391
686.50087	0.00319
684.57249	0.00207
682.64412	0.00244
680.71575	0.00260
678.78737	0.00245
676.85900	0.00358
674.93063	0.00447
673.00225	0.00409
671.07388	0.00425
669.14551	0.00538
667.21713	0.00462
665.28876	0.00445
663.36039	0.00302
661.43201	0.00322
659.50364	0.00301
657.57527	0.00253
655.64690	0.00212
653.71852	0.00287
651.79015	0.00367
649.86178	0.00230
647.93340	0.00553
646.00503	0.00759
644.07666	0.00577
642.14828	0.00186
640.21991	0.00255
638.29154	0.00278
636.36316	0.00294
634.43479	0.00297
632.50642	0.00354
630.57804	0.00481
628.64967	0.00535
626.72130	0.00518
624.79292	0.00577
622.86455	0.00423
620.93618	0.00246
619.00780	0.00511
617.07943	0.00931
615.15106	0.01066
613.22268	0.00856
611.29431	0.01020
609.36594	0.00997
607.43756	0.00938
605.50919	0.00955
603.58082	0.00966
601.65244	0.00731
599.72407	0.00880
