3997.51769	0.25313
3995.58931	0.25311
3993.66094	0.25317
3991.73257	0.25343
3989.80419	0.25387
3987.87582	0.25457
3985.94745	0.25534
3984.01907	0.25583
3982.09070	0.25611
3980.16233	0.25642
3978.23396	0.25660
3976.30558	0.25638
3974.37721	0.25613
3972.44884	0.25644
3970.52046	0.25719
3968.59209	0.25821
3966.66372	0.25942
3964.73534	0.26017
3962.80697	0.26020
3960.87860	0.26054
3958.95022	0.26173
3957.02185	0.26302
3955.09348	0.26397
3953.16510	0.26421
3951.23673	0.26347
3949.30836	0.26292
3947.37998	0.26392
3945.45161	0.26492
3943.52324	0.26471
3941.59486	0.26574
3939.66649	0.26864
3937.73812	0.27071
3935.80974	0.27054
3933.88137	0.26856
3931.95300	0.26713
3930.02462	0.26846
3928.09625	0.27059
3926.16788	0.27073
3924.23950	0.27031
3922.31113	0.27136
3920.38276	0.27217
3918.45439	0.27207
3916.52601	0.27365
3914.59764	0.27752
3912.66927	0.28081
3910.74089	0.28201
3908.81252	0.28121
3906.88415	0.27762
3904.95577	0.27212
3903.02740	0.26892
3901.09903	0.26998
3899.17065	0.27440
3897.24228	0.28069
3895.31391	0.28441
3893.38553	0.28332
3891.45716	0.28204
3889.52879	0.28451
3887.60041	0.28572
3885.67204	0.28413
3883.74367	0.28359
3881.81529	0.28335
3879.88692	0.28497
3877.95855	0.29001
3876.03017	0.29157
3874.10180	0.28843
3872.17343	0.28511
3870.24505	0.28395
3868.31668	0.28646
3866.38831	0.28876
3864.45994	0.28844
3862.53156	0.29049
3860.60319	0.29509
3858.67482	0.29650
3856.74644	0.29259
3854.81807	0.28463
3852.88970	0.28068
3850.96132	0.28884
3849.03295	0.29832
3847.10458	0.30242
3845.17620	0.30103
3843.24783	0.29643
3841.31946	0.29122
3839.39108	0.28736
3837.46271	0.28788
3835.53434	0.29241
3833.60596	0.29652
3831.67759	0.29972
3829.74922	0.30247
3827.82084	0.30331
3825.89247	0.30264
3823.96410	0.29988
3822.03572	0.29368
3820.10735	0.29129
3818.17898	0.29517
3816.25060	0.29910
3814.32223	0.30500
3812.39386	0.31097
3810.46548	0.31181
3808.53711	0.30747
3806.60874	0.30301
3804.68037	0.30092
3802.75199	0.29728
3800.82362	0.29567
3798.89525	0.29937
3796.96687	0.30312
3795.03850	0.30778
3793.11013	0.31323
3791.18175	0.31598
3789.25338	0.31599
3787.32501	0.31416
3785.39663	0.31163
3783.46826	0.31052
3781.53989	0.30929
3779.61151	0.30739
3777.68314	0.30899
3775.75477	0.31264
3773.82639	0.31293
3771.89802	0.30877
3769.96965	0.30406
3768.04127	0.30298
3766.11290	0.30420
3764.18453	0.30594
3762.25615	0.30584
3760.32778	0.30186
3758.39941	0.29825
3756.47103	0.29793
3754.54266	0.29558
3752.61429	0.28780
3750.68591	0.28058
3748.75754	0.28161
3746.82917	0.28356
3744.90080	0.28293
3742.97242	0.28577
3741.04405	0.28968
3739.11568	0.28836
3737.18730	0.28109
3735.25893	0.27378
3733.33056	0.27551
3731.40218	0.28397
3729.47381	0.28991
3727.54544	0.28963
3725.61706	0.28601
3723.68869	0.28336
3721.76032	0.28296
3719.83194	0.28431
3717.90357	0.28557
3715.97520	0.28403
3714.04682	0.27749
3712.11845	0.26786
3710.19008	0.26405
3708.26170	0.26835
3706.33333	0.27212
3704.40496	0.27030
3702.47658	0.26471
3700.54821	0.26085
3698.61984	0.25927
3696.69146	0.25585
3694.76309	0.24926
3692.83472	0.23926
3690.90635	0.22653
3688.97797	0.21655
3687.04960	0.21316
3685.12123	0.21099
3683.19285	0.20543
3681.26448	0.19582
3679.33611	0.18366
3677.40773	0.16993
3675.47936	0.15603
3673.55099	0.14748
3671.62261	0.14133
3669.69424	0.13288
3667.76587	0.12634
3665.83749	0.12178
3663.90912	0.11528
3661.98075	0.10718
3660.05237	0.09897
3658.12400	0.09063
3656.19563	0.08201
3654.26725	0.07453
3652.33888	0.06767
3650.41051	0.05941
3648.48213	0.05168
3646.55376	0.04766
3644.62539	0.04535
3642.69701	0.04263
3640.76864	0.03918
3638.84027	0.03551
3636.91189	0.03196
3634.98352	0.02862
3633.05515	0.02561
3631.12678	0.02286
3629.19840	0.01983
3627.27003	0.01740
3625.34166	0.01622
3623.41328	0.01501
3621.48491	0.01330
3619.55654	0.01153
3617.62816	0.01031
3615.69979	0.00940
3613.77142	0.00830
3611.84304	0.00718
3609.91467	0.00630
3607.98630	0.00553
3606.05792	0.00486
3604.12955	0.00433
3602.20118	0.00385
3600.27280	0.00336
3598.34443	0.00293
3596.41606	0.00260
3594.48768	0.00242
3592.55931	0.00232
3590.63094	0.00220
3588.70256	0.00185
3586.77419	0.00135
3584.84582	0.00116
3582.91744	0.00118
3580.98907	0.00112
3579.06070	0.00099
3577.13233	0.00094
3575.20395	0.00089
3573.27558	0.00075
3571.34721	0.00052
3569.41883	0.00045
3567.49046	0.00050
3565.56209	0.00061
3563.63371	0.00058
3561.70534	0.00047
3559.77697	0.00063
3557.84859	0.00087
3555.92022	0.00090
3553.99185	0.00078
3552.06347	0.00060
3550.13510	0.00049
3548.20673	0.00034
3546.27835	0.00031
3544.34998	0.00028
3542.42161	0.00020
3540.49323	0.00044
3538.56486	0.00058
3536.63649	0.00062
3534.70811	0.00049
3532.77974	0.00037
3530.85137	0.00050
3528.92299	0.00062
3526.99462	0.00048
3525.06625	0.00032
3523.13787	0.00044
3521.20950	0.00054
3519.28113	0.00056
3517.35276	0.00059
3515.42438	0.00055
3513.49601	0.00040
3511.56764	0.00028
3509.63926	0.00029
3507.71089	0.00044
3505.78252	0.00042
3503.85414	0.00020
3501.92577	0.00021
3499.99740	0.00040
3498.06902	0.00032
3496.14065	0.00019
3494.21228	0.00047
3492.28390	0.00052
3490.35553	0.00050
3488.42716	0.00037
3486.49878	0.00021
3484.57041	0.00017
3482.64204	0.00025
3480.71366	0.00033
3478.78529	0.00025
3476.85692	0.00029
3474.92854	0.00023
3473.00017	0.00016
3471.07180	0.00021
3469.14342	0.00032
3467.21505	0.00038
3465.28668	0.00025
3463.35831	0.00031
3461.42993	0.00038
3459.50156	0.00022
3457.57319	0.00021
3455.64481	0.00026
3453.71644	0.00010
3451.78807	0.00031
3449.85969	0.00059
3447.93132	0.00063
3446.00295	0.00049
3444.07457	0.00033
3442.14620	0.00031
3440.21783	0.00038
3438.28945	0.00031
3436.36108	0.00050
3434.43271	0.00080
3432.50433	0.00081
3430.57596	0.00061
3428.64759	0.00044
3426.71921	0.00050
3424.79084	0.00054
3422.86247	0.00045
3420.93409	0.00033
3419.00572	0.00032
3417.07735	0.00027
3415.14897	0.00020
3413.22060	0.00020
3411.29223	0.00025
3409.36385	0.00022
3407.43548	0.00031
3405.50711	0.00027
3403.57874	0.00039
3401.65036	0.00037
3399.72199	0.00028
3397.79362	0.00027
3395.86524	0.00025
3393.93687	0.00014
3392.00850	0.00027
3390.08012	0.00043
3388.15175	0.00047
3386.22338	0.00043
3384.29500	0.00041
3382.36663	0.00045
3380.43826	0.00044
3378.50988	0.00041
3376.58151	0.00048
3374.65314	0.00044
3372.72476	0.00044
3370.79639	0.00052
3368.86802	0.00044
3366.93964	0.00032
3365.01127	0.00020
3363.08290	0.00021
3361.15452	0.00025
3359.22615	0.00039
3357.29778	0.00040
3355.36940	0.00029
3353.44103	0.00035
3351.51266	0.00041
3349.58428	0.00048
3347.65591	0.00061
3345.72754	0.00064
3343.79917	0.00043
3341.87079	0.00025
3339.94242	0.00019
3338.01405	0.00019
3336.08567	0.00030
3334.15730	0.00026
3332.22893	0.00037
3330.30055	0.00055
3328.37218	0.00043
3326.44381	0.00020
3324.51543	0.00027
3322.58706	0.00041
3320.65869	0.00044
3318.73031	0.00049
3316.80194	0.00059
3314.87357	0.00054
3312.94519	0.00041
3311.01682	0.00029
3309.08845	0.00019
3307.16007	0.00040
3305.23170	0.00059
3303.30333	0.00038
3301.37495	0.00026
3299.44658	0.00036
3297.51821	0.00038
3295.58983	0.00025
3293.66146	0.00025
3291.73309	0.00023
3289.80472	0.00020
3287.87634	0.00021
3285.94797	0.00020
3284.01960	0.00023
3282.09122	0.00018
3280.16285	0.00018
3278.23448	0.00026
3276.30610	0.00031
3274.37773	0.00036
3272.44936	0.00033
3270.52098	0.00023
3268.59261	0.00029
3266.66424	0.00041
3264.73586	0.00042
3262.80749	0.00039
3260.87912	0.00047
3258.95074	0.00046
3257.02237	0.00055
3255.09400	0.00058
3253.16562	0.00064
3251.23725	0.00064
3249.30888	0.00044
3247.38050	0.00037
3245.45213	0.00041
3243.52376	0.00036
3241.59538	0.00043
3239.66701	0.00059
3237.73864	0.00067
3235.81026	0.00060
3233.88189	0.00036
3231.95352	0.00040
3230.02515	0.00033
3228.09677	0.00046
3226.16840	0.00051
3224.24003	0.00042
3222.31165	0.00031
3220.38328	0.00007
3218.45491	0.00040
3216.52653	0.00069
3214.59816	0.00067
3212.66979	0.00069
3210.74141	0.00058
3208.81304	0.00050
3206.88467	0.00053
3204.95629	0.00041
3203.02792	0.00027
3201.09955	0.00033
3199.17117	0.00035
3197.24280	0.00031
3195.31443	0.00031
3193.38605	0.00042
3191.45768	0.00056
3189.52931	0.00052
3187.60093	0.00025
3185.67256	0.00016
3183.74419	0.00041
3181.81581	0.00043
3179.88744	0.00010
3177.95907	0.00020
3176.03070	0.00031
3174.10232	0.00036
3172.17395	0.00022
3170.24558	0.00009
3168.31720	0.00018
3166.38883	0.00016
3164.46046	0.00024
3162.53208	0.00025
3160.60371	0.00021
3158.67534	0.00022
3156.74696	0.00031
3154.81859	0.00036
3152.89022	0.00035
3150.96184	0.00033
3149.03347	0.00033
3147.10510	0.00042
3145.17672	0.00037
3143.24835	0.00028
3141.31998	0.00023
3139.39160	0.00010
3137.46323	0.00018
3135.53486	0.00039
3133.60648	0.00040
3131.67811	0.00029
3129.74974	0.00013
3127.82136	0.00026
3125.89299	0.00046
3123.96462	0.00050
3122.03624	0.00030
3120.10787	0.00022
3118.17950	0.00022
3116.25113	0.00015
3114.32275	0.00020
3112.39438	0.00028
3110.46601	0.00035
3108.53763	0.00027
3106.60926	0.00034
3104.68089	0.00033
3102.75251	0.00027
3100.82414	0.00035
3098.89577	0.00063
3096.96739	0.00072
3095.03902	0.00048
3093.11065	0.00027
3091.18227	0.00025
3089.25390	0.00019
3087.32553	0.00033
3085.39715	0.00032
3083.46878	0.00041
3081.54041	0.00037
3079.61203	0.00015
3077.68366	0.00016
3075.75529	0.00017
3073.82691	0.00024
3071.89854	0.00037
3069.97017	0.00028
3068.04179	0.00018
3066.11342	0.00025
3064.18505	0.00024
3062.25668	0.00041
3060.32830	0.00047
3058.39993	0.00041
3056.47156	0.00049
3054.54318	0.00063
3052.61481	0.00061
3050.68644	0.00046
3048.75806	0.00031
3046.82969	0.00017
3044.90132	0.00037
3042.97294	0.00040
3041.04457	0.00029
3039.11620	0.00023
3037.18782	0.00024
3035.25945	0.00031
3033.33108	0.00031
3031.40270	0.00022
3029.47433	0.00012
3027.54596	0.00017
3025.61758	0.00020
3023.68921	0.00024
3021.76084	0.00041
3019.83246	0.00054
3017.90409	0.00049
3015.97572	0.00048
3014.04734	0.00054
3012.11897	0.00067
3010.19060	0.00076
3008.26222	0.00069
3006.33385	0.00050
3004.40548	0.00038
3002.47711	0.00032
3000.54873	0.00035
2998.62036	0.00053
2996.69199	0.00069
2994.76361	0.00065
2992.83524	0.00046
2990.90687	0.00027
2988.97849	0.00014
2987.05012	0.00023
2985.12175	0.00045
2983.19337	0.00041
2981.26500	0.00034
2979.33663	0.00017
2977.40825	0.00028
2975.47988	0.00039
2973.55151	0.00036
2971.62313	0.00050
2969.69476	0.00078
2967.76639	0.00069
2965.83801	0.00046
2963.90964	0.00039
2961.98127	0.00048
2960.05289	0.00068
2958.12452	0.00078
2956.19615	0.00069
2954.26777	0.00074
2952.33940	0.00081
2950.41103	0.00083
2948.48266	0.00069
2946.55428	0.00040
2944.62591	0.00018
2942.69754	0.00037
2940.76916	0.00050
2938.84079	0.00037
2936.91242	0.00040
2934.98404	0.00051
2933.05567	0.00045
2931.12730	0.00035
2929.19892	0.00049
2927.27055	0.00054
2925.34218	0.00050
2923.41380	0.00051
2921.48543	0.00050
2919.55706	0.00052
2917.62868	0.00049
2915.70031	0.00038
2913.77194	0.00032
2911.84356	0.00053
2909.91519	0.00061
2907.98682	0.00065
2906.05844	0.00062
2904.13007	0.00041
2902.20170	0.00034
2900.27332	0.00043
2898.34495	0.00041
2896.41658	0.00036
2894.48820	0.00037
2892.55983	0.00040
2890.63146	0.00040
2888.70309	0.00040
2886.77471	0.00033
2884.84634	0.00032
2882.91797	0.00031
2880.98959	0.00013
2879.06122	0.00022
2877.13285	0.00023
2875.20447	0.00006
2873.27610	0.00022
2871.34773	0.00033
2869.41935	0.00056
2867.49098	0.00057
2865.56261	0.00030
2863.63423	0.00045
2861.70586	0.00035
2859.77749	0.00035
2857.84911	0.00068
2855.92074	0.00086
2853.99237	0.00088
2852.06399	0.00084
2850.13562	0.00077
2848.20725	0.00084
2846.27887	0.00113
2844.35050	0.00149
2842.42213	0.00177
2840.49375	0.00189
2838.56538	0.00191
2836.63701	0.00192
2834.70863	0.00204
2832.78026	0.00223
2830.85189	0.00240
2828.92352	0.00259
2826.99514	0.00284
2825.06677	0.00313
2823.13840	0.00335
2821.21002	0.00352
2819.28165	0.00369
2817.35328	0.00376
2815.42490	0.00376
2813.49653	0.00387
2811.56816	0.00416
2809.63978	0.00451
2807.71141	0.00485
2805.78304	0.00524
2803.85466	0.00567
2801.92629	0.00598
2799.99792	0.00619
2798.06954	0.00647
2796.14117	0.00681
2794.21280	0.00713
2792.28442	0.00744
2790.35605	0.00779
2788.42768	0.00815
2786.49930	0.00844
2784.57093	0.00872
2782.64256	0.00908
2780.71418	0.00952
2778.78581	0.00989
2776.85744	0.01011
2774.92907	0.01028
2773.00069	0.01055
2771.07232	0.01089
2769.14395	0.01117
2767.21557	0.01139
2765.28720	0.01173
2763.35883	0.01219
2761.43045	0.01264
2759.50208	0.01299
2757.57371	0.01325
2755.64533	0.01350
2753.71696	0.01382
2751.78859	0.01416
2749.86021	0.01444
2747.93184	0.01466
2746.00347	0.01496
2744.07509	0.01532
2742.14672	0.01562
2740.21835	0.01576
2738.28997	0.01586
2736.36160	0.01609
2734.43323	0.01637
2732.50485	0.01663
2730.57648	0.01697
2728.64811	0.01736
2726.71973	0.01768
2724.79136	0.01792
2722.86299	0.01823
2720.93461	0.01863
2719.00624	0.01908
2717.07787	0.01965
2715.14950	0.02035
2713.22112	0.02108
2711.29275	0.02176
2709.36438	0.02232
2707.43600	0.02276
2705.50763	0.02329
2703.57926	0.02388
2701.65088	0.02437
2699.72251	0.02482
2697.79414	0.02531
2695.86576	0.02581
2693.93739	0.02626
2692.00902	0.02660
2690.08064	0.02691
2688.15227	0.02735
2686.22390	0.02782
2684.29552	0.02824
2682.36715	0.02864
2680.43878	0.02902
2678.51040	0.02939
2676.58203	0.02978
2674.65366	0.03022
2672.72528	0.03073
2670.79691	0.03129
2668.86854	0.03175
2666.94016	0.03209
2665.01179	0.03248
2663.08342	0.03294
2661.15505	0.03334
2659.22667	0.03365
2657.29830	0.03382
2655.36993	0.03391
2653.44155	0.03410
2651.51318	0.03435
2649.58481	0.03453
2647.65643	0.03473
2645.72806	0.03505
2643.79969	0.03546
2641.87131	0.03584
2639.94294	0.03608
2638.01457	0.03620
2636.08619	0.03636
2634.15782	0.03659
2632.22945	0.03679
2630.30107	0.03698
2628.37270	0.03727
2626.44433	0.03762
2624.51595	0.03793
2622.58758	0.03821
2620.65921	0.03857
2618.73083	0.03904
2616.80246	0.03954
2614.87409	0.04004
2612.94571	0.04047
2611.01734	0.04077
2609.08897	0.04115
2607.16059	0.04173
2605.23222	0.04232
2603.30385	0.04281
2601.37548	0.04332
2599.44710	0.04384
2597.51873	0.04430
2595.59036	0.04477
2593.66198	0.04520
2591.73361	0.04554
2589.80524	0.04590
2587.87686	0.04636
2585.94849	0.04690
2584.02012	0.04743
2582.09174	0.04786
2580.16337	0.04828
2578.23500	0.04890
2576.30662	0.04963
2574.37825	0.05027
2572.44988	0.05084
2570.52150	0.05145
2568.59313	0.05218
2566.66476	0.05302
2564.73638	0.05394
2562.80801	0.05495
2560.87964	0.05604
2558.95126	0.05709
2557.02289	0.05803
2555.09452	0.05890
2553.16614	0.05990
2551.23777	0.06098
2549.30940	0.06191
2547.38103	0.06259
2545.45265	0.06315
2543.52428	0.06360
2541.59591	0.06398
2539.66753	0.06430
2537.73916	0.06455
2535.81079	0.06483
2533.88241	0.06524
2531.95404	0.06569
2530.02567	0.06605
2528.09729	0.06639
2526.16892	0.06681
2524.24055	0.06729
2522.31217	0.06778
2520.38380	0.06830
2518.45543	0.06887
2516.52705	0.06946
2514.59868	0.07007
2512.67031	0.07071
2510.74193	0.07132
2508.81356	0.07187
2506.88519	0.07247
2504.95681	0.07320
2503.02844	0.07399
2501.10007	0.07472
2499.17169	0.07543
2497.24332	0.07629
2495.31495	0.07724
2493.38657	0.07814
2491.45820	0.07900
2489.52983	0.07987
2487.60146	0.08075
2485.67308	0.08159
2483.74471	0.08242
2481.81634	0.08322
2479.88796	0.08401
2477.95959	0.08482
2476.03122	0.08570
2474.10284	0.08662
2472.17447	0.08756
2470.24610	0.08854
2468.31772	0.08955
2466.38935	0.09057
2464.46098	0.09162
2462.53260	0.09270
2460.60423	0.09381
2458.67586	0.09493
2456.74748	0.09607
2454.81911	0.09728
2452.89074	0.09850
2450.96236	0.09962
2449.03399	0.10068
2447.10562	0.10175
2445.17724	0.10282
2443.24887	0.10370
2441.32050	0.10444
2439.39212	0.10524
2437.46375	0.10610
2435.53538	0.10701
2433.60700	0.10794
2431.67863	0.10880
2429.75026	0.10958
2427.82189	0.11036
2425.89351	0.11112
2423.96514	0.11175
2422.03677	0.11228
2420.10839	0.11287
2418.18002	0.11355
2416.25165	0.11421
2414.32327	0.11486
2412.39490	0.11565
2410.46653	0.11662
2408.53815	0.11771
2406.60978	0.11890
2404.68141	0.12015
2402.75303	0.12144
2400.82466	0.12273
2398.89629	0.12396
2396.96791	0.12516
2395.03954	0.12640
2393.11117	0.12764
2391.18279	0.12880
2389.25442	0.12990
2387.32605	0.13090
2385.39767	0.13164
2383.46930	0.13208
2381.54093	0.13239
2379.61255	0.13269
2377.68418	0.13298
2375.75581	0.13324
2373.82744	0.13350
2371.89906	0.13365
2369.97069	0.13386
2368.04232	0.13438
2366.11394	0.13500
2364.18557	0.13571
2362.25720	0.13694
2360.32882	0.13850
2358.40045	0.13966
2356.47208	0.14051
2354.54370	0.14165
2352.61533	0.14307
2350.68696	0.14440
2348.75858	0.14522
2346.83021	0.14540
2344.90184	0.14529
2342.97346	0.14537
2341.04509	0.14568
2339.11672	0.14616
2337.18834	0.14680
2335.25997	0.14750
2333.33160	0.14806
2331.40322	0.14847
2329.47485	0.14887
2327.54648	0.14926
2325.61810	0.14970
2323.68973	0.15027
2321.76136	0.15097
2319.83298	0.15194
2317.90461	0.15327
2315.97624	0.15475
2314.04787	0.15627
2312.11949	0.15787
2310.19112	0.15951
2308.26275	0.16114
2306.33437	0.16288
2304.40600	0.16462
2302.47763	0.16609
2300.54925	0.16728
2298.62088	0.16847
2296.69251	0.16963
2294.76413	0.17058
2292.83576	0.17141
2290.90739	0.17225
2288.97901	0.17302
2287.05064	0.17364
2285.12227	0.17417
2283.19389	0.17463
2281.26552	0.17499
2279.33715	0.17521
2277.40877	0.17532
2275.48040	0.17537
2273.55203	0.17543
2271.62365	0.17553
2269.69528	0.17562
2267.76691	0.17565
2265.83853	0.17568
2263.91016	0.17588
2261.98179	0.17625
2260.05342	0.17662
2258.12504	0.17698
2256.19667	0.17744
2254.26830	0.17807
2252.33992	0.17887
2250.41155	0.17972
2248.48318	0.18051
2246.55480	0.18133
2244.62643	0.18216
2242.69806	0.18286
2240.76968	0.18342
2238.84131	0.18389
2236.91294	0.18425
2234.98456	0.18449
2233.05619	0.18468
2231.12782	0.18488
2229.19944	0.18501
2227.27107	0.18508
2225.34270	0.18518
2223.41432	0.18524
2221.48595	0.18519
2219.55758	0.18503
2217.62920	0.18486
2215.70083	0.18467
2213.77246	0.18442
2211.84408	0.18417
2209.91571	0.18399
2207.98734	0.18380
2206.05896	0.18354
2204.13059	0.18334
2202.20222	0.18315
2200.27385	0.18289
2198.34547	0.18257
2196.41710	0.18218
2194.48873	0.18179
2192.56035	0.18151
2190.63198	0.18128
2188.70361	0.18103
2186.77523	0.18077
2184.84686	0.18056
2182.91849	0.18038
2180.99011	0.18023
2179.06174	0.18008
2177.13337	0.17987
2175.20499	0.17961
2173.27662	0.17931
2171.34825	0.17900
2169.41987	0.17871
2167.49150	0.17843
2165.56313	0.17824
2163.63475	0.17816
2161.70638	0.17811
2159.77801	0.17805
2157.84963	0.17798
2155.92126	0.17799
2153.99289	0.17810
2152.06451	0.17829
2150.13614	0.17844
2148.20777	0.17856
2146.27940	0.17866
2144.35102	0.17879
2142.42265	0.17898
2140.49428	0.17918
2138.56590	0.17934
2136.63753	0.17955
2134.70916	0.17989
2132.78078	0.18031
2130.85241	0.18069
2128.92404	0.18105
2126.99566	0.18151
2125.06729	0.18214
2123.13892	0.18288
2121.21054	0.18363
2119.28217	0.18438
2117.35380	0.18520
2115.42542	0.18604
2113.49705	0.18684
2111.56868	0.18760
2109.64030	0.18832
2107.71193	0.18900
2105.78356	0.18963
2103.85518	0.19017
2101.92681	0.19065
2099.99844	0.19111
2098.07006	0.19152
2096.14169	0.19191
2094.21332	0.19230
2092.28494	0.19261
2090.35657	0.19281
2088.42820	0.19298
2086.49983	0.19314
2084.57145	0.19323
2082.64308	0.19325
2080.71471	0.19319
2078.78633	0.19313
2076.85796	0.19312
2074.92959	0.19313
2073.00121	0.19319
2071.07284	0.19340
2069.14447	0.19368
2067.21609	0.19380
2065.28772	0.19387
2063.35935	0.19424
2061.43097	0.19496
2059.50260	0.19590
2057.57423	0.19693
2055.64585	0.19794
2053.71748	0.19895
2051.78911	0.19999
2049.86073	0.20107
2047.93236	0.20222
2046.00399	0.20335
2044.07561	0.20430
2042.14724	0.20514
2040.21887	0.20618
2038.29049	0.20738
2036.36212	0.20841
2034.43375	0.20923
2032.50538	0.21006
2030.57700	0.21092
2028.64863	0.21167
2026.72026	0.21225
2024.79188	0.21282
2022.86351	0.21346
2020.93514	0.21389
2019.00676	0.21391
2017.07839	0.21408
2015.15002	0.21498
2013.22164	0.21619
2011.29327	0.21720
2009.36490	0.21811
2007.43652	0.21906
2005.50815	0.22010
2003.57978	0.22122
2001.65140	0.22227
1999.72303	0.22310
1997.79466	0.22376
1995.86628	0.22398
1993.93791	0.22347
1992.00954	0.22306
1990.08116	0.22367
1988.15279	0.22472
1986.22442	0.22554
1984.29604	0.22609
1982.36767	0.22636
1980.43930	0.22648
1978.51092	0.22653
1976.58255	0.22656
1974.65418	0.22667
1972.72581	0.22692
1970.79743	0.22694
1968.86906	0.22638
1966.94069	0.22618
1965.01231	0.22722
1963.08394	0.22853
1961.15557	0.22930
1959.22719	0.22995
1957.29882	0.23074
1955.37045	0.23161
1953.44207	0.23270
1951.51370	0.23390
1949.58533	0.23489
1947.65695	0.23548
1945.72858	0.23543
1943.80021	0.23503
1941.87183	0.23609
1939.94346	0.23901
1938.01509	0.24150
1936.08671	0.24272
1934.15834	0.24347
1932.22997	0.24427
1930.30159	0.24511
1928.37322	0.24580
1926.44485	0.24585
1924.51647	0.24495
1922.58810	0.24439
1920.65973	0.24467
1918.73135	0.24486
1916.80298	0.24609
1914.87461	0.24840
1912.94624	0.24943
1911.01786	0.24890
1909.08949	0.24857
1907.16112	0.24934
1905.23274	0.25032
1903.30437	0.25073
1901.37600	0.25089
1899.44762	0.25083
1897.51925	0.25013
1895.59088	0.24931
1893.66250	0.24914
1891.73413	0.24845
1889.80576	0.24734
1887.87738	0.24813
1885.94901	0.24997
1884.02064	0.25107
1882.09226	0.25170
1880.16389	0.25212
1878.23552	0.25239
1876.30714	0.25259
1874.37877	0.25237
1872.45040	0.25042
1870.52202	0.24608
1868.59365	0.24289
1866.66528	0.24487
1864.73690	0.24885
1862.80853	0.25070
1860.88016	0.25063
1858.95179	0.25021
1857.02341	0.25003
1855.09504	0.24987
1853.16667	0.24942
1851.23829	0.24833
1849.30992	0.24610
1847.38155	0.24255
1845.45317	0.23850
1843.52480	0.23762
1841.59643	0.24070
1839.66805	0.24285
1837.73968	0.24257
1835.81131	0.24195
1833.88293	0.24077
1831.95456	0.23686
1830.02619	0.23223
1828.09781	0.23098
1826.16944	0.23128
1824.24107	0.23161
1822.31269	0.23279
1820.38432	0.23301
1818.45595	0.23144
1816.52757	0.22942
1814.59920	0.22697
1812.67083	0.22322
1810.74245	0.21947
1808.81408	0.21760
1806.88571	0.21637
1804.95733	0.21354
1803.02896	0.20844
1801.10059	0.20269
1799.17222	0.19881
1797.24384	0.19597
1795.31547	0.19124
1793.38710	0.18413
1791.45872	0.17879
1789.53035	0.17770
1787.60198	0.17630
1785.67360	0.17214
1783.74523	0.16697
1781.81686	0.16201
1779.88848	0.15763
1777.96011	0.15395
1776.03174	0.14931
1774.10336	0.14250
1772.17499	0.13563
1770.24662	0.13221
1768.31824	0.13092
1766.38987	0.12904
1764.46150	0.12540
1762.53312	0.11973
1760.60475	0.11405
1758.67638	0.10928
1756.74800	0.10397
1754.81963	0.09830
1752.89126	0.09167
1750.96288	0.08320
1749.03451	0.07515
1747.10614	0.06917
1745.17777	0.06368
1743.24939	0.05765
1741.32102	0.05121
1739.39265	0.04483
1737.46427	0.03949
1735.53590	0.03425
1733.60753	0.02804
1731.67915	0.02326
1729.75078	0.01995
1727.82241	0.01670
1725.89403	0.01355
1723.96566	0.01068
1722.03729	0.00824
1720.10891	0.00630
1718.18054	0.00460
1716.25217	0.00308
1714.32379	0.00211
1712.39542	0.00149
1710.46705	0.00098
1708.53867	0.00050
1706.61030	0.00021
1704.68193	0.00013
1702.75355	0.00014
1700.82518	0.00013
1698.89681	0.00020
1696.96843	0.00027
1695.04006	0.00020
1693.11169	0.00021
1691.18331	0.00026
1689.25494	0.00027
1687.32657	0.00017
1685.39820	0.00018
1683.46982	0.00044
1681.54145	0.00042
1679.61308	0.00032
1677.68470	0.00030
1675.75633	0.00029
1673.82796	0.00023
1671.89958	0.00033
1669.97121	0.00031
1668.04284	0.00030
1666.11446	0.00027
1664.18609	0.00018
1662.25772	0.00015
1660.32934	0.00015
1658.40097	0.00017
1656.47260	0.00014
1654.54422	0.00012
1652.61585	0.00019
1650.68748	0.00026
1648.75910	0.00025
1646.83073	0.00034
1644.90236	0.00031
1642.97398	0.00023
1641.04561	0.00023
1639.11724	0.00020
1637.18886	0.00032
1635.26049	0.00041
1633.33212	0.00035
1631.40375	0.00028
1629.47537	0.00021
1627.54700	0.00021
1625.61863	0.00029
1623.69025	0.00020
1621.76188	0.00010
1619.83351	0.00010
1617.90513	0.00014
1615.97676	0.00011
1614.04839	0.00011
1612.12001	0.00014
1610.19164	0.00026
1608.26327	0.00029
1606.33489	0.00020
1604.40652	0.00020
1602.47815	0.00021
1600.54977	0.00014
1598.62140	0.00019
1596.69303	0.00015
1594.76465	0.00009
1592.83628	0.00009
1590.90791	0.00008
1588.97953	0.00011
1587.05116	0.00013
1585.12279	0.00019
1583.19441	0.00028
1581.26604	0.00031
1579.33767	0.00029
1577.40929	0.00026
1575.48092	0.00022
1573.55255	0.00021
1571.62418	0.00013
1569.69580	0.00008
1567.76743	0.00025
1565.83906	0.00032
1563.91068	0.00029
1561.98231	0.00032
1560.05394	0.00049
1558.12556	0.00054
1556.19719	0.00033
1554.26882	0.00021
1552.34044	0.00017
1550.41207	0.00013
1548.48370	0.00012
1546.55532	0.00014
1544.62695	0.00027
1542.69858	0.00020
1540.77020	0.00029
1538.84183	0.00035
1536.91346	0.00028
1534.98508	0.00026
1533.05671	0.00025
1531.12834	0.00028
1529.19996	0.00034
1527.27159	0.00041
1525.34322	0.00039
1523.41484	0.00035
1521.48647	0.00028
1519.55810	0.00026
1517.62972	0.00024
1515.70135	0.00035
1513.77298	0.00027
1511.84461	0.00026
1509.91623	0.00034
1507.98786	0.00019
1506.05949	0.00014
1504.13111	0.00017
1502.20274	0.00021
1500.27437	0.00020
1498.34599	0.00022
1496.41762	0.00021
1494.48925	0.00024
1492.56087	0.00028
1490.63250	0.00034
1488.70413	0.00037
1486.77575	0.00032
1484.84738	0.00024
1482.91901	0.00021
1480.99063	0.00023
1479.06226	0.00029
1477.13389	0.00033
1475.20551	0.00030
1473.27714	0.00008
1471.34877	0.00029
1469.42039	0.00037
1467.49202	0.00043
1465.56365	0.00047
1463.63527	0.00043
1461.70690	0.00037
1459.77853	0.00032
1457.85016	0.00031
1455.92178	0.00027
1453.99341	0.00021
1452.06504	0.00024
1450.13666	0.00025
1448.20829	0.00031
1446.27992	0.00043
1444.35154	0.00045
1442.42317	0.00036
1440.49480	0.00026
1438.56642	0.00019
1436.63805	0.00012
1434.70968	0.00010
1432.78130	0.00010
1430.85293	0.00007
1428.92456	0.00021
1426.99618	0.00027
1425.06781	0.00022
1423.13944	0.00021
1421.21106	0.00022
1419.28269	0.00018
1417.35432	0.00024
1415.42594	0.00039
1413.49757	0.00042
1411.56920	0.00023
1409.64082	0.00026
1407.71245	0.00033
1405.78408	0.00032
1403.85570	0.00036
1401.92733	0.00034
1399.99896	0.00039
1398.07059	0.00045
1396.14221	0.00053
1394.21384	0.00052
1392.28547	0.00041
1390.35709	0.00034
1388.42872	0.00028
1386.50035	0.00024
1384.57197	0.00022
1382.64360	0.00010
1380.71523	0.00010
1378.78685	0.00016
1376.85848	0.00020
1374.93011	0.00038
1373.00173	0.00040
1371.07336	0.00032
1369.14499	0.00033
1367.21661	0.00038
1365.28824	0.00041
1363.35987	0.00030
1361.43149	0.00007
1359.50312	0.00016
1357.57475	0.00029
1355.64637	0.00024
1353.71800	0.00012
1351.78963	0.00036
1349.86125	0.00040
1347.93288	0.00031
1346.00451	0.00027
1344.07614	0.00031
1342.14776	0.00033
1340.21939	0.00030
1338.29102	0.00036
1336.36264	0.00030
1334.43427	0.00015
1332.50590	0.00012
1330.57752	0.00018
1328.64915	0.00018
1326.72078	0.00024
1324.79240	0.00024
1322.86403	0.00015
1320.93566	0.00014
1319.00728	0.00027
1317.07891	0.00031
1315.15054	0.00030
1313.22216	0.00031
1311.29379	0.00040
1309.36542	0.00040
1307.43704	0.00025
1305.50867	0.00016
1303.58030	0.00028
1301.65192	0.00042
1299.72355	0.00045
1297.79518	0.00037
1295.86680	0.00023
1293.93843	0.00029
1292.01006	0.00023
1290.08168	0.00025
1288.15331	0.00022
1286.22494	0.00019
1284.29657	0.00016
1282.36819	0.00018
1280.43982	0.00016
1278.51145	0.00013
1276.58307	0.00018
1274.65470	0.00031
1272.72633	0.00041
1270.79795	0.00030
1268.86958	0.00026
1266.94121	0.00050
1265.01283	0.00063
1263.08446	0.00048
1261.15609	0.00027
1259.22771	0.00041
1257.29934	0.00061
1255.37097	0.00054
1253.44259	0.00037
1251.51422	0.00049
1249.58585	0.00056
1247.65747	0.00050
1245.72910	0.00037
1243.80073	0.00030
1241.87235	0.00032
1239.94398	0.00031
1238.01561	0.00021
1236.08723	0.00039
1234.15886	0.00047
1232.23049	0.00052
1230.30212	0.00038
1228.37374	0.00028
1226.44537	0.00043
1224.51700	0.00059
1222.58862	0.00075
1220.66025	0.00075
1218.73188	0.00068
1216.80350	0.00067
1214.87513	0.00063
1212.94676	0.00070
1211.01838	0.00067
1209.09001	0.00051
1207.16164	0.00015
1205.23326	0.00023
1203.30489	0.00025
1201.37652	0.00044
1199.44814	0.00059
1197.51977	0.00072
1195.59140	0.00069
1193.66302	0.00050
1191.73465	0.00031
1189.80628	0.00030
1187.87790	0.00041
1185.94953	0.00047
1184.02116	0.00044
1182.09278	0.00027
1180.16441	0.00031
1178.23604	0.00046
1176.30766	0.00050
1174.37929	0.00069
1172.45092	0.00053
1170.52255	0.00041
1168.59417	0.00047
1166.66580	0.00042
1164.73743	0.00082
1162.80905	0.00096
1160.88068	0.00075
1158.95231	0.00043
1157.02393	0.00044
1155.09556	0.00080
1153.16719	0.00097
1151.23881	0.00071
1149.31044	0.00027
1147.38207	0.00050
1145.45369	0.00056
1143.52532	0.00065
1141.59695	0.00065
1139.66857	0.00058
1137.74020	0.00035
1135.81183	0.00043
1133.88345	0.00038
1131.95508	0.00039
1130.02671	0.00033
1128.09833	0.00034
1126.16996	0.00026
1124.24159	0.00020
1122.31321	0.00055
1120.38484	0.00068
1118.45647	0.00088
1116.52809	0.00096
1114.59972	0.00087
1112.67135	0.00049
1110.74298	0.00018
1108.81460	0.00017
1106.88623	0.00036
1104.95786	0.00070
1103.02948	0.00077
1101.10111	0.00084
1099.17274	0.00077
1097.24436	0.00046
1095.31599	0.00023
1093.38762	0.00017
1091.45924	0.00015
1089.53087	0.00035
1087.60250	0.00053
1085.67412	0.00061
1083.74575	0.00070
1081.81738	0.00057
1079.88900	0.00036
1077.96063	0.00022
1076.03226	0.00030
1074.10388	0.00036
1072.17551	0.00061
1070.24714	0.00079
1068.31876	0.00053
1066.39039	0.00025
1064.46202	0.00021
1062.53364	0.00037
1060.60527	0.00036
1058.67690	0.00036
1056.74853	0.00029
1054.82015	0.00041
1052.89178	0.00049
1050.96341	0.00052
1049.03503	0.00048
1047.10666	0.00046
1045.17829	0.00027
1043.24991	0.00019
1041.32154	0.00038
1039.39317	0.00054
1037.46479	0.00058
1035.53642	0.00044
1033.60805	0.00054
1031.67967	0.00080
1029.75130	0.00079
1027.82293	0.00061
1025.89455	0.00047
1023.96618	0.00053
1022.03781	0.00049
1020.10943	0.00062
1018.18106	0.00046
1016.25269	0.00040
1014.32431	0.00041
1012.39594	0.00045
1010.46757	0.00070
1008.53919	0.00079
1006.61082	0.00058
1004.68245	0.00038
1002.75407	0.00037
1000.82570	0.00031
998.89733	0.00043
996.96896	0.00058
995.04058	0.00062
993.11221	0.00062
991.18384	0.00054
989.25546	0.00057
987.32709	0.00082
985.39872	0.00125
983.47034	0.00140
981.54197	0.00117
979.61360	0.00091
977.68522	0.00069
975.75685	0.00063
973.82848	0.00091
971.90010	0.00131
969.97173	0.00160
968.04336	0.00193
966.11498	0.00260
964.18661	0.00331
962.25824	0.00341
960.32986	0.00277
958.40149	0.00176
956.47312	0.00083
954.54474	0.00040
952.61637	0.00057
950.68800	0.00114
948.75962	0.00177
946.83125	0.00260
944.90288	0.00360
942.97451	0.00469
941.04613	0.00611
939.11776	0.00779
937.18939	0.00930
935.26101	0.01059
933.33264	0.01193
931.40427	0.01311
929.47589	0.01357
927.54752	0.01328
925.61915	0.01269
923.69077	0.01220
921.76240	0.01219
919.83403	0.01281
917.90565	0.01369
915.97728	0.01464
914.04891	0.01578
912.12053	0.01672
910.19216	0.01669
908.26379	0.01545
906.33541	0.01317
904.40704	0.01035
902.47867	0.00797
900.55029	0.00657
898.62192	0.00597
896.69355	0.00570
894.76517	0.00550
892.83680	0.00572
890.90843	0.00671
888.98005	0.00819
887.05168	0.00993
885.12331	0.01175
883.19494	0.01343
881.26656	0.01483
879.33819	0.01562
877.40982	0.01595
875.48144	0.01645
873.55307	0.01733
871.62470	0.01790
869.69632	0.01767
867.76795	0.01730
865.83958	0.01744
863.91120	0.01777
861.98283	0.01780
860.05446	0.01747
858.12608	0.01693
856.19771	0.01643
854.26934	0.01603
852.34096	0.01553
850.41259	0.01504
848.48422	0.01485
846.55584	0.01479
844.62747	0.01456
842.69910	0.01411
840.77072	0.01352
838.84235	0.01285
836.91398	0.01203
834.98560	0.01117
833.05723	0.01055
831.12886	0.01002
829.20049	0.00929
827.27211	0.00848
825.34374	0.00772
823.41537	0.00726
821.48699	0.00706
819.55862	0.00666
817.63025	0.00607
815.70187	0.00572
813.77350	0.00571
811.84513	0.00581
809.91675	0.00609
807.98838	0.00633
806.06001	0.00620
804.13163	0.00580
802.20326	0.00517
800.27489	0.00435
798.34651	0.00370
796.41814	0.00338
794.48977	0.00322
792.56139	0.00283
790.63302	0.00233
788.70465	0.00206
786.77627	0.00195
784.84790	0.00198
782.91953	0.00188
780.99115	0.00167
779.06278	0.00155
777.13441	0.00143
775.20603	0.00116
773.27766	0.00098
771.34929	0.00072
769.42092	0.00048
767.49254	0.00026
765.56417	0.00047
763.63580	0.00089
761.70742	0.00091
759.77905	0.00039
757.85068	0.00044
755.92230	0.00040
753.99393	0.00060
752.06556	0.00082
750.13718	0.00086
748.20881	0.00074
746.28044	0.00088
744.35206	0.00121
742.42369	0.00128
740.49532	0.00104
738.56694	0.00075
736.63857	0.00093
734.71020	0.00108
732.78182	0.00099
730.85345	0.00099
728.92508	0.00091
726.99670	0.00064
725.06833	0.00056
723.13996	0.00058
721.21158	0.00058
719.28321	0.00060
717.35484	0.00073
715.42647	0.00074
713.49809	0.00086
711.56972	0.00063
709.64135	0.00067
707.71297	0.00080
705.78460	0.00084
703.85623	0.00089
701.92785	0.00132
699.99948	0.00143
698.07111	0.00144
696.14273	0.00146
694.21436	0.00117
692.28599	0.00107
690.35761	0.00133
688.42924	0.00161
686.50087	0.00176
684.57249	0.00158
682.64412	0.00108
680.71575	0.00102
678.78737	0.00112
676.85900	0.00082
674.93063	0.00100
673.00225	0.00116
671.07388	0.00108
669.14551	0.00167
667.21713	0.00242
665.28876	0.00173
663.36039	0.00107
661.43201	0.00128
659.50364	0.00162
657.57527	0.00185
655.64690	0.00173
653.71852	0.00173
651.79015	0.00197
649.86178	0.00183
647.93340	0.00176
646.00503	0.00126
644.07666	0.00127
642.14828	0.00129
640.21991	0.00189
638.29154	0.00293
636.36316	0.00311
634.43479	0.00245
632.50642	0.00248
630.57804	0.00309
628.64967	0.00257
626.72130	0.00231
624.79292	0.00271
622.86455	0.00268
620.93618	0.00276
619.00780	0.00278
617.07943	0.00245
615.15106	0.00235
613.22268	0.00345
611.29431	0.00378
609.36594	0.00181
607.43756	0.00097
605.50919	0.00100
603.58082	0.00190
601.65244	0.00391
599.72407	0.00466
