3997.51769	0.18932
3995.58931	0.18940
3993.66094	0.18969
3991.73257	0.19007
3989.80419	0.19057
3987.87582	0.19105
3985.94745	0.19120
3984.01907	0.19116
3982.09070	0.19132
3980.16233	0.19169
3978.23396	0.19197
3976.30558	0.19203
3974.37721	0.19216
3972.44884	0.19260
3970.52046	0.19318
3968.59209	0.19394
3966.66372	0.19488
3964.73534	0.19551
3962.80697	0.19556
3960.87860	0.19576
3958.95022	0.19653
3957.02185	0.19747
3955.09348	0.19813
3953.16510	0.19817
3951.23673	0.19760
3949.30836	0.19722
3947.37998	0.19806
3945.45161	0.19934
3943.52324	0.19979
3941.59486	0.20056
3939.66649	0.20223
3937.73812	0.20348
3935.80974	0.20358
3933.88137	0.20258
3931.95300	0.20168
3930.02462	0.20256
3928.09625	0.20418
3926.16788	0.20449
3924.23950	0.20443
3922.31113	0.20533
3920.38276	0.20574
3918.45439	0.20541
3916.52601	0.20656
3914.59764	0.20963
3912.66927	0.21232
3910.74089	0.21344
3908.81252	0.21300
3906.88415	0.21025
3904.95577	0.20588
3903.02740	0.20328
3901.09903	0.20420
3899.17065	0.20779
3897.24228	0.21261
3895.31391	0.21542
3893.38553	0.21469
3891.45716	0.21379
3889.52879	0.21551
3887.60041	0.21614
3885.67204	0.21470
3883.74367	0.21440
3881.81529	0.21462
3879.88692	0.21621
3877.95855	0.22006
3876.03017	0.22101
3874.10180	0.21852
3872.17343	0.21622
3870.24505	0.21566
3868.31668	0.21765
3866.38831	0.21931
3864.45994	0.21906
3862.53156	0.22070
3860.60319	0.22432
3858.67482	0.22546
3856.74644	0.22247
3854.81807	0.21642
3852.88970	0.21340
3850.96132	0.21957
3849.03295	0.22691
3847.10458	0.23009
3845.17620	0.22886
3843.24783	0.22528
3841.31946	0.22147
3839.39108	0.21861
3837.46271	0.21911
3835.53434	0.22279
3833.60596	0.22600
3831.67759	0.22837
3829.74922	0.23046
3827.82084	0.23110
3825.89247	0.23046
3823.96410	0.22834
3822.03572	0.22375
3820.10735	0.22175
3818.17898	0.22438
3816.25060	0.22738
3814.32223	0.23201
3812.39386	0.23671
3810.46548	0.23776
3808.53711	0.23495
3806.60874	0.23161
3804.68037	0.22970
3802.75199	0.22684
3800.82362	0.22587
3798.89525	0.22891
3796.96687	0.23177
3795.03850	0.23515
3793.11013	0.23908
3791.18175	0.24106
3789.25338	0.24112
3787.32501	0.23981
3785.39663	0.23794
3783.46826	0.23734
3781.53989	0.23673
3779.61151	0.23547
3777.68314	0.23675
3775.75477	0.23952
3773.82639	0.23976
3771.89802	0.23665
3769.96965	0.23314
3768.04127	0.23241
3766.11290	0.23324
3764.18453	0.23431
3762.25615	0.23414
3760.32778	0.23120
3758.39941	0.22867
3756.47103	0.22869
3754.54266	0.22718
3752.61429	0.22149
3750.68591	0.21588
3748.75754	0.21626
3746.82917	0.21779
3744.90080	0.21785
3742.97242	0.22038
3741.04405	0.22331
3739.11568	0.22207
3737.18730	0.21617
3735.25893	0.21040
3733.33056	0.21198
3731.40218	0.21873
3729.47381	0.22321
3727.54544	0.22274
3725.61706	0.21982
3723.68869	0.21799
3721.76032	0.21797
3719.83194	0.21895
3717.90357	0.21980
3715.97520	0.21880
3714.04682	0.21417
3712.11845	0.20704
3710.19008	0.20409
3708.26170	0.20729
3706.33333	0.21008
3704.40496	0.20866
3702.47658	0.20450
3700.54821	0.20173
3698.61984	0.20069
3696.69146	0.19820
3694.76309	0.19338
3692.83472	0.18618
3690.90635	0.17689
3688.97797	0.16932
3687.04960	0.16646
3685.12123	0.16458
3683.19285	0.16040
3681.26448	0.15329
3679.33611	0.14409
3677.40773	0.13351
3675.47936	0.12272
3673.55099	0.11614
3671.62261	0.11155
3669.69424	0.10507
3667.76587	0.09992
3665.83749	0.09652
3663.90912	0.09173
3661.98075	0.08554
3660.05237	0.07912
3658.12400	0.07255
3656.19563	0.06571
3654.26725	0.05982
3652.33888	0.05440
3650.41051	0.04774
3648.48213	0.04157
3646.55376	0.03859
3644.62539	0.03690
3642.69701	0.03464
3640.76864	0.03183
3638.84027	0.02900
3636.91189	0.02622
3634.98352	0.02349
3633.05515	0.02095
3631.12678	0.01864
3629.19840	0.01630
3627.27003	0.01439
3625.34166	0.01323
3623.41328	0.01206
3621.48491	0.01063
3619.55654	0.00931
3617.62816	0.00845
3615.69979	0.00776
3613.77142	0.00691
3611.84304	0.00596
3609.91467	0.00516
3607.98630	0.00463
3606.05792	0.00428
3604.12955	0.00390
3602.20118	0.00343
3600.27280	0.00294
3598.34443	0.00250
3596.41606	0.00209
3594.48768	0.00177
3592.55931	0.00160
3590.63094	0.00147
3588.70256	0.00121
3586.77419	0.00098
3584.84582	0.00092
3582.91744	0.00079
3580.98907	0.00067
3579.06070	0.00068
3577.13233	0.00079
3575.20395	0.00081
3573.27558	0.00072
3571.34721	0.00054
3569.41883	0.00050
3567.49046	0.00074
3565.56209	0.00083
3563.63371	0.00062
3561.70534	0.00041
3559.77697	0.00033
3557.84859	0.00031
3555.92022	0.00031
3553.99185	0.00024
3552.06347	0.00019
3550.13510	0.00040
3548.20673	0.00066
3546.27835	0.00075
3544.34998	0.00072
3542.42161	0.00059
3540.49323	0.00056
3538.56486	0.00057
3536.63649	0.00064
3534.70811	0.00064
3532.77974	0.00061
3530.85137	0.00054
3528.92299	0.00059
3526.99462	0.00053
3525.06625	0.00049
3523.13787	0.00043
3521.20950	0.00042
3519.28113	0.00044
3517.35276	0.00037
3515.42438	0.00041
3513.49601	0.00048
3511.56764	0.00049
3509.63926	0.00044
3507.71089	0.00039
3505.78252	0.00032
3503.85414	0.00021
3501.92577	0.00030
3499.99740	0.00051
3498.06902	0.00061
3496.14065	0.00054
3494.21228	0.00060
3492.28390	0.00066
3490.35553	0.00043
3488.42716	0.00032
3486.49878	0.00020
3484.57041	0.00018
3482.64204	0.00034
3480.71366	0.00052
3478.78529	0.00057
3476.85692	0.00044
3474.92854	0.00030
3473.00017	0.00025
3471.07180	0.00055
3469.14342	0.00069
3467.21505	0.00062
3465.28668	0.00059
3463.35831	0.00045
3461.42993	0.00024
3459.50156	0.00026
3457.57319	0.00025
3455.64481	0.00048
3453.71644	0.00041
3451.78807	0.00015
3449.85969	0.00033
3447.93132	0.00035
3446.00295	0.00039
3444.07457	0.00050
3442.14620	0.00054
3440.21783	0.00062
3438.28945	0.00052
3436.36108	0.00042
3434.43271	0.00048
3432.50433	0.00045
3430.57596	0.00026
3428.64759	0.00020
3426.71921	0.00040
3424.79084	0.00052
3422.86247	0.00047
3420.93409	0.00041
3419.00572	0.00030
3417.07735	0.00023
3415.14897	0.00027
3413.22060	0.00025
3411.29223	0.00020
3409.36385	0.00024
3407.43548	0.00017
3405.50711	0.00025
3403.57874	0.00020
3401.65036	0.00009
3399.72199	0.00028
3397.79362	0.00035
3395.86524	0.00027
3393.93687	0.00044
3392.00850	0.00035
3390.08012	0.00019
3388.15175	0.00029
3386.22338	0.00033
3384.29500	0.00038
3382.36663	0.00033
3380.43826	0.00028
3378.50988	0.00040
3376.58151	0.00040
3374.65314	0.00036
3372.72476	0.00040
3370.79639	0.00040
3368.86802	0.00029
3366.93964	0.00015
3365.01127	0.00026
3363.08290	0.00041
3361.15452	0.00033
3359.22615	0.00027
3357.29778	0.00028
3355.36940	0.00018
3353.44103	0.00021
3351.51266	0.00030
3349.58428	0.00034
3347.65591	0.00029
3345.72754	0.00029
3343.79917	0.00034
3341.87079	0.00032
3339.94242	0.00030
3338.01405	0.00032
3336.08567	0.00036
3334.15730	0.00033
3332.22893	0.00022
3330.30055	0.00030
3328.37218	0.00031
3326.44381	0.00013
3324.51543	0.00025
3322.58706	0.00047
3320.65869	0.00051
3318.73031	0.00041
3316.80194	0.00028
3314.87357	0.00018
3312.94519	0.00026
3311.01682	0.00021
3309.08845	0.00029
3307.16007	0.00039
3305.23170	0.00034
3303.30333	0.00031
3301.37495	0.00043
3299.44658	0.00053
3297.51821	0.00043
3295.58983	0.00033
3293.66146	0.00017
3291.73309	0.00032
3289.80472	0.00047
3287.87634	0.00046
3285.94797	0.00040
3284.01960	0.00021
3282.09122	0.00031
3280.16285	0.00034
3278.23448	0.00025
3276.30610	0.00029
3274.37773	0.00042
3272.44936	0.00053
3270.52098	0.00056
3268.59261	0.00049
3266.66424	0.00046
3264.73586	0.00036
3262.80749	0.00032
3260.87912	0.00014
3258.95074	0.00010
3257.02237	0.00023
3255.09400	0.00018
3253.16562	0.00019
3251.23725	0.00022
3249.30888	0.00041
3247.38050	0.00059
3245.45213	0.00057
3243.52376	0.00043
3241.59538	0.00030
3239.66701	0.00042
3237.73864	0.00059
3235.81026	0.00055
3233.88189	0.00043
3231.95352	0.00035
3230.02515	0.00027
3228.09677	0.00031
3226.16840	0.00039
3224.24003	0.00041
3222.31165	0.00031
3220.38328	0.00021
3218.45491	0.00034
3216.52653	0.00037
3214.59816	0.00021
3212.66979	0.00019
3210.74141	0.00026
3208.81304	0.00018
3206.88467	0.00027
3204.95629	0.00040
3203.02792	0.00044
3201.09955	0.00057
3199.17117	0.00063
3197.24280	0.00058
3195.31443	0.00043
3193.38605	0.00023
3191.45768	0.00016
3189.52931	0.00028
3187.60093	0.00030
3185.67256	0.00028
3183.74419	0.00030
3181.81581	0.00027
3179.88744	0.00027
3177.95907	0.00022
3176.03070	0.00033
3174.10232	0.00038
3172.17395	0.00030
3170.24558	0.00031
3168.31720	0.00031
3166.38883	0.00019
3164.46046	0.00013
3162.53208	0.00013
3160.60371	0.00019
3158.67534	0.00023
3156.74696	0.00029
3154.81859	0.00044
3152.89022	0.00047
3150.96184	0.00039
3149.03347	0.00037
3147.10510	0.00031
3145.17672	0.00025
3143.24835	0.00036
3141.31998	0.00038
3139.39160	0.00044
3137.46323	0.00046
3135.53486	0.00039
3133.60648	0.00033
3131.67811	0.00027
3129.74974	0.00008
3127.82136	0.00024
3125.89299	0.00030
3123.96462	0.00024
3122.03624	0.00028
3120.10787	0.00035
3118.17950	0.00030
3116.25113	0.00027
3114.32275	0.00015
3112.39438	0.00011
3110.46601	0.00022
3108.53763	0.00031
3106.60926	0.00028
3104.68089	0.00023
3102.75251	0.00022
3100.82414	0.00030
3098.89577	0.00047
3096.96739	0.00049
3095.03902	0.00038
3093.11065	0.00039
3091.18227	0.00036
3089.25390	0.00020
3087.32553	0.00015
3085.39715	0.00031
3083.46878	0.00036
3081.54041	0.00039
3079.61203	0.00043
3077.68366	0.00030
3075.75529	0.00029
3073.82691	0.00031
3071.89854	0.00034
3069.97017	0.00051
3068.04179	0.00057
3066.11342	0.00043
3064.18505	0.00036
3062.25668	0.00042
3060.32830	0.00040
3058.39993	0.00037
3056.47156	0.00049
3054.54318	0.00043
3052.61481	0.00023
3050.68644	0.00017
3048.75806	0.00030
3046.82969	0.00032
3044.90132	0.00034
3042.97294	0.00039
3041.04457	0.00033
3039.11620	0.00028
3037.18782	0.00028
3035.25945	0.00036
3033.33108	0.00021
3031.40270	0.00017
3029.47433	0.00028
3027.54596	0.00037
3025.61758	0.00033
3023.68921	0.00024
3021.76084	0.00027
3019.83246	0.00023
3017.90409	0.00039
3015.97572	0.00038
3014.04734	0.00015
3012.11897	0.00026
3010.19060	0.00049
3008.26222	0.00047
3006.33385	0.00029
3004.40548	0.00032
3002.47711	0.00052
3000.54873	0.00054
2998.62036	0.00036
2996.69199	0.00021
2994.76361	0.00027
2992.83524	0.00026
2990.90687	0.00020
2988.97849	0.00031
2987.05012	0.00036
2985.12175	0.00033
2983.19337	0.00036
2981.26500	0.00048
2979.33663	0.00048
2977.40825	0.00036
2975.47988	0.00031
2973.55151	0.00030
2971.62313	0.00041
2969.69476	0.00056
2967.76639	0.00054
2965.83801	0.00049
2963.90964	0.00053
2961.98127	0.00061
2960.05289	0.00051
2958.12452	0.00043
2956.19615	0.00050
2954.26777	0.00046
2952.33940	0.00053
2950.41103	0.00074
2948.48266	0.00067
2946.55428	0.00037
2944.62591	0.00032
2942.69754	0.00033
2940.76916	0.00012
2938.84079	0.00038
2936.91242	0.00043
2934.98404	0.00033
2933.05567	0.00035
2931.12730	0.00040
2929.19892	0.00037
2927.27055	0.00027
2925.34218	0.00013
2923.41380	0.00016
2921.48543	0.00031
2919.55706	0.00042
2917.62868	0.00042
2915.70031	0.00048
2913.77194	0.00050
2911.84356	0.00027
2909.91519	0.00028
2907.98682	0.00050
2906.05844	0.00048
2904.13007	0.00048
2902.20170	0.00049
2900.27332	0.00041
2898.34495	0.00037
2896.41658	0.00021
2894.48820	0.00023
2892.55983	0.00028
2890.63146	0.00037
2888.70309	0.00053
2886.77471	0.00032
2884.84634	0.00012
2882.91797	0.00030
2880.98959	0.00026
2879.06122	0.00025
2877.13285	0.00028
2875.20447	0.00017
2873.27610	0.00015
2871.34773	0.00029
2869.41935	0.00043
2867.49098	0.00042
2865.56261	0.00048
2863.63423	0.00049
2861.70586	0.00040
2859.77749	0.00030
2857.84911	0.00030
2855.92074	0.00042
2853.99237	0.00066
2852.06399	0.00080
2850.13562	0.00079
2848.20725	0.00084
2846.27887	0.00100
2844.35050	0.00110
2842.42213	0.00112
2840.49375	0.00116
2838.56538	0.00127
2836.63701	0.00136
2834.70863	0.00143
2832.78026	0.00158
2830.85189	0.00174
2828.92352	0.00184
2826.99514	0.00196
2825.06677	0.00212
2823.13840	0.00230
2821.21002	0.00255
2819.28165	0.00281
2817.35328	0.00296
2815.42490	0.00305
2813.49653	0.00320
2811.56816	0.00339
2809.63978	0.00359
2807.71141	0.00383
2805.78304	0.00409
2803.85466	0.00434
2801.92629	0.00459
2799.99792	0.00486
2798.06954	0.00510
2796.14117	0.00531
2794.21280	0.00556
2792.28442	0.00590
2790.35605	0.00626
2788.42768	0.00654
2786.49930	0.00681
2784.57093	0.00706
2782.64256	0.00717
2780.71418	0.00724
2778.78581	0.00738
2776.85744	0.00756
2774.92907	0.00782
2773.00069	0.00820
2771.07232	0.00855
2769.14395	0.00871
2767.21557	0.00872
2765.28720	0.00884
2763.35883	0.00917
2761.43045	0.00950
2759.50208	0.00975
2757.57371	0.01002
2755.64533	0.01028
2753.71696	0.01046
2751.78859	0.01066
2749.86021	0.01094
2747.93184	0.01118
2746.00347	0.01132
2744.07509	0.01146
2742.14672	0.01172
2740.21835	0.01203
2738.28997	0.01221
2736.36160	0.01228
2734.43323	0.01245
2732.50485	0.01276
2730.57648	0.01309
2728.64811	0.01338
2726.71973	0.01362
2724.79136	0.01382
2722.86299	0.01403
2720.93461	0.01431
2719.00624	0.01468
2717.07787	0.01517
2715.14950	0.01576
2713.22112	0.01630
2711.29275	0.01672
2709.36438	0.01711
2707.43600	0.01755
2705.50763	0.01800
2703.57926	0.01834
2701.65088	0.01870
2699.72251	0.01915
2697.79414	0.01958
2695.86576	0.01999
2693.93739	0.02037
2692.00902	0.02065
2690.08064	0.02096
2688.15227	0.02138
2686.22390	0.02172
2684.29552	0.02198
2682.36715	0.02230
2680.43878	0.02270
2678.51040	0.02310
2676.58203	0.02341
2674.65366	0.02364
2672.72528	0.02390
2670.79691	0.02423
2668.86854	0.02463
2666.94016	0.02504
2665.01179	0.02542
2663.08342	0.02582
2661.15505	0.02621
2659.22667	0.02648
2657.29830	0.02665
2655.36993	0.02682
2653.44155	0.02704
2651.51318	0.02734
2649.58481	0.02763
2647.65643	0.02782
2645.72806	0.02795
2643.79969	0.02811
2641.87131	0.02823
2639.94294	0.02829
2638.01457	0.02844
2636.08619	0.02868
2634.15782	0.02884
2632.22945	0.02902
2630.30107	0.02939
2628.37270	0.02975
2626.44433	0.02992
2624.51595	0.02996
2622.58758	0.03006
2620.65921	0.03036
2618.73083	0.03086
2616.80246	0.03130
2614.87409	0.03157
2612.94571	0.03186
2611.01734	0.03222
2609.08897	0.03263
2607.16059	0.03312
2605.23222	0.03363
2603.30385	0.03409
2601.37548	0.03448
2599.44710	0.03486
2597.51873	0.03524
2595.59036	0.03557
2593.66198	0.03582
2591.73361	0.03606
2589.80524	0.03639
2587.87686	0.03685
2585.94849	0.03739
2584.02012	0.03793
2582.09174	0.03844
2580.16337	0.03889
2578.23500	0.03925
2576.30662	0.03962
2574.37825	0.04020
2572.44988	0.04094
2570.52150	0.04168
2568.59313	0.04235
2566.66476	0.04293
2564.73638	0.04346
2562.80801	0.04414
2560.87964	0.04508
2558.95126	0.04610
2557.02289	0.04696
2555.09452	0.04772
2553.16614	0.04842
2551.23777	0.04905
2549.30940	0.04966
2547.38103	0.05028
2545.45265	0.05090
2543.52428	0.05144
2541.59591	0.05183
2539.66753	0.05222
2537.73916	0.05262
2535.81079	0.05292
2533.88241	0.05321
2531.95404	0.05354
2530.02567	0.05392
2528.09729	0.05439
2526.16892	0.05493
2524.24055	0.05542
2522.31217	0.05582
2520.38380	0.05623
2518.45543	0.05666
2516.52705	0.05715
2514.59868	0.05765
2512.67031	0.05803
2510.74193	0.05835
2508.81356	0.05883
2506.88519	0.05950
2504.95681	0.06023
2503.02844	0.06092
2501.10007	0.06158
2499.17169	0.06224
2497.24332	0.06289
2495.31495	0.06351
2493.38657	0.06415
2491.45820	0.06483
2489.52983	0.06556
2487.60146	0.06641
2485.67308	0.06727
2483.74471	0.06807
2481.81634	0.06881
2479.88796	0.06950
2477.95959	0.07022
2476.03122	0.07104
2474.10284	0.07187
2472.17447	0.07257
2470.24610	0.07329
2468.31772	0.07420
2466.38935	0.07522
2464.46098	0.07617
2462.53260	0.07707
2460.60423	0.07802
2458.67586	0.07895
2456.74748	0.07984
2454.81911	0.08075
2452.89074	0.08177
2450.96236	0.08284
2449.03399	0.08379
2447.10562	0.08458
2445.17724	0.08537
2443.24887	0.08625
2441.32050	0.08713
2439.39212	0.08793
2437.46375	0.08869
2435.53538	0.08949
2433.60700	0.09031
2431.67863	0.09109
2429.75026	0.09185
2427.82189	0.09264
2425.89351	0.09342
2423.96514	0.09412
2422.03677	0.09470
2420.10839	0.09522
2418.18002	0.09579
2416.25165	0.09646
2414.32327	0.09715
2412.39490	0.09790
2410.46653	0.09883
2408.53815	0.09993
2406.60978	0.10108
2404.68141	0.10213
2402.75303	0.10315
2400.82466	0.10423
2398.89629	0.10542
2396.96791	0.10661
2395.03954	0.10772
2393.11117	0.10879
2391.18279	0.10987
2389.25442	0.11088
2387.32605	0.11168
2385.39767	0.11227
2383.46930	0.11271
2381.54093	0.11304
2379.61255	0.11330
2377.68418	0.11354
2375.75581	0.11382
2373.82744	0.11407
2371.89906	0.11418
2369.97069	0.11429
2368.04232	0.11466
2366.11394	0.11518
2364.18557	0.11574
2362.25720	0.11656
2360.32882	0.11752
2358.40045	0.11858
2356.47208	0.12001
2354.54370	0.12148
2352.61533	0.12274
2350.68696	0.12380
2348.75858	0.12452
2346.83021	0.12486
2344.90184	0.12512
2342.97346	0.12553
2341.04509	0.12588
2339.11672	0.12609
2337.18834	0.12641
2335.25997	0.12700
2333.33160	0.12779
2331.40322	0.12845
2329.47485	0.12886
2327.54648	0.12911
2325.61810	0.12945
2323.68973	0.13009
2321.76136	0.13109
2319.83298	0.13223
2317.90461	0.13330
2315.97624	0.13432
2314.04787	0.13549
2312.11949	0.13695
2310.19112	0.13858
2308.26275	0.14023
2306.33437	0.14182
2304.40600	0.14320
2302.47763	0.14433
2300.54925	0.14542
2298.62088	0.14659
2296.69251	0.14772
2294.76413	0.14872
2292.83576	0.14960
2290.90739	0.15042
2288.97901	0.15112
2287.05064	0.15172
2285.12227	0.15231
2283.19389	0.15291
2281.26552	0.15339
2279.33715	0.15362
2277.40877	0.15373
2275.48040	0.15389
2273.55203	0.15416
2271.62365	0.15446
2269.69528	0.15474
2267.76691	0.15499
2265.83853	0.15520
2263.91016	0.15544
2261.98179	0.15575
2260.05342	0.15616
2258.12504	0.15659
2256.19667	0.15700
2254.26830	0.15756
2252.33992	0.15836
2250.41155	0.15921
2248.48318	0.16008
2246.55480	0.16097
2244.62643	0.16177
2242.69806	0.16233
2240.76968	0.16274
2238.84131	0.16318
2236.91294	0.16373
2234.98456	0.16419
2233.05619	0.16441
2231.12782	0.16458
2229.19944	0.16484
2227.27107	0.16512
2225.34270	0.16532
2223.41432	0.16541
2221.48595	0.16549
2219.55758	0.16558
2217.62920	0.16556
2215.70083	0.16546
2213.77246	0.16539
2211.84408	0.16534
2209.91571	0.16530
2207.98734	0.16527
2206.05896	0.16522
2204.13059	0.16509
2202.20222	0.16494
2200.27385	0.16478
2198.34547	0.16456
2196.41710	0.16428
2194.48873	0.16407
2192.56035	0.16390
2190.63198	0.16369
2188.70361	0.16343
2186.77523	0.16319
2184.84686	0.16310
2182.91849	0.16310
2180.99011	0.16304
2179.06174	0.16294
2177.13337	0.16284
2175.20499	0.16272
2173.27662	0.16254
2171.34825	0.16235
2169.41987	0.16222
2167.49150	0.16218
2165.56313	0.16215
2163.63475	0.16210
2161.70638	0.16207
2159.77801	0.16203
2157.84963	0.16195
2155.92126	0.16196
2153.99289	0.16214
2152.06451	0.16242
2150.13614	0.16268
2148.20777	0.16285
2146.27940	0.16299
2144.35102	0.16317
2142.42265	0.16338
2140.49428	0.16359
2138.56590	0.16377
2136.63753	0.16400
2134.70916	0.16431
2132.78078	0.16465
2130.85241	0.16502
2128.92404	0.16549
2126.99566	0.16609
2125.06729	0.16676
2123.13892	0.16744
2121.21054	0.16813
2119.28217	0.16890
2117.35380	0.16976
2115.42542	0.17058
2113.49705	0.17128
2111.56868	0.17198
2109.64030	0.17278
2107.71193	0.17352
2105.78356	0.17410
2103.85518	0.17466
2101.92681	0.17526
2099.99844	0.17580
2098.07006	0.17627
2096.14169	0.17673
2094.21332	0.17707
2092.28494	0.17723
2090.35657	0.17735
2088.42820	0.17760
2086.49983	0.17793
2084.57145	0.17818
2082.64308	0.17830
2080.71471	0.17832
2078.78633	0.17827
2076.85796	0.17821
2074.92959	0.17826
2073.00121	0.17839
2071.07284	0.17859
2069.14447	0.17877
2067.21609	0.17887
2065.28772	0.17905
2063.35935	0.17950
2061.43097	0.18017
2059.50260	0.18096
2057.57423	0.18183
2055.64585	0.18268
2053.71748	0.18362
2051.78911	0.18467
2049.86073	0.18571
2047.93236	0.18667
2046.00399	0.18756
2044.07561	0.18835
2042.14724	0.18914
2040.21887	0.19014
2038.29049	0.19128
2036.36212	0.19230
2034.43375	0.19313
2032.50538	0.19384
2030.57700	0.19454
2028.64863	0.19523
2026.72026	0.19581
2024.79188	0.19629
2022.86351	0.19680
2020.93514	0.19719
2019.00676	0.19731
2017.07839	0.19765
2015.15002	0.19869
2013.22164	0.19993
2011.29327	0.20094
2009.36490	0.20184
2007.43652	0.20279
2005.50815	0.20381
2003.57978	0.20488
2001.65140	0.20588
1999.72303	0.20670
1997.79466	0.20742
1995.86628	0.20778
1993.93791	0.20731
1992.00954	0.20683
1990.08116	0.20748
1988.15279	0.20875
1986.22442	0.20979
1984.29604	0.21047
1982.36767	0.21084
1980.43930	0.21104
1978.51092	0.21116
1976.58255	0.21131
1974.65418	0.21162
1972.72581	0.21202
1970.79743	0.21213
1968.86906	0.21174
1966.94069	0.21170
1965.01231	0.21270
1963.08394	0.21393
1961.15557	0.21476
1959.22719	0.21548
1957.29882	0.21623
1955.37045	0.21702
1953.44207	0.21800
1951.51370	0.21917
1949.58533	0.22029
1947.65695	0.22101
1945.72858	0.22094
1943.80021	0.22050
1941.87183	0.22153
1939.94346	0.22427
1938.01509	0.22655
1936.08671	0.22763
1934.15834	0.22829
1932.22997	0.22895
1930.30159	0.22965
1928.37322	0.23028
1926.44485	0.23027
1924.51647	0.22935
1922.58810	0.22878
1920.65973	0.22903
1918.73135	0.22916
1916.80298	0.23026
1914.87461	0.23247
1912.94624	0.23354
1911.01786	0.23306
1909.08949	0.23278
1907.16112	0.23365
1905.23274	0.23473
1903.30437	0.23533
1901.37600	0.23569
1899.44762	0.23576
1897.51925	0.23518
1895.59088	0.23448
1893.66250	0.23439
1891.73413	0.23381
1889.80576	0.23290
1887.87738	0.23381
1885.94901	0.23563
1884.02064	0.23661
1882.09226	0.23718
1880.16389	0.23772
1878.23552	0.23809
1876.30714	0.23839
1874.37877	0.23846
1872.45040	0.23699
1870.52202	0.23312
1868.59365	0.23021
1866.66528	0.23222
1864.73690	0.23617
1862.80853	0.23821
1860.88016	0.23852
1858.95179	0.23848
1857.02341	0.23861
1855.09504	0.23871
1853.16667	0.23851
1851.23829	0.23775
1849.30992	0.23597
1847.38155	0.23285
1845.45317	0.22915
1843.52480	0.22842
1841.59643	0.23156
1839.66805	0.23387
1837.73968	0.23381
1835.81131	0.23328
1833.88293	0.23218
1831.95456	0.22859
1830.02619	0.22436
1828.09781	0.22332
1826.16944	0.22372
1824.24107	0.22405
1822.31269	0.22516
1820.38432	0.22547
1818.45595	0.22416
1816.52757	0.22236
1814.59920	0.22003
1812.67083	0.21642
1810.74245	0.21283
1808.81408	0.21114
1806.88571	0.21010
1804.95733	0.20751
1803.02896	0.20277
1801.10059	0.19743
1799.17222	0.19376
1797.24384	0.19099
1795.31547	0.18646
1793.38710	0.17973
1791.45872	0.17465
1789.53035	0.17353
1787.60198	0.17211
1785.67360	0.16813
1783.74523	0.16321
1781.81686	0.15848
1779.88848	0.15435
1777.96011	0.15088
1776.03174	0.14638
1774.10336	0.13967
1772.17499	0.13298
1770.24662	0.12986
1768.31824	0.12874
1766.38987	0.12692
1764.46150	0.12338
1762.53312	0.11787
1760.60475	0.11226
1758.67638	0.10750
1756.74800	0.10225
1754.81963	0.09665
1752.89126	0.09006
1750.96288	0.08160
1749.03451	0.07343
1747.10614	0.06723
1745.17777	0.06159
1743.24939	0.05562
1741.32102	0.04941
1739.39265	0.04323
1737.46427	0.03796
1735.53590	0.03278
1733.60753	0.02672
1731.67915	0.02214
1729.75078	0.01903
1727.82241	0.01596
1725.89403	0.01294
1723.96566	0.01014
1722.03729	0.00780
1720.10891	0.00593
1718.18054	0.00418
1716.25217	0.00269
1714.32379	0.00192
1712.39542	0.00149
1710.46705	0.00110
1708.53867	0.00076
1706.61030	0.00053
1704.68193	0.00035
1702.75355	0.00030
1700.82518	0.00023
1698.89681	0.00010
1696.96843	0.00018
1695.04006	0.00028
1693.11169	0.00025
1691.18331	0.00018
1689.25494	0.00021
1687.32657	0.00030
1685.39820	0.00039
1683.46982	0.00037
1681.54145	0.00023
1679.61308	0.00017
1677.68470	0.00012
1675.75633	0.00014
1673.82796	0.00022
1671.89958	0.00030
1669.97121	0.00029
1668.04284	0.00018
1666.11446	0.00009
1664.18609	0.00011
1662.25772	0.00021
1660.32934	0.00029
1658.40097	0.00032
1656.47260	0.00026
1654.54422	0.00015
1652.61585	0.00022
1650.68748	0.00023
1648.75910	0.00021
1646.83073	0.00009
1644.90236	0.00017
1642.97398	0.00024
1641.04561	0.00026
1639.11724	0.00030
1637.18886	0.00035
1635.26049	0.00039
1633.33212	0.00030
1631.40375	0.00023
1629.47537	0.00018
1627.54700	0.00013
1625.61863	0.00014
1623.69025	0.00028
1621.76188	0.00034
1619.83351	0.00027
1617.90513	0.00026
1615.97676	0.00027
1614.04839	0.00023
1612.12001	0.00025
1610.19164	0.00020
1608.26327	0.00007
1606.33489	0.00008
1604.40652	0.00011
1602.47815	0.00013
1600.54977	0.00013
1598.62140	0.00019
1596.69303	0.00022
1594.76465	0.00014
1592.83628	0.00008
1590.90791	0.00016
1588.97953	0.00013
1587.05116	0.00014
1585.12279	0.00019
1583.19441	0.00013
1581.26604	0.00012
1579.33767	0.00010
1577.40929	0.00012
1575.48092	0.00012
1573.55255	0.00008
1571.62418	0.00016
1569.69580	0.00018
1567.76743	0.00017
1565.83906	0.00021
1563.91068	0.00033
1561.98231	0.00030
1560.05394	0.00015
1558.12556	0.00026
1556.19719	0.00047
1554.26882	0.00048
1552.34044	0.00033
1550.41207	0.00020
1548.48370	0.00021
1546.55532	0.00025
1544.62695	0.00026
1542.69858	0.00026
1540.77020	0.00024
1538.84183	0.00025
1536.91346	0.00031
1534.98508	0.00024
1533.05671	0.00007
1531.12834	0.00024
1529.19996	0.00034
1527.27159	0.00032
1525.34322	0.00029
1523.41484	0.00024
1521.48647	0.00011
1519.55810	0.00019
1517.62972	0.00007
1515.70135	0.00013
1513.77298	0.00027
1511.84461	0.00038
1509.91623	0.00044
1507.98786	0.00044
1506.05949	0.00036
1504.13111	0.00026
1502.20274	0.00017
1500.27437	0.00015
1498.34599	0.00024
1496.41762	0.00025
1494.48925	0.00032
1492.56087	0.00029
1490.63250	0.00019
1488.70413	0.00025
1486.77575	0.00020
1484.84738	0.00022
1482.91901	0.00022
1480.99063	0.00025
1479.06226	0.00024
1477.13389	0.00022
1475.20551	0.00028
1473.27714	0.00037
1471.34877	0.00037
1469.42039	0.00026
1467.49202	0.00025
1465.56365	0.00031
1463.63527	0.00032
1461.70690	0.00036
1459.77853	0.00045
1457.85016	0.00043
1455.92178	0.00024
1453.99341	0.00027
1452.06504	0.00025
1450.13666	0.00025
1448.20829	0.00020
1446.27992	0.00020
1444.35154	0.00016
1442.42317	0.00005
1440.49480	0.00011
1438.56642	0.00026
1436.63805	0.00027
1434.70968	0.00012
1432.78130	0.00021
1430.85293	0.00025
1428.92456	0.00020
1426.99618	0.00018
1425.06781	0.00019
1423.13944	0.00020
1421.21106	0.00022
1419.28269	0.00023
1417.35432	0.00012
1415.42594	0.00018
1413.49757	0.00027
1411.56920	0.00025
1409.64082	0.00017
1407.71245	0.00016
1405.78408	0.00013
1403.85570	0.00015
1401.92733	0.00014
1399.99896	0.00018
1398.07059	0.00022
1396.14221	0.00016
1394.21384	0.00009
1392.28547	0.00016
1390.35709	0.00019
1388.42872	0.00020
1386.50035	0.00017
1384.57197	0.00031
1382.64360	0.00047
1380.71523	0.00048
1378.78685	0.00030
1376.85848	0.00024
1374.93011	0.00028
1373.00173	0.00032
1371.07336	0.00036
1369.14499	0.00033
1367.21661	0.00026
1365.28824	0.00020
1363.35987	0.00017
1361.43149	0.00006
1359.50312	0.00010
1357.57475	0.00016
1355.64637	0.00016
1353.71800	0.00017
1351.78963	0.00018
1349.86125	0.00015
1347.93288	0.00009
1346.00451	0.00018
1344.07614	0.00029
1342.14776	0.00038
1340.21939	0.00039
1338.29102	0.00031
1336.36264	0.00028
1334.43427	0.00027
1332.50590	0.00023
1330.57752	0.00019
1328.64915	0.00013
1326.72078	0.00019
1324.79240	0.00026
1322.86403	0.00018
1320.93566	0.00014
1319.00728	0.00026
1317.07891	0.00040
1315.15054	0.00035
1313.22216	0.00024
1311.29379	0.00015
1309.36542	0.00008
1307.43704	0.00006
1305.50867	0.00019
1303.58030	0.00023
1301.65192	0.00028
1299.72355	0.00018
1297.79518	0.00023
1295.86680	0.00039
1293.93843	0.00038
1292.01006	0.00030
1290.08168	0.00030
1288.15331	0.00035
1286.22494	0.00029
1284.29657	0.00016
1282.36819	0.00019
1280.43982	0.00017
1278.51145	0.00011
1276.58307	0.00011
1274.65470	0.00008
1272.72633	0.00020
1270.79795	0.00026
1268.86958	0.00037
1266.94121	0.00040
1265.01283	0.00032
1263.08446	0.00027
1261.15609	0.00043
1259.22771	0.00056
1257.29934	0.00058
1255.37097	0.00049
1253.44259	0.00040
1251.51422	0.00023
1249.58585	0.00031
1247.65747	0.00026
1245.72910	0.00041
1243.80073	0.00036
1241.87235	0.00039
1239.94398	0.00045
1238.01561	0.00039
1236.08723	0.00036
1234.15886	0.00041
1232.23049	0.00055
1230.30212	0.00069
1228.37374	0.00063
1226.44537	0.00067
1224.51700	0.00080
1222.58862	0.00077
1220.66025	0.00068
1218.73188	0.00061
1216.80350	0.00046
1214.87513	0.00036
1212.94676	0.00061
1211.01838	0.00067
1209.09001	0.00050
1207.16164	0.00026
1205.23326	0.00018
1203.30489	0.00030
1201.37652	0.00042
1199.44814	0.00033
1197.51977	0.00028
1195.59140	0.00027
1193.66302	0.00010
1191.73465	0.00030
1189.80628	0.00041
1187.87790	0.00024
1185.94953	0.00013
1184.02116	0.00012
1182.09278	0.00015
1180.16441	0.00028
1178.23604	0.00034
1176.30766	0.00026
1174.37929	0.00038
1172.45092	0.00035
1170.52255	0.00032
1168.59417	0.00041
1166.66580	0.00035
1164.73743	0.00030
1162.80905	0.00042
1160.88068	0.00041
1158.95231	0.00015
1157.02393	0.00043
1155.09556	0.00058
1153.16719	0.00059
1151.23881	0.00052
1149.31044	0.00038
1147.38207	0.00034
1145.45369	0.00039
1143.52532	0.00025
1141.59695	0.00026
1139.66857	0.00048
1137.74020	0.00062
1135.81183	0.00052
1133.88345	0.00034
1131.95508	0.00028
1130.02671	0.00028
1128.09833	0.00045
1126.16996	0.00060
1124.24159	0.00048
1122.31321	0.00032
1120.38484	0.00043
1118.45647	0.00062
1116.52809	0.00033
1114.59972	0.00042
1112.67135	0.00075
1110.74298	0.00068
1108.81460	0.00063
1106.88623	0.00076
1104.95786	0.00086
1103.02948	0.00071
1101.10111	0.00058
1099.17274	0.00067
1097.24436	0.00057
1095.31599	0.00039
1093.38762	0.00054
1091.45924	0.00056
1089.53087	0.00052
1087.60250	0.00035
1085.67412	0.00048
1083.74575	0.00046
1081.81738	0.00029
1079.88900	0.00024
1077.96063	0.00048
1076.03226	0.00081
1074.10388	0.00068
1072.17551	0.00050
1070.24714	0.00059
1068.31876	0.00032
1066.39039	0.00020
1064.46202	0.00026
1062.53364	0.00031
1060.60527	0.00039
1058.67690	0.00068
1056.74853	0.00090
1054.82015	0.00087
1052.89178	0.00064
1050.96341	0.00060
1049.03503	0.00056
1047.10666	0.00040
1045.17829	0.00041
1043.24991	0.00040
1041.32154	0.00046
1039.39317	0.00052
1037.46479	0.00047
1035.53642	0.00056
1033.60805	0.00023
1031.67967	0.00036
1029.75130	0.00040
1027.82293	0.00021
1025.89455	0.00045
1023.96618	0.00049
1022.03781	0.00034
1020.10943	0.00031
1018.18106	0.00034
1016.25269	0.00032
1014.32431	0.00026
1012.39594	0.00032
1010.46757	0.00032
1008.53919	0.00030
1006.61082	0.00023
1004.68245	0.00017
1002.75407	0.00026
1000.82570	0.00031
998.89733	0.00023
996.96896	0.00028
995.04058	0.00060
993.11221	0.00084
991.18384	0.00097
989.25546	0.00116
987.32709	0.00139
985.39872	0.00158
983.47034	0.00170
981.54197	0.00155
979.61360	0.00115
977.68522	0.00090
975.75685	0.00098
973.82848	0.00137
971.90010	0.00178
969.97173	0.00215
968.04336	0.00272
966.11498	0.00348
964.18661	0.00400
962.25824	0.00385
960.32986	0.00293
958.40149	0.00160
956.47312	0.00066
954.54474	0.00043
952.61637	0.00058
950.68800	0.00113
948.75962	0.00211
946.83125	0.00335
944.90288	0.00487
942.97451	0.00664
941.04613	0.00842
939.11776	0.01003
937.18939	0.01155
935.26101	0.01305
933.33264	0.01457
931.40427	0.01578
929.47589	0.01630
927.54752	0.01625
925.61915	0.01580
923.69077	0.01513
921.76240	0.01467
919.83403	0.01480
917.90565	0.01576
915.97728	0.01736
914.04891	0.01884
912.12053	0.01943
910.19216	0.01878
908.26379	0.01709
906.33541	0.01477
904.40704	0.01218
902.47867	0.00974
900.55029	0.00787
898.62192	0.00682
896.69355	0.00665
894.76517	0.00700
892.83680	0.00745
890.90843	0.00811
888.98005	0.00924
887.05168	0.01074
885.12331	0.01232
883.19494	0.01383
881.26656	0.01519
879.33819	0.01632
877.40982	0.01724
875.48144	0.01804
873.55307	0.01870
871.62470	0.01911
869.69632	0.01924
867.76795	0.01915
865.83958	0.01917
863.91120	0.01947
861.98283	0.01970
860.05446	0.01948
858.12608	0.01893
856.19771	0.01839
854.26934	0.01793
852.34096	0.01748
850.41259	0.01709
848.48422	0.01681
846.55584	0.01663
844.62747	0.01643
842.69910	0.01583
840.77072	0.01479
838.84235	0.01379
836.91398	0.01303
834.98560	0.01219
833.05723	0.01112
831.12886	0.01018
829.20049	0.00947
827.27211	0.00879
825.34374	0.00832
823.41537	0.00815
821.48699	0.00781
819.55862	0.00723
817.63025	0.00670
815.70187	0.00620
813.77350	0.00594
811.84513	0.00607
809.91675	0.00620
807.98838	0.00594
806.06001	0.00539
804.13163	0.00526
802.20326	0.00562
800.27489	0.00542
798.34651	0.00449
796.41814	0.00365
794.48977	0.00319
792.56139	0.00296
790.63302	0.00281
788.70465	0.00258
786.77627	0.00232
784.84790	0.00209
782.91953	0.00210
780.99115	0.00229
779.06278	0.00227
777.13441	0.00177
775.20603	0.00131
773.27766	0.00130
771.34929	0.00137
769.42092	0.00126
767.49254	0.00111
765.56417	0.00098
763.63580	0.00062
761.70742	0.00048
759.77905	0.00059
757.85068	0.00067
755.92230	0.00106
753.99393	0.00122
752.06556	0.00100
750.13718	0.00075
748.20881	0.00071
746.28044	0.00068
744.35206	0.00066
742.42369	0.00065
740.49532	0.00038
738.56694	0.00060
736.63857	0.00072
734.71020	0.00060
732.78182	0.00040
730.85345	0.00062
728.92508	0.00069
726.99670	0.00038
725.06833	0.00042
723.13996	0.00071
721.21158	0.00056
719.28321	0.00055
717.35484	0.00079
715.42647	0.00050
713.49809	0.00029
711.56972	0.00067
709.64135	0.00166
707.71297	0.00166
705.78460	0.00106
703.85623	0.00109
701.92785	0.00117
699.99948	0.00124
698.07111	0.00083
696.14273	0.00056
694.21436	0.00017
692.28599	0.00076
690.35761	0.00071
688.42924	0.00076
686.50087	0.00111
684.57249	0.00127
682.64412	0.00109
680.71575	0.00123
678.78737	0.00081
676.85900	0.00051
674.93063	0.00072
673.00225	0.00055
671.07388	0.00082
669.14551	0.00154
667.21713	0.00173
665.28876	0.00101
663.36039	0.00058
661.43201	0.00162
659.50364	0.00203
657.57527	0.00233
655.64690	0.00238
653.71852	0.00217
651.79015	0.00131
649.86178	0.00077
647.93340	0.00114
646.00503	0.00135
644.07666	0.00115
642.14828	0.00096
640.21991	0.00184
638.29154	0.00231
636.36316	0.00175
634.43479	0.00150
632.50642	0.00117
630.57804	0.00130
628.64967	0.00116
626.72130	0.00155
624.79292	0.00246
622.86455	0.00261
620.93618	0.00189
619.00780	0.00066
617.07943	0.00163
615.15106	0.00333
613.22268	0.00363
611.29431	0.00330
609.36594	0.00330
607.43756	0.00276
605.50919	0.00243
603.58082	0.00369
601.65244	0.00349
599.72407	0.00216
