3997.51769	0.06977
3995.58931	0.06922
3993.66094	0.06918
3991.73257	0.06975
3989.80419	0.07006
3987.87582	0.07017
3985.94745	0.07046
3984.01907	0.07058
3982.09070	0.07059
3980.16233	0.07077
3978.23396	0.07111
3976.30558	0.07157
3974.37721	0.07197
3972.44884	0.07207
3970.52046	0.07198
3968.59209	0.07199
3966.66372	0.07203
3964.73534	0.07203
3962.80697	0.07211
3960.87860	0.07207
3958.95022	0.07188
3957.02185	0.07207
3955.09348	0.07270
3953.16510	0.07345
3951.23673	0.07423
3949.30836	0.07473
3947.37998	0.07463
3945.45161	0.07435
3943.52324	0.07455
3941.59486	0.07507
3939.66649	0.07506
3937.73812	0.07462
3935.80974	0.07464
3933.88137	0.07530
3931.95300	0.07631
3930.02462	0.07731
3928.09625	0.07768
3926.16788	0.07733
3924.23950	0.07690
3922.31113	0.07703
3920.38276	0.07766
3918.45439	0.07826
3916.52601	0.07854
3914.59764	0.07870
3912.66927	0.07898
3910.74089	0.07936
3908.81252	0.07968
3906.88415	0.07992
3904.95577	0.08031
3903.02740	0.08094
3901.09903	0.08127
3899.17065	0.08125
3897.24228	0.08148
3895.31391	0.08201
3893.38553	0.08256
3891.45716	0.08292
3889.52879	0.08295
3887.60041	0.08300
3885.67204	0.08325
3883.74367	0.08365
3881.81529	0.08421
3879.88692	0.08452
3877.95855	0.08444
3876.03017	0.08440
3874.10180	0.08481
3872.17343	0.08552
3870.24505	0.08584
3868.31668	0.08592
3866.38831	0.08638
3864.45994	0.08689
3862.53156	0.08666
3860.60319	0.08618
3858.67482	0.08614
3856.74644	0.08616
3854.81807	0.08616
3852.88970	0.08698
3850.96132	0.08780
3849.03295	0.08788
3847.10458	0.08779
3845.17620	0.08783
3843.24783	0.08796
3841.31946	0.08827
3839.39108	0.08896
3837.46271	0.08970
3835.53434	0.08966
3833.60596	0.08900
3831.67759	0.08837
3829.74922	0.08825
3827.82084	0.08885
3825.89247	0.08945
3823.96410	0.08923
3822.03572	0.08857
3820.10735	0.08814
3818.17898	0.08842
3816.25060	0.08939
3814.32223	0.09014
3812.39386	0.09018
3810.46548	0.09008
3808.53711	0.09018
3806.60874	0.09044
3804.68037	0.09042
3802.75199	0.09002
3800.82362	0.08976
3798.89525	0.09010
3796.96687	0.09050
3795.03850	0.09063
3793.11013	0.09075
3791.18175	0.09067
3789.25338	0.09015
3787.32501	0.08985
3785.39663	0.08992
3783.46826	0.08978
3781.53989	0.08962
3779.61151	0.08981
3777.68314	0.09018
3775.75477	0.09038
3773.82639	0.09018
3771.89802	0.08986
3769.96965	0.08989
3768.04127	0.09002
3766.11290	0.08995
3764.18453	0.08986
3762.25615	0.08977
3760.32778	0.08977
3758.39941	0.08970
3756.47103	0.08919
3754.54266	0.08882
3752.61429	0.08926
3750.68591	0.08978
3748.75754	0.08955
3746.82917	0.08976
3744.90080	0.09033
3742.97242	0.09000
3741.04405	0.08916
3739.11568	0.08841
3737.18730	0.08780
3735.25893	0.08760
3733.33056	0.08737
3731.40218	0.08696
3729.47381	0.08692
3727.54544	0.08700
3725.61706	0.08681
3723.68869	0.08639
3721.76032	0.08584
3719.83194	0.08508
3717.90357	0.08423
3715.97520	0.08353
3714.04682	0.08323
3712.11845	0.08303
3710.19008	0.08196
3708.26170	0.08053
3706.33333	0.07976
3704.40496	0.07940
3702.47658	0.07862
3700.54821	0.07698
3698.61984	0.07515
3696.69146	0.07326
3694.76309	0.07127
3692.83472	0.06966
3690.90635	0.06823
3688.97797	0.06617
3687.04960	0.06375
3685.12123	0.06157
3683.19285	0.05937
3681.26448	0.05686
3679.33611	0.05426
3677.40773	0.05185
3675.47936	0.04895
3673.55099	0.04594
3671.62261	0.04317
3669.69424	0.03938
3667.76587	0.03591
3665.83749	0.03369
3663.90912	0.03142
3661.98075	0.02885
3660.05237	0.02655
3658.12400	0.02443
3656.19563	0.02201
3654.26725	0.02017
3652.33888	0.01936
3650.41051	0.01816
3648.48213	0.01536
3646.55376	0.01270
3644.62539	0.01131
3642.69701	0.01060
3640.76864	0.00983
3638.84027	0.00848
3636.91189	0.00692
3634.98352	0.00578
3633.05515	0.00535
3631.12678	0.00538
3629.19840	0.00523
3627.27003	0.00452
3625.34166	0.00376
3623.41328	0.00320
3621.48491	0.00305
3619.55654	0.00281
3617.62816	0.00183
3615.69979	0.00084
3613.77142	0.00080
3611.84304	0.00109
3609.91467	0.00116
3607.98630	0.00126
3606.05792	0.00096
3604.12955	0.00054
3602.20118	0.00033
3600.27280	0.00089
3598.34443	0.00115
3596.41606	0.00100
3594.48768	0.00137
3592.55931	0.00130
3590.63094	0.00096
3588.70256	0.00100
3586.77419	0.00113
3584.84582	0.00080
3582.91744	0.00082
3580.98907	0.00107
3579.06070	0.00129
3577.13233	0.00096
3575.20395	0.00059
3573.27558	0.00066
3571.34721	0.00074
3569.41883	0.00074
3567.49046	0.00118
3565.56209	0.00103
3563.63371	0.00088
3561.70534	0.00120
3559.77697	0.00085
3557.84859	0.00085
3555.92022	0.00106
3553.99185	0.00099
3552.06347	0.00088
3550.13510	0.00085
3548.20673	0.00084
3546.27835	0.00103
3544.34998	0.00126
3542.42161	0.00097
3540.49323	0.00053
3538.56486	0.00045
3536.63649	0.00044
3534.70811	0.00056
3532.77974	0.00050
3530.85137	0.00079
3528.92299	0.00086
3526.99462	0.00100
3525.06625	0.00117
3523.13787	0.00140
3521.20950	0.00099
3519.28113	0.00061
3517.35276	0.00077
3515.42438	0.00115
3513.49601	0.00142
3511.56764	0.00130
3509.63926	0.00065
3507.71089	0.00089
3505.78252	0.00095
3503.85414	0.00123
3501.92577	0.00094
3499.99740	0.00051
3498.06902	0.00066
3496.14065	0.00097
3494.21228	0.00086
3492.28390	0.00046
3490.35553	0.00048
3488.42716	0.00052
3486.49878	0.00084
3484.57041	0.00079
3482.64204	0.00057
3480.71366	0.00055
3478.78529	0.00066
3476.85692	0.00049
3474.92854	0.00042
3473.00017	0.00079
3471.07180	0.00092
3469.14342	0.00080
3467.21505	0.00069
3465.28668	0.00069
3463.35831	0.00097
3461.42993	0.00098
3459.50156	0.00116
3457.57319	0.00147
3455.64481	0.00132
3453.71644	0.00064
3451.78807	0.00027
3449.85969	0.00041
3447.93132	0.00060
3446.00295	0.00066
3444.07457	0.00052
3442.14620	0.00053
3440.21783	0.00069
3438.28945	0.00055
3436.36108	0.00057
3434.43271	0.00066
3432.50433	0.00049
3430.57596	0.00063
3428.64759	0.00110
3426.71921	0.00101
3424.79084	0.00083
3422.86247	0.00098
3420.93409	0.00048
3419.00572	0.00071
3417.07735	0.00079
3415.14897	0.00089
3413.22060	0.00092
3411.29223	0.00049
3409.36385	0.00068
3407.43548	0.00088
3405.50711	0.00067
3403.57874	0.00099
3401.65036	0.00086
3399.72199	0.00106
3397.79362	0.00140
3395.86524	0.00125
3393.93687	0.00077
3392.00850	0.00099
3390.08012	0.00104
3388.15175	0.00091
3386.22338	0.00032
3384.29500	0.00055
3382.36663	0.00095
3380.43826	0.00133
3378.50988	0.00147
3376.58151	0.00146
3374.65314	0.00136
3372.72476	0.00129
3370.79639	0.00084
3368.86802	0.00067
3366.93964	0.00071
3365.01127	0.00074
3363.08290	0.00071
3361.15452	0.00068
3359.22615	0.00077
3357.29778	0.00079
3355.36940	0.00110
3353.44103	0.00122
3351.51266	0.00099
3349.58428	0.00058
3347.65591	0.00052
3345.72754	0.00108
3343.79917	0.00161
3341.87079	0.00172
3339.94242	0.00134
3338.01405	0.00059
3336.08567	0.00051
3334.15730	0.00062
3332.22893	0.00074
3330.30055	0.00069
3328.37218	0.00061
3326.44381	0.00077
3324.51543	0.00098
3322.58706	0.00134
3320.65869	0.00123
3318.73031	0.00078
3316.80194	0.00072
3314.87357	0.00085
3312.94519	0.00097
3311.01682	0.00107
3309.08845	0.00097
3307.16007	0.00058
3305.23170	0.00029
3303.30333	0.00049
3301.37495	0.00074
3299.44658	0.00062
3297.51821	0.00088
3295.58983	0.00131
3293.66146	0.00126
3291.73309	0.00104
3289.80472	0.00095
3287.87634	0.00085
3285.94797	0.00068
3284.01960	0.00050
3282.09122	0.00038
3280.16285	0.00042
3278.23448	0.00087
3276.30610	0.00114
3274.37773	0.00065
3272.44936	0.00069
3270.52098	0.00047
3268.59261	0.00051
3266.66424	0.00055
3264.73586	0.00060
3262.80749	0.00050
3260.87912	0.00056
3258.95074	0.00094
3257.02237	0.00064
3255.09400	0.00075
3253.16562	0.00134
3251.23725	0.00112
3249.30888	0.00097
3247.38050	0.00091
3245.45213	0.00061
3243.52376	0.00055
3241.59538	0.00050
3239.66701	0.00067
3237.73864	0.00085
3235.81026	0.00041
3233.88189	0.00097
3231.95352	0.00114
3230.02515	0.00124
3228.09677	0.00093
3226.16840	0.00098
3224.24003	0.00132
3222.31165	0.00111
3220.38328	0.00061
3218.45491	0.00062
3216.52653	0.00092
3214.59816	0.00096
3212.66979	0.00074
3210.74141	0.00085
3208.81304	0.00088
3206.88467	0.00081
3204.95629	0.00088
3203.02792	0.00071
3201.09955	0.00053
3199.17117	0.00055
3197.24280	0.00050
3195.31443	0.00061
3193.38605	0.00118
3191.45768	0.00114
3189.52931	0.00098
3187.60093	0.00114
3185.67256	0.00107
3183.74419	0.00093
3181.81581	0.00071
3179.88744	0.00056
3177.95907	0.00061
3176.03070	0.00045
3174.10232	0.00065
3172.17395	0.00087
3170.24558	0.00067
3168.31720	0.00071
3166.38883	0.00058
3164.46046	0.00045
3162.53208	0.00098
3160.60371	0.00126
3158.67534	0.00121
3156.74696	0.00104
3154.81859	0.00062
3152.89022	0.00040
3150.96184	0.00112
3149.03347	0.00108
3147.10510	0.00078
3145.17672	0.00059
3143.24835	0.00070
3141.31998	0.00082
3139.39160	0.00059
3137.46323	0.00090
3135.53486	0.00121
3133.60648	0.00090
3131.67811	0.00087
3129.74974	0.00106
3127.82136	0.00082
3125.89299	0.00057
3123.96462	0.00034
3122.03624	0.00045
3120.10787	0.00033
3118.17950	0.00030
3116.25113	0.00026
3114.32275	0.00022
3112.39438	0.00048
3110.46601	0.00079
3108.53763	0.00078
3106.60926	0.00077
3104.68089	0.00068
3102.75251	0.00056
3100.82414	0.00057
3098.89577	0.00061
3096.96739	0.00047
3095.03902	0.00035
3093.11065	0.00054
3091.18227	0.00081
3089.25390	0.00082
3087.32553	0.00051
3085.39715	0.00043
3083.46878	0.00030
3081.54041	0.00055
3079.61203	0.00070
3077.68366	0.00111
3075.75529	0.00110
3073.82691	0.00048
3071.89854	0.00057
3069.97017	0.00092
3068.04179	0.00077
3066.11342	0.00076
3064.18505	0.00079
3062.25668	0.00082
3060.32830	0.00089
3058.39993	0.00088
3056.47156	0.00083
3054.54318	0.00103
3052.61481	0.00130
3050.68644	0.00140
3048.75806	0.00117
3046.82969	0.00064
3044.90132	0.00027
3042.97294	0.00057
3041.04457	0.00128
3039.11620	0.00135
3037.18782	0.00095
3035.25945	0.00093
3033.33108	0.00105
3031.40270	0.00077
3029.47433	0.00084
3027.54596	0.00101
3025.61758	0.00091
3023.68921	0.00093
3021.76084	0.00100
3019.83246	0.00095
3017.90409	0.00090
3015.97572	0.00064
3014.04734	0.00050
3012.11897	0.00106
3010.19060	0.00118
3008.26222	0.00115
3006.33385	0.00098
3004.40548	0.00065
3002.47711	0.00064
3000.54873	0.00056
2998.62036	0.00065
2996.69199	0.00068
2994.76361	0.00062
2992.83524	0.00083
2990.90687	0.00081
2988.97849	0.00070
2987.05012	0.00059
2985.12175	0.00053
2983.19337	0.00051
2981.26500	0.00065
2979.33663	0.00123
2977.40825	0.00127
2975.47988	0.00094
2973.55151	0.00066
2971.62313	0.00055
2969.69476	0.00045
2967.76639	0.00029
2965.83801	0.00047
2963.90964	0.00093
2961.98127	0.00075
2960.05289	0.00055
2958.12452	0.00054
2956.19615	0.00089
2954.26777	0.00109
2952.33940	0.00131
2950.41103	0.00108
2948.48266	0.00061
2946.55428	0.00048
2944.62591	0.00111
2942.69754	0.00102
2940.76916	0.00118
2938.84079	0.00112
2936.91242	0.00075
2934.98404	0.00070
2933.05567	0.00102
2931.12730	0.00118
2929.19892	0.00118
2927.27055	0.00123
2925.34218	0.00098
2923.41380	0.00082
2921.48543	0.00091
2919.55706	0.00066
2917.62868	0.00068
2915.70031	0.00059
2913.77194	0.00081
2911.84356	0.00136
2909.91519	0.00144
2907.98682	0.00100
2906.05844	0.00067
2904.13007	0.00059
2902.20170	0.00046
2900.27332	0.00055
2898.34495	0.00072
2896.41658	0.00056
2894.48820	0.00042
2892.55983	0.00125
2890.63146	0.00124
2888.70309	0.00072
2886.77471	0.00047
2884.84634	0.00084
2882.91797	0.00106
2880.98959	0.00112
2879.06122	0.00101
2877.13285	0.00071
2875.20447	0.00075
2873.27610	0.00116
2871.34773	0.00095
2869.41935	0.00057
2867.49098	0.00042
2865.56261	0.00042
2863.63423	0.00064
2861.70586	0.00092
2859.77749	0.00084
2857.84911	0.00102
2855.92074	0.00075
2853.99237	0.00051
2852.06399	0.00065
2850.13562	0.00094
2848.20725	0.00085
2846.27887	0.00055
2844.35050	0.00054
2842.42213	0.00056
2840.49375	0.00050
2838.56538	0.00051
2836.63701	0.00076
2834.70863	0.00090
2832.78026	0.00071
2830.85189	0.00064
2828.92352	0.00076
2826.99514	0.00089
2825.06677	0.00106
2823.13840	0.00086
2821.21002	0.00062
2819.28165	0.00092
2817.35328	0.00141
2815.42490	0.00165
2813.49653	0.00182
2811.56816	0.00181
2809.63978	0.00150
2807.71141	0.00142
2805.78304	0.00157
2803.85466	0.00165
2801.92629	0.00158
2799.99792	0.00150
2798.06954	0.00160
2796.14117	0.00168
2794.21280	0.00156
2792.28442	0.00129
2790.35605	0.00141
2788.42768	0.00210
2786.49930	0.00266
2784.57093	0.00257
2782.64256	0.00229
2780.71418	0.00220
2778.78581	0.00209
2776.85744	0.00197
2774.92907	0.00213
2773.00069	0.00233
2771.07232	0.00240
2769.14395	0.00253
2767.21557	0.00280
2765.28720	0.00295
2763.35883	0.00288
2761.43045	0.00285
2759.50208	0.00296
2757.57371	0.00301
2755.64533	0.00313
2753.71696	0.00343
2751.78859	0.00352
2749.86021	0.00339
2747.93184	0.00344
2746.00347	0.00380
2744.07509	0.00432
2742.14672	0.00463
2740.21835	0.00456
2738.28997	0.00444
2736.36160	0.00444
2734.43323	0.00447
2732.50485	0.00459
2730.57648	0.00471
2728.64811	0.00473
2726.71973	0.00477
2724.79136	0.00486
2722.86299	0.00482
2720.93461	0.00487
2719.00624	0.00523
2717.07787	0.00573
2715.14950	0.00619
2713.22112	0.00637
2711.29275	0.00625
2709.36438	0.00602
2707.43600	0.00586
2705.50763	0.00614
2703.57926	0.00666
2701.65088	0.00670
2699.72251	0.00645
2697.79414	0.00642
2695.86576	0.00658
2693.93739	0.00675
2692.00902	0.00690
2690.08064	0.00719
2688.15227	0.00750
2686.22390	0.00756
2684.29552	0.00746
2682.36715	0.00738
2680.43878	0.00748
2678.51040	0.00776
2676.58203	0.00799
2674.65366	0.00803
2672.72528	0.00797
2670.79691	0.00810
2668.86854	0.00847
2666.94016	0.00869
2665.01179	0.00870
2663.08342	0.00872
2661.15505	0.00886
2659.22667	0.00907
2657.29830	0.00917
2655.36993	0.00923
2653.44155	0.00926
2651.51318	0.00916
2649.58481	0.00915
2647.65643	0.00940
2645.72806	0.00949
2643.79969	0.00933
2641.87131	0.00938
2639.94294	0.00966
2638.01457	0.00975
2636.08619	0.00957
2634.15782	0.00956
2632.22945	0.00983
2630.30107	0.01003
2628.37270	0.01008
2626.44433	0.01010
2624.51595	0.01020
2622.58758	0.01036
2620.65921	0.01060
2618.73083	0.01088
2616.80246	0.01098
2614.87409	0.01097
2612.94571	0.01120
2611.01734	0.01166
2609.08897	0.01200
2607.16059	0.01205
2605.23222	0.01200
2603.30385	0.01202
2601.37548	0.01206
2599.44710	0.01231
2597.51873	0.01279
2595.59036	0.01305
2593.66198	0.01303
2591.73361	0.01317
2589.80524	0.01350
2587.87686	0.01370
2585.94849	0.01373
2584.02012	0.01375
2582.09174	0.01382
2580.16337	0.01393
2578.23500	0.01395
2576.30662	0.01390
2574.37825	0.01402
2572.44988	0.01437
2570.52150	0.01483
2568.59313	0.01524
2566.66476	0.01562
2564.73638	0.01592
2562.80801	0.01607
2560.87964	0.01628
2558.95126	0.01672
2557.02289	0.01721
2555.09452	0.01752
2553.16614	0.01758
2551.23777	0.01764
2549.30940	0.01800
2547.38103	0.01840
2545.45265	0.01846
2543.52428	0.01843
2541.59591	0.01859
2539.66753	0.01886
2537.73916	0.01914
2535.81079	0.01943
2533.88241	0.01962
2531.95404	0.01968
2530.02567	0.01978
2528.09729	0.01993
2526.16892	0.01989
2524.24055	0.01978
2522.31217	0.01993
2520.38380	0.02023
2518.45543	0.02042
2516.52705	0.02053
2514.59868	0.02062
2512.67031	0.02076
2510.74193	0.02108
2508.81356	0.02167
2506.88519	0.02223
2504.95681	0.02243
2503.02844	0.02245
2501.10007	0.02255
2499.17169	0.02268
2497.24332	0.02280
2495.31495	0.02295
2493.38657	0.02315
2491.45820	0.02343
2489.52983	0.02376
2487.60146	0.02411
2485.67308	0.02446
2483.74471	0.02475
2481.81634	0.02511
2479.88796	0.02558
2477.95959	0.02594
2476.03122	0.02609
2474.10284	0.02632
2472.17447	0.02684
2470.24610	0.02749
2468.31772	0.02792
2466.38935	0.02819
2464.46098	0.02846
2462.53260	0.02883
2460.60423	0.02924
2458.67586	0.02947
2456.74748	0.02961
2454.81911	0.02998
2452.89074	0.03045
2450.96236	0.03087
2449.03399	0.03121
2447.10562	0.03148
2445.17724	0.03187
2443.24887	0.03235
2441.32050	0.03257
2439.39212	0.03253
2437.46375	0.03267
2435.53538	0.03297
2433.60700	0.03324
2431.67863	0.03360
2429.75026	0.03401
2427.82189	0.03427
2425.89351	0.03443
2423.96514	0.03463
2422.03677	0.03485
2420.10839	0.03498
2418.18002	0.03518
2416.25165	0.03558
2414.32327	0.03609
2412.39490	0.03653
2410.46653	0.03680
2408.53815	0.03700
2406.60978	0.03737
2404.68141	0.03779
2402.75303	0.03804
2400.82466	0.03835
2398.89629	0.03894
2396.96791	0.03957
2395.03954	0.03996
2393.11117	0.04011
2391.18279	0.04029
2389.25442	0.04066
2387.32605	0.04101
2385.39767	0.04120
2383.46930	0.04145
2381.54093	0.04193
2379.61255	0.04239
2377.68418	0.04262
2375.75581	0.04283
2373.82744	0.04347
2371.89906	0.04443
2369.97069	0.04483
2368.04232	0.04462
2366.11394	0.04487
2364.18557	0.04567
2362.25720	0.04691
2360.32882	0.04825
2358.40045	0.04851
2356.47208	0.04841
2354.54370	0.04891
2352.61533	0.04907
2350.68696	0.04870
2348.75858	0.04843
2346.83021	0.04851
2344.90184	0.04916
2342.97346	0.05020
2341.04509	0.05073
2339.11672	0.05062
2337.18834	0.05023
2335.25997	0.04987
2333.33160	0.04955
2331.40322	0.04920
2329.47485	0.04916
2327.54648	0.04968
2325.61810	0.05041
2323.68973	0.05099
2321.76136	0.05158
2319.83298	0.05212
2317.90461	0.05210
2315.97624	0.05168
2314.04787	0.05161
2312.11949	0.05217
2310.19112	0.05274
2308.26275	0.05299
2306.33437	0.05335
2304.40600	0.05399
2302.47763	0.05464
2300.54925	0.05507
2298.62088	0.05535
2296.69251	0.05559
2294.76413	0.05577
2292.83576	0.05592
2290.90739	0.05606
2288.97901	0.05622
2287.05064	0.05645
2285.12227	0.05676
2283.19389	0.05693
2281.26552	0.05707
2279.33715	0.05745
2277.40877	0.05778
2275.48040	0.05768
2273.55203	0.05754
2271.62365	0.05776
2269.69528	0.05809
2267.76691	0.05825
2265.83853	0.05828
2263.91016	0.05830
2261.98179	0.05837
2260.05342	0.05857
2258.12504	0.05878
2256.19667	0.05880
2254.26830	0.05880
2252.33992	0.05915
2250.41155	0.05974
2248.48318	0.06006
2246.55480	0.06007
2244.62643	0.06012
2242.69806	0.06039
2240.76968	0.06069
2238.84131	0.06083
2236.91294	0.06093
2234.98456	0.06111
2233.05619	0.06124
2231.12782	0.06128
2229.19944	0.06132
2227.27107	0.06143
2225.34270	0.06153
2223.41432	0.06156
2221.48595	0.06155
2219.55758	0.06162
2217.62920	0.06180
2215.70083	0.06195
2213.77246	0.06197
2211.84408	0.06187
2209.91571	0.06179
2207.98734	0.06170
2206.05896	0.06147
2204.13059	0.06126
2202.20222	0.06127
2200.27385	0.06140
2198.34547	0.06147
2196.41710	0.06140
2194.48873	0.06121
2192.56035	0.06102
2190.63198	0.06101
2188.70361	0.06110
2186.77523	0.06098
2184.84686	0.06070
2182.91849	0.06061
2180.99011	0.06077
2179.06174	0.06090
2177.13337	0.06094
2175.20499	0.06093
2173.27662	0.06080
2171.34825	0.06060
2169.41987	0.06053
2167.49150	0.06061
2165.56313	0.06065
2163.63475	0.06071
2161.70638	0.06078
2159.77801	0.06077
2157.84963	0.06084
2155.92126	0.06100
2153.99289	0.06097
2152.06451	0.06075
2150.13614	0.06070
2148.20777	0.06096
2146.27940	0.06116
2144.35102	0.06119
2142.42265	0.06130
2140.49428	0.06146
2138.56590	0.06148
2136.63753	0.06153
2134.70916	0.06179
2132.78078	0.06208
2130.85241	0.06217
2128.92404	0.06219
2126.99566	0.06234
2125.06729	0.06264
2123.13892	0.06293
2121.21054	0.06309
2119.28217	0.06316
2117.35380	0.06339
2115.42542	0.06396
2113.49705	0.06474
2111.56868	0.06529
2109.64030	0.06550
2107.71193	0.06566
2105.78356	0.06579
2103.85518	0.06574
2101.92681	0.06576
2099.99844	0.06603
2098.07006	0.06632
2096.14169	0.06658
2094.21332	0.06690
2092.28494	0.06710
2090.35657	0.06707
2088.42820	0.06699
2086.49983	0.06701
2084.57145	0.06705
2082.64308	0.06708
2080.71471	0.06718
2078.78633	0.06739
2076.85796	0.06765
2074.92959	0.06780
2073.00121	0.06776
2071.07284	0.06768
2069.14447	0.06771
2067.21609	0.06781
2065.28772	0.06799
2063.35935	0.06838
2061.43097	0.06883
2059.50260	0.06926
2057.57423	0.06962
2055.64585	0.06970
2053.71748	0.06973
2051.78911	0.07012
2049.86073	0.07084
2047.93236	0.07157
2046.00399	0.07210
2044.07561	0.07244
2042.14724	0.07276
2040.21887	0.07318
2038.29049	0.07363
2036.36212	0.07410
2034.43375	0.07453
2032.50538	0.07478
2030.57700	0.07484
2028.64863	0.07497
2026.72026	0.07536
2024.79188	0.07579
2022.86351	0.07607
2020.93514	0.07626
2019.00676	0.07638
2017.07839	0.07637
2015.15002	0.07655
2013.22164	0.07707
2011.29327	0.07762
2009.36490	0.07803
2007.43652	0.07843
2005.50815	0.07878
2003.57978	0.07902
2001.65140	0.07928
1999.72303	0.07961
1997.79466	0.07988
1995.86628	0.08008
1993.93791	0.08041
1992.00954	0.08093
1990.08116	0.08136
1988.15279	0.08142
1986.22442	0.08131
1984.29604	0.08138
1982.36767	0.08154
1980.43930	0.08151
1978.51092	0.08126
1976.58255	0.08133
1974.65418	0.08189
1972.72581	0.08228
1970.79743	0.08225
1968.86906	0.08233
1966.94069	0.08263
1965.01231	0.08278
1963.08394	0.08288
1961.15557	0.08315
1959.22719	0.08363
1957.29882	0.08429
1955.37045	0.08489
1953.44207	0.08519
1951.51370	0.08536
1949.58533	0.08580
1947.65695	0.08648
1945.72858	0.08702
1943.80021	0.08741
1941.87183	0.08778
1939.94346	0.08799
1938.01509	0.08814
1936.08671	0.08854
1934.15834	0.08909
1932.22997	0.08946
1930.30159	0.08962
1928.37322	0.08986
1926.44485	0.09019
1924.51647	0.09055
1922.58810	0.09098
1920.65973	0.09137
1918.73135	0.09167
1916.80298	0.09187
1914.87461	0.09197
1912.94624	0.09210
1911.01786	0.09231
1909.08949	0.09256
1907.16112	0.09289
1905.23274	0.09321
1903.30437	0.09342
1901.37600	0.09349
1899.44762	0.09340
1897.51925	0.09339
1895.59088	0.09360
1893.66250	0.09387
1891.73413	0.09409
1889.80576	0.09421
1887.87738	0.09420
1885.94901	0.09421
1884.02064	0.09426
1882.09226	0.09429
1880.16389	0.09449
1878.23552	0.09482
1876.30714	0.09504
1874.37877	0.09524
1872.45040	0.09554
1870.52202	0.09571
1868.59365	0.09565
1866.66528	0.09541
1864.73690	0.09521
1862.80853	0.09511
1860.88016	0.09494
1858.95179	0.09480
1857.02341	0.09485
1855.09504	0.09477
1853.16667	0.09443
1851.23829	0.09415
1849.30992	0.09414
1847.38155	0.09415
1845.45317	0.09403
1843.52480	0.09392
1841.59643	0.09378
1839.66805	0.09358
1837.73968	0.09334
1835.81131	0.09307
1833.88293	0.09287
1831.95456	0.09281
1830.02619	0.09266
1828.09781	0.09219
1826.16944	0.09161
1824.24107	0.09100
1822.31269	0.09032
1820.38432	0.08970
1818.45595	0.08909
1816.52757	0.08841
1814.59920	0.08766
1812.67083	0.08689
1810.74245	0.08609
1808.81408	0.08515
1806.88571	0.08409
1804.95733	0.08305
1803.02896	0.08204
1801.10059	0.08107
1799.17222	0.08001
1797.24384	0.07865
1795.31547	0.07716
1793.38710	0.07538
1791.45872	0.07318
1789.53035	0.07128
1787.60198	0.06981
1785.67360	0.06816
1783.74523	0.06628
1781.81686	0.06445
1779.88848	0.06259
1777.96011	0.06077
1776.03174	0.05927
1774.10336	0.05793
1772.17499	0.05617
1770.24662	0.05411
1768.31824	0.05234
1766.38987	0.05090
1764.46150	0.04959
1762.53312	0.04778
1760.60475	0.04547
1758.67638	0.04332
1756.74800	0.04083
1754.81963	0.03801
1752.89126	0.03546
1750.96288	0.03298
1749.03451	0.03022
1747.10614	0.02717
1745.17777	0.02425
1743.24939	0.02183
1741.32102	0.01936
1739.39265	0.01651
1737.46427	0.01435
1735.53590	0.01247
1733.60753	0.00971
1731.67915	0.00766
1729.75078	0.00671
1727.82241	0.00565
1725.89403	0.00445
1723.96566	0.00341
1722.03729	0.00260
1720.10891	0.00186
1718.18054	0.00096
1716.25217	0.00052
1714.32379	0.00085
1712.39542	0.00096
1710.46705	0.00097
1708.53867	0.00074
1706.61030	0.00041
1704.68193	0.00023
1702.75355	0.00046
1700.82518	0.00073
1698.89681	0.00070
1696.96843	0.00033
1695.04006	0.00069
1693.11169	0.00069
1691.18331	0.00057
1689.25494	0.00055
1687.32657	0.00054
1685.39820	0.00050
1683.46982	0.00035
1681.54145	0.00094
1679.61308	0.00095
1677.68470	0.00084
1675.75633	0.00083
1673.82796	0.00081
1671.89958	0.00062
1669.97121	0.00066
1668.04284	0.00084
1666.11446	0.00066
1664.18609	0.00042
1662.25772	0.00037
1660.32934	0.00035
1658.40097	0.00071
1656.47260	0.00066
1654.54422	0.00054
1652.61585	0.00094
1650.68748	0.00108
1648.75910	0.00085
1646.83073	0.00048
1644.90236	0.00075
1642.97398	0.00060
1641.04561	0.00059
1639.11724	0.00075
1637.18886	0.00071
1635.26049	0.00052
1633.33212	0.00055
1631.40375	0.00064
1629.47537	0.00043
1627.54700	0.00029
1625.61863	0.00051
1623.69025	0.00065
1621.76188	0.00063
1619.83351	0.00058
1617.90513	0.00079
1615.97676	0.00081
1614.04839	0.00038
1612.12001	0.00029
1610.19164	0.00045
1608.26327	0.00044
1606.33489	0.00062
1604.40652	0.00083
1602.47815	0.00075
1600.54977	0.00053
1598.62140	0.00058
1596.69303	0.00058
1594.76465	0.00035
1592.83628	0.00034
1590.90791	0.00035
1588.97953	0.00013
1587.05116	0.00023
1585.12279	0.00041
1583.19441	0.00050
1581.26604	0.00060
1579.33767	0.00065
1577.40929	0.00057
1575.48092	0.00045
1573.55255	0.00042
1571.62418	0.00041
1569.69580	0.00038
1567.76743	0.00026
1565.83906	0.00044
1563.91068	0.00047
1561.98231	0.00032
1560.05394	0.00026
1558.12556	0.00054
1556.19719	0.00068
1554.26882	0.00080
1552.34044	0.00065
1550.41207	0.00041
1548.48370	0.00044
1546.55532	0.00035
1544.62695	0.00034
1542.69858	0.00060
1540.77020	0.00094
1538.84183	0.00068
1536.91346	0.00033
1534.98508	0.00017
1533.05671	0.00055
1531.12834	0.00095
1529.19996	0.00074
1527.27159	0.00073
1525.34322	0.00109
1523.41484	0.00133
1521.48647	0.00111
1519.55810	0.00063
1517.62972	0.00061
1515.70135	0.00053
1513.77298	0.00078
1511.84461	0.00124
1509.91623	0.00150
1507.98786	0.00121
1506.05949	0.00069
1504.13111	0.00045
1502.20274	0.00044
1500.27437	0.00035
1498.34599	0.00018
1496.41762	0.00027
1494.48925	0.00026
1492.56087	0.00054
1490.63250	0.00108
1488.70413	0.00106
1486.77575	0.00056
1484.84738	0.00033
1482.91901	0.00027
1480.99063	0.00020
1479.06226	0.00029
1477.13389	0.00031
1475.20551	0.00032
1473.27714	0.00064
1471.34877	0.00100
1469.42039	0.00093
1467.49202	0.00038
1465.56365	0.00068
1463.63527	0.00101
1461.70690	0.00101
1459.77853	0.00098
1457.85016	0.00043
1455.92178	0.00118
1453.99341	0.00095
1452.06504	0.00064
1450.13666	0.00077
1448.20829	0.00078
1446.27992	0.00049
1444.35154	0.00041
1442.42317	0.00054
1440.49480	0.00057
1438.56642	0.00054
1436.63805	0.00043
1434.70968	0.00047
1432.78130	0.00056
1430.85293	0.00053
1428.92456	0.00053
1426.99618	0.00056
1425.06781	0.00060
1423.13944	0.00047
1421.21106	0.00051
1419.28269	0.00055
1417.35432	0.00049
1415.42594	0.00066
1413.49757	0.00058
1411.56920	0.00045
1409.64082	0.00052
1407.71245	0.00079
1405.78408	0.00097
1403.85570	0.00066
1401.92733	0.00026
1399.99896	0.00042
1398.07059	0.00061
1396.14221	0.00056
1394.21384	0.00031
1392.28547	0.00036
1390.35709	0.00014
1388.42872	0.00059
1386.50035	0.00085
1384.57197	0.00080
1382.64360	0.00058
1380.71523	0.00046
1378.78685	0.00035
1376.85848	0.00072
1374.93011	0.00073
1373.00173	0.00059
1371.07336	0.00079
1369.14499	0.00087
1367.21661	0.00084
1365.28824	0.00078
1363.35987	0.00061
1361.43149	0.00056
1359.50312	0.00040
1357.57475	0.00065
1355.64637	0.00102
1353.71800	0.00096
1351.78963	0.00074
1349.86125	0.00098
1347.93288	0.00094
1346.00451	0.00072
1344.07614	0.00077
1342.14776	0.00098
1340.21939	0.00096
1338.29102	0.00056
1336.36264	0.00038
1334.43427	0.00058
1332.50590	0.00082
1330.57752	0.00084
1328.64915	0.00084
1326.72078	0.00058
1324.79240	0.00027
1322.86403	0.00044
1320.93566	0.00045
1319.00728	0.00054
1317.07891	0.00045
1315.15054	0.00038
1313.22216	0.00051
1311.29379	0.00048
1309.36542	0.00039
1307.43704	0.00050
1305.50867	0.00065
1303.58030	0.00052
1301.65192	0.00059
1299.72355	0.00073
1297.79518	0.00080
1295.86680	0.00060
1293.93843	0.00055
1292.01006	0.00085
1290.08168	0.00096
1288.15331	0.00097
1286.22494	0.00061
1284.29657	0.00058
1282.36819	0.00105
1280.43982	0.00138
1278.51145	0.00114
1276.58307	0.00075
1274.65470	0.00075
1272.72633	0.00102
1270.79795	0.00097
1268.86958	0.00109
1266.94121	0.00122
1265.01283	0.00123
1263.08446	0.00134
1261.15609	0.00112
1259.22771	0.00082
1257.29934	0.00085
1255.37097	0.00107
1253.44259	0.00074
1251.51422	0.00061
1249.58585	0.00047
1247.65747	0.00096
1245.72910	0.00077
1243.80073	0.00100
1241.87235	0.00130
1239.94398	0.00131
1238.01561	0.00108
1236.08723	0.00090
1234.15886	0.00041
1232.23049	0.00074
1230.30212	0.00106
1228.37374	0.00071
1226.44537	0.00101
1224.51700	0.00083
1222.58862	0.00076
1220.66025	0.00012
1218.73188	0.00109
1216.80350	0.00135
1214.87513	0.00131
1212.94676	0.00108
1211.01838	0.00102
1209.09001	0.00097
1207.16164	0.00108
1205.23326	0.00117
1203.30489	0.00135
1201.37652	0.00087
1199.44814	0.00104
1197.51977	0.00069
1195.59140	0.00129
1193.66302	0.00202
1191.73465	0.00209
1189.80628	0.00207
1187.87790	0.00154
1185.94953	0.00117
1184.02116	0.00107
1182.09278	0.00092
1180.16441	0.00109
1178.23604	0.00124
1176.30766	0.00145
1174.37929	0.00146
1172.45092	0.00138
1170.52255	0.00150
1168.59417	0.00178
1166.66580	0.00158
1164.73743	0.00098
1162.80905	0.00142
1160.88068	0.00151
1158.95231	0.00105
1157.02393	0.00136
1155.09556	0.00134
1153.16719	0.00138
1151.23881	0.00219
1149.31044	0.00280
1147.38207	0.00239
1145.45369	0.00170
1143.52532	0.00111
1141.59695	0.00070
1139.66857	0.00061
1137.74020	0.00133
1135.81183	0.00157
1133.88345	0.00171
1131.95508	0.00178
1130.02671	0.00158
1128.09833	0.00113
1126.16996	0.00073
1124.24159	0.00057
1122.31321	0.00084
1120.38484	0.00146
1118.45647	0.00182
1116.52809	0.00208
1114.59972	0.00190
1112.67135	0.00105
1110.74298	0.00084
1108.81460	0.00092
1106.88623	0.00090
1104.95786	0.00164
1103.02948	0.00181
1101.10111	0.00165
1099.17274	0.00149
1097.24436	0.00151
1095.31599	0.00139
1093.38762	0.00125
1091.45924	0.00121
1089.53087	0.00110
1087.60250	0.00092
1085.67412	0.00195
1083.74575	0.00192
1081.81738	0.00118
1079.88900	0.00127
1077.96063	0.00164
1076.03226	0.00112
1074.10388	0.00112
1072.17551	0.00115
1070.24714	0.00115
1068.31876	0.00150
1066.39039	0.00181
1064.46202	0.00166
1062.53364	0.00124
1060.60527	0.00117
1058.67690	0.00112
1056.74853	0.00103
1054.82015	0.00066
1052.89178	0.00160
1050.96341	0.00257
1049.03503	0.00204
1047.10666	0.00120
1045.17829	0.00107
1043.24991	0.00150
1041.32154	0.00147
1039.39317	0.00146
1037.46479	0.00074
1035.53642	0.00053
1033.60805	0.00055
1031.67967	0.00071
1029.75130	0.00128
1027.82293	0.00176
1025.89455	0.00148
1023.96618	0.00109
1022.03781	0.00167
1020.10943	0.00228
1018.18106	0.00182
1016.25269	0.00121
1014.32431	0.00145
1012.39594	0.00127
1010.46757	0.00117
1008.53919	0.00096
1006.61082	0.00048
1004.68245	0.00055
1002.75407	0.00082
1000.82570	0.00086
998.89733	0.00050
996.96896	0.00085
995.04058	0.00115
993.11221	0.00119
991.18384	0.00105
989.25546	0.00114
987.32709	0.00149
985.39872	0.00137
983.47034	0.00080
981.54197	0.00041
979.61360	0.00060
977.68522	0.00097
975.75685	0.00125
973.82848	0.00148
971.90010	0.00134
969.97173	0.00120
968.04336	0.00120
966.11498	0.00134
964.18661	0.00150
962.25824	0.00122
960.32986	0.00068
958.40149	0.00064
956.47312	0.00075
954.54474	0.00043
952.61637	0.00058
950.68800	0.00077
948.75962	0.00081
946.83125	0.00078
944.90288	0.00142
942.97451	0.00175
941.04613	0.00217
939.11776	0.00340
937.18939	0.00473
935.26101	0.00543
933.33264	0.00559
931.40427	0.00591
929.47589	0.00631
927.54752	0.00585
925.61915	0.00505
923.69077	0.00482
921.76240	0.00459
919.83403	0.00503
917.90565	0.00615
915.97728	0.00708
914.04891	0.00764
912.12053	0.00787
910.19216	0.00766
908.26379	0.00689
906.33541	0.00583
904.40704	0.00494
902.47867	0.00391
900.55029	0.00288
898.62192	0.00241
896.69355	0.00242
894.76517	0.00242
892.83680	0.00311
890.90843	0.00409
888.98005	0.00535
887.05168	0.00590
885.12331	0.00562
883.19494	0.00594
881.26656	0.00729
879.33819	0.00855
877.40982	0.00851
875.48144	0.00747
873.55307	0.00678
871.62470	0.00668
869.69632	0.00662
867.76795	0.00683
865.83958	0.00720
863.91120	0.00687
861.98283	0.00634
860.05446	0.00676
858.12608	0.00786
856.19771	0.00828
854.26934	0.00774
852.34096	0.00684
850.41259	0.00630
848.48422	0.00638
846.55584	0.00639
844.62747	0.00581
842.69910	0.00534
840.77072	0.00521
838.84235	0.00562
836.91398	0.00636
834.98560	0.00598
833.05723	0.00444
831.12886	0.00343
829.20049	0.00359
827.27211	0.00418
825.34374	0.00478
823.41537	0.00459
821.48699	0.00332
819.55862	0.00194
817.63025	0.00151
815.70187	0.00183
813.77350	0.00218
811.84513	0.00291
809.91675	0.00405
807.98838	0.00424
806.06001	0.00344
804.13163	0.00303
802.20326	0.00292
800.27489	0.00315
798.34651	0.00374
796.41814	0.00340
794.48977	0.00247
792.56139	0.00188
790.63302	0.00223
788.70465	0.00291
786.77627	0.00298
784.84790	0.00228
782.91953	0.00113
780.99115	0.00125
779.06278	0.00230
777.13441	0.00218
775.20603	0.00166
773.27766	0.00118
771.34929	0.00134
769.42092	0.00161
767.49254	0.00122
765.56417	0.00066
763.63580	0.00141
761.70742	0.00142
759.77905	0.00132
757.85068	0.00068
755.92230	0.00140
753.99393	0.00200
752.06556	0.00255
750.13718	0.00223
748.20881	0.00160
746.28044	0.00140
744.35206	0.00175
742.42369	0.00228
740.49532	0.00141
738.56694	0.00108
736.63857	0.00188
734.71020	0.00207
732.78182	0.00136
730.85345	0.00112
728.92508	0.00105
726.99670	0.00156
725.06833	0.00139
723.13996	0.00208
721.21158	0.00184
719.28321	0.00200
717.35484	0.00272
715.42647	0.00252
713.49809	0.00179
711.56972	0.00142
709.64135	0.00128
707.71297	0.00125
705.78460	0.00164
703.85623	0.00194
701.92785	0.00242
699.99948	0.00234
698.07111	0.00282
696.14273	0.00284
694.21436	0.00202
692.28599	0.00191
690.35761	0.00281
688.42924	0.00374
686.50087	0.00430
684.57249	0.00473
682.64412	0.00386
680.71575	0.00360
678.78737	0.00333
676.85900	0.00333
674.93063	0.00368
673.00225	0.00324
671.07388	0.00330
669.14551	0.00537
667.21713	0.00723
665.28876	0.00577
663.36039	0.00426
661.43201	0.00436
659.50364	0.00474
657.57527	0.00356
655.64690	0.00278
653.71852	0.00356
651.79015	0.00594
649.86178	0.00544
647.93340	0.00306
646.00503	0.00388
644.07666	0.00639
642.14828	0.00742
640.21991	0.00774
638.29154	0.00579
636.36316	0.00339
634.43479	0.00505
632.50642	0.00471
630.57804	0.00346
628.64967	0.00391
626.72130	0.00363
624.79292	0.00417
622.86455	0.00515
620.93618	0.00248
619.00780	0.00337
617.07943	0.00596
615.15106	0.00616
613.22268	0.00338
611.29431	0.00507
609.36594	0.00712
607.43756	0.00696
605.50919	0.00673
603.58082	0.00594
601.65244	0.01030
599.72407	0.00953
