3997.51769	0.20556
3995.58931	0.20564
3993.66094	0.20589
3991.73257	0.20608
3989.80419	0.20624
3987.87582	0.20658
3985.94745	0.20696
3984.01907	0.20729
3982.09070	0.20760
3980.16233	0.20784
3978.23396	0.20810
3976.30558	0.20829
3974.37721	0.20842
3972.44884	0.20876
3970.52046	0.20920
3968.59209	0.20980
3966.66372	0.21071
3964.73534	0.21147
3962.80697	0.21179
3960.87860	0.21227
3958.95022	0.21316
3957.02185	0.21402
3955.09348	0.21472
3953.16510	0.21502
3951.23673	0.21461
3949.30836	0.21416
3947.37998	0.21485
3945.45161	0.21579
3943.52324	0.21587
3941.59486	0.21665
3939.66649	0.21858
3937.73812	0.22004
3935.80974	0.22016
3933.88137	0.21888
3931.95300	0.21761
3930.02462	0.21841
3928.09625	0.22024
3926.16788	0.22088
3924.23950	0.22106
3922.31113	0.22203
3920.38276	0.22245
3918.45439	0.22205
3916.52601	0.22316
3914.59764	0.22639
3912.66927	0.22931
3910.74089	0.23050
3908.81252	0.22986
3906.88415	0.22675
3904.95577	0.22197
3903.02740	0.21903
3901.09903	0.21995
3899.17065	0.22412
3897.24228	0.22971
3895.31391	0.23277
3893.38553	0.23170
3891.45716	0.23045
3889.52879	0.23219
3887.60041	0.23300
3885.67204	0.23178
3883.74367	0.23161
3881.81529	0.23185
3879.88692	0.23352
3877.95855	0.23732
3876.03017	0.23806
3874.10180	0.23544
3872.17343	0.23300
3870.24505	0.23223
3868.31668	0.23441
3866.38831	0.23634
3864.45994	0.23595
3862.53156	0.23746
3860.60319	0.24124
3858.67482	0.24239
3856.74644	0.23893
3854.81807	0.23218
3852.88970	0.22923
3850.96132	0.23646
3849.03295	0.24452
3847.10458	0.24778
3845.17620	0.24616
3843.24783	0.24205
3841.31946	0.23786
3839.39108	0.23499
3837.46271	0.23587
3835.53434	0.23983
3833.60596	0.24315
3831.67759	0.24566
3829.74922	0.24773
3827.82084	0.24835
3825.89247	0.24796
3823.96410	0.24587
3822.03572	0.24094
3820.10735	0.23896
3818.17898	0.24188
3816.25060	0.24486
3814.32223	0.24950
3812.39386	0.25431
3810.46548	0.25502
3808.53711	0.25152
3806.60874	0.24800
3804.68037	0.24637
3802.75199	0.24347
3800.82362	0.24247
3798.89525	0.24580
3796.96687	0.24898
3795.03850	0.25263
3793.11013	0.25671
3791.18175	0.25874
3789.25338	0.25875
3787.32501	0.25724
3785.39663	0.25514
3783.46826	0.25431
3781.53989	0.25346
3779.61151	0.25199
3777.68314	0.25333
3775.75477	0.25641
3773.82639	0.25677
3771.89802	0.25334
3769.96965	0.24927
3768.04127	0.24821
3766.11290	0.24926
3764.18453	0.25079
3762.25615	0.25064
3760.32778	0.24723
3758.39941	0.24424
3756.47103	0.24405
3754.54266	0.24220
3752.61429	0.23592
3750.68591	0.23011
3748.75754	0.23093
3746.82917	0.23253
3744.90080	0.23195
3742.97242	0.23410
3741.04405	0.23730
3739.11568	0.23633
3737.18730	0.23048
3735.25893	0.22442
3733.33056	0.22565
3731.40218	0.23260
3729.47381	0.23751
3727.54544	0.23711
3725.61706	0.23398
3723.68869	0.23186
3721.76032	0.23174
3719.83194	0.23294
3717.90357	0.23382
3715.97520	0.23243
3714.04682	0.22723
3712.11845	0.21973
3710.19008	0.21669
3708.26170	0.21980
3706.33333	0.22245
3704.40496	0.22088
3702.47658	0.21653
3700.54821	0.21376
3698.61984	0.21277
3696.69146	0.20994
3694.76309	0.20426
3692.83472	0.19585
3690.90635	0.18528
3688.97797	0.17694
3687.04960	0.17429
3685.12123	0.17274
3683.19285	0.16824
3681.26448	0.16033
3679.33611	0.15036
3677.40773	0.13927
3675.47936	0.12828
3673.55099	0.12136
3671.62261	0.11610
3669.69424	0.10912
3667.76587	0.10373
3665.83749	0.09983
3663.90912	0.09448
3661.98075	0.08799
3660.05237	0.08127
3658.12400	0.07435
3656.19563	0.06736
3654.26725	0.06141
3652.33888	0.05603
3650.41051	0.04955
3648.48213	0.04332
3646.55376	0.03977
3644.62539	0.03752
3642.69701	0.03496
3640.76864	0.03195
3638.84027	0.02896
3636.91189	0.02618
3634.98352	0.02357
3633.05515	0.02108
3631.12678	0.01863
3629.19840	0.01600
3627.27003	0.01398
3625.34166	0.01295
3623.41328	0.01196
3621.48491	0.01066
3619.55654	0.00929
3617.62816	0.00829
3615.69979	0.00767
3613.77142	0.00700
3611.84304	0.00624
3609.91467	0.00550
3607.98630	0.00472
3606.05792	0.00411
3604.12955	0.00386
3602.20118	0.00363
3600.27280	0.00320
3598.34443	0.00271
3596.41606	0.00227
3594.48768	0.00187
3592.55931	0.00152
3590.63094	0.00119
3588.70256	0.00106
3586.77419	0.00108
3584.84582	0.00102
3582.91744	0.00104
3580.98907	0.00114
3579.06070	0.00103
3577.13233	0.00066
3575.20395	0.00055
3573.27558	0.00075
3571.34721	0.00081
3569.41883	0.00089
3567.49046	0.00096
3565.56209	0.00090
3563.63371	0.00072
3561.70534	0.00049
3559.77697	0.00034
3557.84859	0.00050
3555.92022	0.00085
3553.99185	0.00090
3552.06347	0.00064
3550.13510	0.00049
3548.20673	0.00046
3546.27835	0.00044
3544.34998	0.00034
3542.42161	0.00040
3540.49323	0.00066
3538.56486	0.00078
3536.63649	0.00064
3534.70811	0.00040
3532.77974	0.00030
3530.85137	0.00037
3528.92299	0.00068
3526.99462	0.00076
3525.06625	0.00065
3523.13787	0.00045
3521.20950	0.00051
3519.28113	0.00074
3517.35276	0.00067
3515.42438	0.00051
3513.49601	0.00044
3511.56764	0.00047
3509.63926	0.00049
3507.71089	0.00040
3505.78252	0.00026
3503.85414	0.00023
3501.92577	0.00037
3499.99740	0.00060
3498.06902	0.00066
3496.14065	0.00045
3494.21228	0.00031
3492.28390	0.00031
3490.35553	0.00059
3488.42716	0.00071
3486.49878	0.00050
3484.57041	0.00026
3482.64204	0.00048
3480.71366	0.00054
3478.78529	0.00039
3476.85692	0.00026
3474.92854	0.00029
3473.00017	0.00034
3471.07180	0.00034
3469.14342	0.00030
3467.21505	0.00031
3465.28668	0.00031
3463.35831	0.00030
3461.42993	0.00045
3459.50156	0.00044
3457.57319	0.00045
3455.64481	0.00049
3453.71644	0.00057
3451.78807	0.00073
3449.85969	0.00079
3447.93132	0.00059
3446.00295	0.00047
3444.07457	0.00055
3442.14620	0.00050
3440.21783	0.00035
3438.28945	0.00032
3436.36108	0.00032
3434.43271	0.00044
3432.50433	0.00043
3430.57596	0.00023
3428.64759	0.00014
3426.71921	0.00012
3424.79084	0.00025
3422.86247	0.00034
3420.93409	0.00032
3419.00572	0.00023
3417.07735	0.00024
3415.14897	0.00033
3413.22060	0.00051
3411.29223	0.00047
3409.36385	0.00030
3407.43548	0.00025
3405.50711	0.00020
3403.57874	0.00024
3401.65036	0.00030
3399.72199	0.00036
3397.79362	0.00034
3395.86524	0.00039
3393.93687	0.00040
3392.00850	0.00036
3390.08012	0.00029
3388.15175	0.00025
3386.22338	0.00014
3384.29500	0.00023
3382.36663	0.00037
3380.43826	0.00045
3378.50988	0.00049
3376.58151	0.00042
3374.65314	0.00039
3372.72476	0.00047
3370.79639	0.00059
3368.86802	0.00049
3366.93964	0.00025
3365.01127	0.00029
3363.08290	0.00032
3361.15452	0.00026
3359.22615	0.00047
3357.29778	0.00049
3355.36940	0.00024
3353.44103	0.00017
3351.51266	0.00034
3349.58428	0.00041
3347.65591	0.00030
3345.72754	0.00021
3343.79917	0.00035
3341.87079	0.00045
3339.94242	0.00041
3338.01405	0.00028
3336.08567	0.00022
3334.15730	0.00017
3332.22893	0.00023
3330.30055	0.00033
3328.37218	0.00038
3326.44381	0.00034
3324.51543	0.00036
3322.58706	0.00028
3320.65869	0.00014
3318.73031	0.00023
3316.80194	0.00035
3314.87357	0.00036
3312.94519	0.00051
3311.01682	0.00049
3309.08845	0.00041
3307.16007	0.00046
3305.23170	0.00045
3303.30333	0.00036
3301.37495	0.00023
3299.44658	0.00026
3297.51821	0.00042
3295.58983	0.00046
3293.66146	0.00054
3291.73309	0.00053
3289.80472	0.00042
3287.87634	0.00034
3285.94797	0.00028
3284.01960	0.00027
3282.09122	0.00015
3280.16285	0.00028
3278.23448	0.00039
3276.30610	0.00040
3274.37773	0.00038
3272.44936	0.00034
3270.52098	0.00029
3268.59261	0.00026
3266.66424	0.00022
3264.73586	0.00014
3262.80749	0.00018
3260.87912	0.00025
3258.95074	0.00026
3257.02237	0.00019
3255.09400	0.00039
3253.16562	0.00037
3251.23725	0.00025
3249.30888	0.00041
3247.38050	0.00045
3245.45213	0.00041
3243.52376	0.00028
3241.59538	0.00025
3239.66701	0.00031
3237.73864	0.00021
3235.81026	0.00005
3233.88189	0.00018
3231.95352	0.00036
3230.02515	0.00052
3228.09677	0.00065
3226.16840	0.00050
3224.24003	0.00035
3222.31165	0.00033
3220.38328	0.00021
3218.45491	0.00022
3216.52653	0.00039
3214.59816	0.00052
3212.66979	0.00034
3210.74141	0.00017
3208.81304	0.00030
3206.88467	0.00041
3204.95629	0.00041
3203.02792	0.00047
3201.09955	0.00055
3199.17117	0.00051
3197.24280	0.00037
3195.31443	0.00036
3193.38605	0.00047
3191.45768	0.00048
3189.52931	0.00037
3187.60093	0.00021
3185.67256	0.00021
3183.74419	0.00032
3181.81581	0.00030
3179.88744	0.00015
3177.95907	0.00034
3176.03070	0.00040
3174.10232	0.00015
3172.17395	0.00018
3170.24558	0.00033
3168.31720	0.00037
3166.38883	0.00031
3164.46046	0.00035
3162.53208	0.00038
3160.60371	0.00031
3158.67534	0.00033
3156.74696	0.00037
3154.81859	0.00032
3152.89022	0.00027
3150.96184	0.00030
3149.03347	0.00027
3147.10510	0.00023
3145.17672	0.00023
3143.24835	0.00015
3141.31998	0.00023
3139.39160	0.00035
3137.46323	0.00038
3135.53486	0.00020
3133.60648	0.00020
3131.67811	0.00037
3129.74974	0.00037
3127.82136	0.00035
3125.89299	0.00028
3123.96462	0.00020
3122.03624	0.00026
3120.10787	0.00030
3118.17950	0.00030
3116.25113	0.00021
3114.32275	0.00022
3112.39438	0.00044
3110.46601	0.00049
3108.53763	0.00040
3106.60926	0.00038
3104.68089	0.00036
3102.75251	0.00024
3100.82414	0.00025
3098.89577	0.00037
3096.96739	0.00040
3095.03902	0.00037
3093.11065	0.00039
3091.18227	0.00037
3089.25390	0.00020
3087.32553	0.00021
3085.39715	0.00025
3083.46878	0.00021
3081.54041	0.00021
3079.61203	0.00036
3077.68366	0.00045
3075.75529	0.00042
3073.82691	0.00033
3071.89854	0.00045
3069.97017	0.00058
3068.04179	0.00057
3066.11342	0.00045
3064.18505	0.00035
3062.25668	0.00034
3060.32830	0.00027
3058.39993	0.00022
3056.47156	0.00028
3054.54318	0.00037
3052.61481	0.00023
3050.68644	0.00016
3048.75806	0.00033
3046.82969	0.00035
3044.90132	0.00045
3042.97294	0.00044
3041.04457	0.00027
3039.11620	0.00028
3037.18782	0.00029
3035.25945	0.00020
3033.33108	0.00023
3031.40270	0.00033
3029.47433	0.00035
3027.54596	0.00023
3025.61758	0.00020
3023.68921	0.00028
3021.76084	0.00011
3019.83246	0.00025
3017.90409	0.00034
3015.97572	0.00047
3014.04734	0.00048
3012.11897	0.00044
3010.19060	0.00046
3008.26222	0.00032
3006.33385	0.00023
3004.40548	0.00028
3002.47711	0.00021
3000.54873	0.00010
2998.62036	0.00035
2996.69199	0.00036
2994.76361	0.00043
2992.83524	0.00045
2990.90687	0.00037
2988.97849	0.00032
2987.05012	0.00021
2985.12175	0.00015
2983.19337	0.00021
2981.26500	0.00026
2979.33663	0.00041
2977.40825	0.00041
2975.47988	0.00033
2973.55151	0.00034
2971.62313	0.00042
2969.69476	0.00041
2967.76639	0.00030
2965.83801	0.00032
2963.90964	0.00032
2961.98127	0.00029
2960.05289	0.00027
2958.12452	0.00032
2956.19615	0.00051
2954.26777	0.00046
2952.33940	0.00025
2950.41103	0.00026
2948.48266	0.00040
2946.55428	0.00032
2944.62591	0.00031
2942.69754	0.00033
2940.76916	0.00029
2938.84079	0.00033
2936.91242	0.00041
2934.98404	0.00044
2933.05567	0.00036
2931.12730	0.00024
2929.19892	0.00031
2927.27055	0.00039
2925.34218	0.00033
2923.41380	0.00020
2921.48543	0.00010
2919.55706	0.00022
2917.62868	0.00029
2915.70031	0.00025
2913.77194	0.00023
2911.84356	0.00010
2909.91519	0.00023
2907.98682	0.00038
2906.05844	0.00037
2904.13007	0.00025
2902.20170	0.00033
2900.27332	0.00023
2898.34495	0.00036
2896.41658	0.00030
2894.48820	0.00021
2892.55983	0.00012
2890.63146	0.00017
2888.70309	0.00011
2886.77471	0.00016
2884.84634	0.00028
2882.91797	0.00023
2880.98959	0.00017
2879.06122	0.00016
2877.13285	0.00024
2875.20447	0.00040
2873.27610	0.00041
2871.34773	0.00031
2869.41935	0.00025
2867.49098	0.00019
2865.56261	0.00022
2863.63423	0.00032
2861.70586	0.00032
2859.77749	0.00038
2857.84911	0.00044
2855.92074	0.00034
2853.99237	0.00028
2852.06399	0.00035
2850.13562	0.00060
2848.20725	0.00086
2846.27887	0.00093
2844.35050	0.00096
2842.42213	0.00107
2840.49375	0.00116
2838.56538	0.00123
2836.63701	0.00140
2834.70863	0.00157
2832.78026	0.00166
2830.85189	0.00171
2828.92352	0.00174
2826.99514	0.00175
2825.06677	0.00187
2823.13840	0.00218
2821.21002	0.00250
2819.28165	0.00262
2817.35328	0.00267
2815.42490	0.00283
2813.49653	0.00312
2811.56816	0.00348
2809.63978	0.00379
2807.71141	0.00398
2805.78304	0.00411
2803.85466	0.00428
2801.92629	0.00451
2799.99792	0.00480
2798.06954	0.00509
2796.14117	0.00537
2794.21280	0.00565
2792.28442	0.00585
2790.35605	0.00600
2788.42768	0.00615
2786.49930	0.00636
2784.57093	0.00663
2782.64256	0.00686
2780.71418	0.00702
2778.78581	0.00720
2776.85744	0.00748
2774.92907	0.00779
2773.00069	0.00802
2771.07232	0.00813
2769.14395	0.00823
2767.21557	0.00845
2765.28720	0.00873
2763.35883	0.00898
2761.43045	0.00925
2759.50208	0.00956
2757.57371	0.00981
2755.64533	0.00996
2753.71696	0.01005
2751.78859	0.01024
2749.86021	0.01060
2747.93184	0.01104
2746.00347	0.01141
2744.07509	0.01149
2742.14672	0.01140
2740.21835	0.01150
2738.28997	0.01176
2736.36160	0.01201
2734.43323	0.01222
2732.50485	0.01245
2730.57648	0.01270
2728.64811	0.01298
2726.71973	0.01329
2724.79136	0.01361
2722.86299	0.01386
2720.93461	0.01418
2719.00624	0.01464
2717.07787	0.01504
2715.14950	0.01528
2713.22112	0.01558
2711.29275	0.01604
2709.36438	0.01655
2707.43600	0.01708
2705.50763	0.01757
2703.57926	0.01796
2701.65088	0.01834
2699.72251	0.01880
2697.79414	0.01917
2695.86576	0.01946
2693.93739	0.01976
2692.00902	0.02007
2690.08064	0.02037
2688.15227	0.02073
2686.22390	0.02112
2684.29552	0.02142
2682.36715	0.02168
2680.43878	0.02203
2678.51040	0.02246
2676.58203	0.02287
2674.65366	0.02324
2672.72528	0.02360
2670.79691	0.02396
2668.86854	0.02430
2666.94016	0.02464
2665.01179	0.02501
2663.08342	0.02533
2661.15505	0.02555
2659.22667	0.02572
2657.29830	0.02587
2655.36993	0.02600
2653.44155	0.02611
2651.51318	0.02624
2649.58481	0.02642
2647.65643	0.02669
2645.72806	0.02697
2643.79969	0.02715
2641.87131	0.02731
2639.94294	0.02746
2638.01457	0.02754
2636.08619	0.02762
2634.15782	0.02784
2632.22945	0.02812
2630.30107	0.02839
2628.37270	0.02871
2626.44433	0.02904
2624.51595	0.02922
2622.58758	0.02934
2620.65921	0.02951
2618.73083	0.02974
2616.80246	0.03011
2614.87409	0.03066
2612.94571	0.03125
2611.01734	0.03169
2609.08897	0.03198
2607.16059	0.03235
2605.23222	0.03287
2603.30385	0.03337
2601.37548	0.03375
2599.44710	0.03408
2597.51873	0.03439
2595.59036	0.03474
2593.66198	0.03510
2591.73361	0.03536
2589.80524	0.03555
2587.87686	0.03578
2585.94849	0.03612
2584.02012	0.03660
2582.09174	0.03708
2580.16337	0.03745
2578.23500	0.03781
2576.30662	0.03819
2574.37825	0.03864
2572.44988	0.03927
2570.52150	0.04001
2568.59313	0.04070
2566.66476	0.04139
2564.73638	0.04215
2562.80801	0.04297
2560.87964	0.04379
2558.95126	0.04466
2557.02289	0.04555
2555.09452	0.04630
2553.16614	0.04690
2551.23777	0.04758
2549.30940	0.04829
2547.38103	0.04886
2545.45265	0.04924
2543.52428	0.04958
2541.59591	0.05000
2539.66753	0.05047
2537.73916	0.05083
2535.81079	0.05108
2533.88241	0.05131
2531.95404	0.05155
2530.02567	0.05185
2528.09729	0.05228
2526.16892	0.05272
2524.24055	0.05305
2522.31217	0.05340
2520.38380	0.05387
2518.45543	0.05430
2516.52705	0.05465
2514.59868	0.05500
2512.67031	0.05550
2510.74193	0.05616
2508.81356	0.05675
2506.88519	0.05724
2504.95681	0.05785
2503.02844	0.05853
2501.10007	0.05909
2499.17169	0.05961
2497.24332	0.06030
2495.31495	0.06111
2493.38657	0.06180
2491.45820	0.06233
2489.52983	0.06293
2487.60146	0.06376
2485.67308	0.06460
2483.74471	0.06527
2481.81634	0.06586
2479.88796	0.06655
2477.95959	0.06725
2476.03122	0.06789
2474.10284	0.06863
2472.17447	0.06952
2470.24610	0.07039
2468.31772	0.07124
2466.38935	0.07211
2464.46098	0.07294
2462.53260	0.07381
2460.60423	0.07479
2458.67586	0.07575
2456.74748	0.07666
2454.81911	0.07757
2452.89074	0.07847
2450.96236	0.07935
2449.03399	0.08027
2447.10562	0.08119
2445.17724	0.08201
2443.24887	0.08269
2441.32050	0.08332
2439.39212	0.08400
2437.46375	0.08479
2435.53538	0.08554
2433.60700	0.08618
2431.67863	0.08682
2429.75026	0.08750
2427.82189	0.08819
2425.89351	0.08889
2423.96514	0.08949
2422.03677	0.08992
2420.10839	0.09025
2418.18002	0.09067
2416.25165	0.09123
2414.32327	0.09187
2412.39490	0.09260
2410.46653	0.09343
2408.53815	0.09433
2406.60978	0.09525
2404.68141	0.09616
2402.75303	0.09710
2400.82466	0.09804
2398.89629	0.09902
2396.96791	0.10017
2395.03954	0.10144
2393.11117	0.10268
2391.18279	0.10369
2389.25442	0.10449
2387.32605	0.10516
2385.39767	0.10574
2383.46930	0.10617
2381.54093	0.10649
2379.61255	0.10685
2377.68418	0.10724
2375.75581	0.10751
2373.82744	0.10770
2371.89906	0.10790
2369.97069	0.10816
2368.04232	0.10861
2366.11394	0.10890
2364.18557	0.10882
2362.25720	0.10921
2360.32882	0.11047
2358.40045	0.11197
2356.47208	0.11318
2354.54370	0.11420
2352.61533	0.11544
2350.68696	0.11651
2348.75858	0.11700
2346.83021	0.11714
2344.90184	0.11732
2342.97346	0.11761
2341.04509	0.11786
2339.11672	0.11805
2337.18834	0.11841
2335.25997	0.11902
2333.33160	0.11957
2331.40322	0.11992
2329.47485	0.12035
2327.54648	0.12103
2325.61810	0.12176
2323.68973	0.12235
2321.76136	0.12299
2319.83298	0.12388
2317.90461	0.12485
2315.97624	0.12577
2314.04787	0.12681
2312.11949	0.12802
2310.19112	0.12933
2308.26275	0.13070
2306.33437	0.13210
2304.40600	0.13347
2302.47763	0.13465
2300.54925	0.13554
2298.62088	0.13634
2296.69251	0.13720
2294.76413	0.13804
2292.83576	0.13878
2290.90739	0.13944
2288.97901	0.14005
2287.05064	0.14062
2285.12227	0.14111
2283.19389	0.14154
2281.26552	0.14190
2279.33715	0.14211
2277.40877	0.14220
2275.48040	0.14226
2273.55203	0.14233
2271.62365	0.14243
2269.69528	0.14258
2267.76691	0.14279
2265.83853	0.14304
2263.91016	0.14325
2261.98179	0.14339
2260.05342	0.14357
2258.12504	0.14385
2256.19667	0.14425
2254.26830	0.14481
2252.33992	0.14553
2250.41155	0.14632
2248.48318	0.14703
2246.55480	0.14767
2244.62643	0.14830
2242.69806	0.14889
2240.76968	0.14938
2238.84131	0.14979
2236.91294	0.15013
2234.98456	0.15038
2233.05619	0.15056
2231.12782	0.15078
2229.19944	0.15102
2227.27107	0.15116
2225.34270	0.15117
2223.41432	0.15110
2221.48595	0.15107
2219.55758	0.15110
2217.62920	0.15106
2215.70083	0.15088
2213.77246	0.15068
2211.84408	0.15054
2209.91571	0.15043
2207.98734	0.15029
2206.05896	0.15013
2204.13059	0.14990
2202.20222	0.14960
2200.27385	0.14931
2198.34547	0.14909
2196.41710	0.14891
2194.48873	0.14867
2192.56035	0.14839
2190.63198	0.14811
2188.70361	0.14790
2186.77523	0.14777
2184.84686	0.14773
2182.91849	0.14773
2180.99011	0.14770
2179.06174	0.14754
2177.13337	0.14729
2175.20499	0.14706
2173.27662	0.14687
2171.34825	0.14674
2169.41987	0.14663
2167.49150	0.14648
2165.56313	0.14635
2163.63475	0.14631
2161.70638	0.14630
2159.77801	0.14626
2157.84963	0.14619
2155.92126	0.14620
2153.99289	0.14633
2152.06451	0.14648
2150.13614	0.14660
2148.20777	0.14672
2146.27940	0.14687
2144.35102	0.14704
2142.42265	0.14724
2140.49428	0.14736
2138.56590	0.14739
2136.63753	0.14747
2134.70916	0.14769
2132.78078	0.14807
2130.85241	0.14855
2128.92404	0.14897
2126.99566	0.14941
2125.06729	0.14997
2123.13892	0.15056
2121.21054	0.15111
2119.28217	0.15174
2117.35380	0.15247
2115.42542	0.15324
2113.49705	0.15398
2111.56868	0.15466
2109.64030	0.15529
2107.71193	0.15589
2105.78356	0.15641
2103.85518	0.15686
2101.92681	0.15729
2099.99844	0.15772
2098.07006	0.15812
2096.14169	0.15851
2094.21332	0.15879
2092.28494	0.15894
2090.35657	0.15904
2088.42820	0.15917
2086.49983	0.15934
2084.57145	0.15949
2082.64308	0.15957
2080.71471	0.15956
2078.78633	0.15956
2076.85796	0.15958
2074.92959	0.15961
2073.00121	0.15970
2071.07284	0.15989
2069.14447	0.16006
2067.21609	0.16007
2065.28772	0.16019
2063.35935	0.16073
2061.43097	0.16140
2059.50260	0.16197
2057.57423	0.16262
2055.64585	0.16339
2053.71748	0.16424
2051.78911	0.16518
2049.86073	0.16614
2047.93236	0.16702
2046.00399	0.16783
2044.07561	0.16861
2042.14724	0.16943
2040.21887	0.17037
2038.29049	0.17139
2036.36212	0.17228
2034.43375	0.17302
2032.50538	0.17369
2030.57700	0.17430
2028.64863	0.17479
2026.72026	0.17525
2024.79188	0.17575
2022.86351	0.17620
2020.93514	0.17643
2019.00676	0.17642
2017.07839	0.17669
2015.15002	0.17763
2013.22164	0.17875
2011.29327	0.17965
2009.36490	0.18045
2007.43652	0.18123
2005.50815	0.18196
2003.57978	0.18271
2001.65140	0.18349
1999.72303	0.18421
1997.79466	0.18484
1995.86628	0.18519
1993.93791	0.18487
1992.00954	0.18453
1990.08116	0.18501
1988.15279	0.18588
1986.22442	0.18659
1984.29604	0.18708
1982.36767	0.18731
1980.43930	0.18740
1978.51092	0.18757
1976.58255	0.18781
1974.65418	0.18802
1972.72581	0.18819
1970.79743	0.18820
1968.86906	0.18782
1966.94069	0.18773
1965.01231	0.18854
1963.08394	0.18952
1961.15557	0.19014
1959.22719	0.19076
1957.29882	0.19143
1955.37045	0.19213
1953.44207	0.19305
1951.51370	0.19410
1949.58533	0.19502
1947.65695	0.19561
1945.72858	0.19557
1943.80021	0.19517
1941.87183	0.19601
1939.94346	0.19840
1938.01509	0.20047
1936.08671	0.20154
1934.15834	0.20223
1932.22997	0.20289
1930.30159	0.20354
1928.37322	0.20404
1926.44485	0.20395
1924.51647	0.20305
1922.58810	0.20251
1920.65973	0.20280
1918.73135	0.20307
1916.80298	0.20411
1914.87461	0.20605
1912.94624	0.20696
1911.01786	0.20648
1909.08949	0.20607
1907.16112	0.20660
1905.23274	0.20746
1903.30437	0.20802
1901.37600	0.20828
1899.44762	0.20820
1897.51925	0.20765
1895.59088	0.20705
1893.66250	0.20687
1891.73413	0.20628
1889.80576	0.20551
1887.87738	0.20633
1885.94901	0.20792
1884.02064	0.20885
1882.09226	0.20944
1880.16389	0.20990
1878.23552	0.21020
1876.30714	0.21039
1874.37877	0.21028
1872.45040	0.20878
1870.52202	0.20519
1868.59365	0.20242
1866.66528	0.20400
1864.73690	0.20731
1862.80853	0.20893
1860.88016	0.20909
1858.95179	0.20896
1857.02341	0.20893
1855.09504	0.20885
1853.16667	0.20858
1851.23829	0.20786
1849.30992	0.20625
1847.38155	0.20341
1845.45317	0.19996
1843.52480	0.19918
1841.59643	0.20185
1839.66805	0.20368
1837.73968	0.20339
1835.81131	0.20281
1833.88293	0.20185
1831.95456	0.19869
1830.02619	0.19495
1828.09781	0.19395
1826.16944	0.19421
1824.24107	0.19446
1822.31269	0.19535
1820.38432	0.19546
1818.45595	0.19411
1816.52757	0.19238
1814.59920	0.19031
1812.67083	0.18715
1810.74245	0.18397
1808.81408	0.18245
1806.88571	0.18149
1804.95733	0.17914
1803.02896	0.17502
1801.10059	0.17051
1799.17222	0.16751
1797.24384	0.16513
1795.31547	0.16107
1793.38710	0.15513
1791.45872	0.15076
1789.53035	0.14987
1787.60198	0.14867
1785.67360	0.14520
1783.74523	0.14090
1781.81686	0.13674
1779.88848	0.13309
1777.96011	0.13011
1776.03174	0.12629
1774.10336	0.12050
1772.17499	0.11474
1770.24662	0.11219
1768.31824	0.11143
1766.38987	0.10985
1764.46150	0.10662
1762.53312	0.10173
1760.60475	0.09690
1758.67638	0.09283
1756.74800	0.08829
1754.81963	0.08349
1752.89126	0.07784
1750.96288	0.07047
1749.03451	0.06338
1747.10614	0.05815
1745.17777	0.05342
1743.24939	0.04825
1741.32102	0.04277
1739.39265	0.03738
1737.46427	0.03288
1735.53590	0.02846
1733.60753	0.02320
1731.67915	0.01919
1729.75078	0.01651
1727.82241	0.01391
1725.89403	0.01130
1723.96566	0.00886
1722.03729	0.00680
1720.10891	0.00514
1718.18054	0.00362
1716.25217	0.00243
1714.32379	0.00180
1712.39542	0.00127
1710.46705	0.00072
1708.53867	0.00026
1706.61030	0.00031
1704.68193	0.00020
1702.75355	0.00018
1700.82518	0.00040
1698.89681	0.00034
1696.96843	0.00034
1695.04006	0.00025
1693.11169	0.00011
1691.18331	0.00019
1689.25494	0.00031
1687.32657	0.00039
1685.39820	0.00036
1683.46982	0.00034
1681.54145	0.00037
1679.61308	0.00019
1677.68470	0.00005
1675.75633	0.00016
1673.82796	0.00022
1671.89958	0.00027
1669.97121	0.00028
1668.04284	0.00029
1666.11446	0.00030
1664.18609	0.00028
1662.25772	0.00021
1660.32934	0.00023
1658.40097	0.00029
1656.47260	0.00029
1654.54422	0.00031
1652.61585	0.00025
1650.68748	0.00035
1648.75910	0.00035
1646.83073	0.00028
1644.90236	0.00019
1642.97398	0.00017
1641.04561	0.00021
1639.11724	0.00016
1637.18886	0.00015
1635.26049	0.00032
1633.33212	0.00035
1631.40375	0.00032
1629.47537	0.00024
1627.54700	0.00026
1625.61863	0.00032
1623.69025	0.00034
1621.76188	0.00028
1619.83351	0.00017
1617.90513	0.00020
1615.97676	0.00026
1614.04839	0.00025
1612.12001	0.00019
1610.19164	0.00019
1608.26327	0.00024
1606.33489	0.00032
1604.40652	0.00034
1602.47815	0.00036
1600.54977	0.00032
1598.62140	0.00025
1596.69303	0.00023
1594.76465	0.00031
1592.83628	0.00035
1590.90791	0.00029
1588.97953	0.00024
1587.05116	0.00019
1585.12279	0.00010
1583.19441	0.00020
1581.26604	0.00034
1579.33767	0.00037
1577.40929	0.00029
1575.48092	0.00018
1573.55255	0.00027
1571.62418	0.00028
1569.69580	0.00019
1567.76743	0.00014
1565.83906	0.00011
1563.91068	0.00010
1561.98231	0.00022
1560.05394	0.00026
1558.12556	0.00039
1556.19719	0.00035
1554.26882	0.00031
1552.34044	0.00024
1550.41207	0.00025
1548.48370	0.00029
1546.55532	0.00038
1544.62695	0.00040
1542.69858	0.00037
1540.77020	0.00031
1538.84183	0.00019
1536.91346	0.00016
1534.98508	0.00026
1533.05671	0.00026
1531.12834	0.00014
1529.19996	0.00024
1527.27159	0.00039
1525.34322	0.00037
1523.41484	0.00021
1521.48647	0.00014
1519.55810	0.00022
1517.62972	0.00022
1515.70135	0.00012
1513.77298	0.00014
1511.84461	0.00021
1509.91623	0.00033
1507.98786	0.00031
1506.05949	0.00020
1504.13111	0.00020
1502.20274	0.00021
1500.27437	0.00018
1498.34599	0.00008
1496.41762	0.00012
1494.48925	0.00015
1492.56087	0.00012
1490.63250	0.00015
1488.70413	0.00018
1486.77575	0.00008
1484.84738	0.00017
1482.91901	0.00027
1480.99063	0.00020
1479.06226	0.00021
1477.13389	0.00032
1475.20551	0.00041
1473.27714	0.00051
1471.34877	0.00042
1469.42039	0.00025
1467.49202	0.00022
1465.56365	0.00023
1463.63527	0.00030
1461.70690	0.00034
1459.77853	0.00026
1457.85016	0.00017
1455.92178	0.00015
1453.99341	0.00012
1452.06504	0.00012
1450.13666	0.00012
1448.20829	0.00012
1446.27992	0.00016
1444.35154	0.00018
1442.42317	0.00011
1440.49480	0.00016
1438.56642	0.00021
1436.63805	0.00025
1434.70968	0.00038
1432.78130	0.00031
1430.85293	0.00009
1428.92456	0.00029
1426.99618	0.00043
1425.06781	0.00040
1423.13944	0.00030
1421.21106	0.00022
1419.28269	0.00026
1417.35432	0.00022
1415.42594	0.00016
1413.49757	0.00014
1411.56920	0.00015
1409.64082	0.00028
1407.71245	0.00034
1405.78408	0.00030
1403.85570	0.00024
1401.92733	0.00021
1399.99896	0.00026
1398.07059	0.00023
1396.14221	0.00019
1394.21384	0.00024
1392.28547	0.00030
1390.35709	0.00033
1388.42872	0.00048
1386.50035	0.00033
1384.57197	0.00033
1382.64360	0.00020
1380.71523	0.00015
1378.78685	0.00025
1376.85848	0.00018
1374.93011	0.00009
1373.00173	0.00014
1371.07336	0.00023
1369.14499	0.00030
1367.21661	0.00029
1365.28824	0.00044
1363.35987	0.00046
1361.43149	0.00035
1359.50312	0.00026
1357.57475	0.00029
1355.64637	0.00024
1353.71800	0.00025
1351.78963	0.00018
1349.86125	0.00017
1347.93288	0.00027
1346.00451	0.00021
1344.07614	0.00012
1342.14776	0.00028
1340.21939	0.00029
1338.29102	0.00018
1336.36264	0.00012
1334.43427	0.00016
1332.50590	0.00021
1330.57752	0.00014
1328.64915	0.00005
1326.72078	0.00013
1324.79240	0.00015
1322.86403	0.00023
1320.93566	0.00026
1319.00728	0.00022
1317.07891	0.00022
1315.15054	0.00013
1313.22216	0.00019
1311.29379	0.00036
1309.36542	0.00035
1307.43704	0.00022
1305.50867	0.00026
1303.58030	0.00042
1301.65192	0.00038
1299.72355	0.00034
1297.79518	0.00036
1295.86680	0.00030
1293.93843	0.00025
1292.01006	0.00016
1290.08168	0.00009
1288.15331	0.00010
1286.22494	0.00013
1284.29657	0.00035
1282.36819	0.00039
1280.43982	0.00032
1278.51145	0.00035
1276.58307	0.00024
1274.65470	0.00023
1272.72633	0.00015
1270.79795	0.00015
1268.86958	0.00031
1266.94121	0.00045
1265.01283	0.00045
1263.08446	0.00046
1261.15609	0.00042
1259.22771	0.00029
1257.29934	0.00019
1255.37097	0.00024
1253.44259	0.00030
1251.51422	0.00044
1249.58585	0.00053
1247.65747	0.00044
1245.72910	0.00026
1243.80073	0.00048
1241.87235	0.00049
1239.94398	0.00036
1238.01561	0.00030
1236.08723	0.00034
1234.15886	0.00042
1232.23049	0.00034
1230.30212	0.00034
1228.37374	0.00030
1226.44537	0.00034
1224.51700	0.00038
1222.58862	0.00027
1220.66025	0.00037
1218.73188	0.00056
1216.80350	0.00057
1214.87513	0.00038
1212.94676	0.00037
1211.01838	0.00017
1209.09001	0.00036
1207.16164	0.00048
1205.23326	0.00057
1203.30489	0.00024
1201.37652	0.00028
1199.44814	0.00026
1197.51977	0.00073
1195.59140	0.00097
1193.66302	0.00077
1191.73465	0.00054
1189.80628	0.00040
1187.87790	0.00043
1185.94953	0.00037
1184.02116	0.00027
1182.09278	0.00030
1180.16441	0.00052
1178.23604	0.00053
1176.30766	0.00036
1174.37929	0.00011
1172.45092	0.00025
1170.52255	0.00053
1168.59417	0.00065
1166.66580	0.00067
1164.73743	0.00061
1162.80905	0.00061
1160.88068	0.00064
1158.95231	0.00049
1157.02393	0.00031
1155.09556	0.00048
1153.16719	0.00082
1151.23881	0.00078
1149.31044	0.00043
1147.38207	0.00032
1145.45369	0.00061
1143.52532	0.00080
1141.59695	0.00093
1139.66857	0.00093
1137.74020	0.00073
1135.81183	0.00056
1133.88345	0.00070
1131.95508	0.00044
1130.02671	0.00013
1128.09833	0.00040
1126.16996	0.00054
1124.24159	0.00060
1122.31321	0.00046
1120.38484	0.00037
1118.45647	0.00027
1116.52809	0.00048
1114.59972	0.00045
1112.67135	0.00028
1110.74298	0.00014
1108.81460	0.00024
1106.88623	0.00061
1104.95786	0.00093
1103.02948	0.00091
1101.10111	0.00073
1099.17274	0.00068
1097.24436	0.00073
1095.31599	0.00067
1093.38762	0.00043
1091.45924	0.00046
1089.53087	0.00041
1087.60250	0.00044
1085.67412	0.00057
1083.74575	0.00026
1081.81738	0.00048
1079.88900	0.00064
1077.96063	0.00052
1076.03226	0.00044
1074.10388	0.00046
1072.17551	0.00035
1070.24714	0.00047
1068.31876	0.00052
1066.39039	0.00042
1064.46202	0.00024
1062.53364	0.00050
1060.60527	0.00066
1058.67690	0.00062
1056.74853	0.00058
1054.82015	0.00056
1052.89178	0.00054
1050.96341	0.00059
1049.03503	0.00072
1047.10666	0.00075
1045.17829	0.00057
1043.24991	0.00033
1041.32154	0.00019
1039.39317	0.00023
1037.46479	0.00027
1035.53642	0.00034
1033.60805	0.00030
1031.67967	0.00019
1029.75130	0.00019
1027.82293	0.00034
1025.89455	0.00040
1023.96618	0.00044
1022.03781	0.00062
1020.10943	0.00066
1018.18106	0.00033
1016.25269	0.00023
1014.32431	0.00063
1012.39594	0.00083
1010.46757	0.00057
1008.53919	0.00040
1006.61082	0.00036
1004.68245	0.00032
1002.75407	0.00038
1000.82570	0.00031
998.89733	0.00029
996.96896	0.00029
995.04058	0.00025
993.11221	0.00027
991.18384	0.00030
989.25546	0.00056
987.32709	0.00090
985.39872	0.00112
983.47034	0.00105
981.54197	0.00086
979.61360	0.00072
977.68522	0.00062
975.75685	0.00050
973.82848	0.00054
971.90010	0.00081
969.97173	0.00126
968.04336	0.00184
966.11498	0.00250
964.18661	0.00294
962.25824	0.00276
960.32986	0.00208
958.40149	0.00143
956.47312	0.00099
954.54474	0.00074
952.61637	0.00072
950.68800	0.00089
948.75962	0.00145
946.83125	0.00226
944.90288	0.00335
942.97451	0.00476
941.04613	0.00626
939.11776	0.00757
937.18939	0.00869
935.26101	0.00973
933.33264	0.01065
931.40427	0.01144
929.47589	0.01208
927.54752	0.01225
925.61915	0.01190
923.69077	0.01134
921.76240	0.01099
919.83403	0.01133
917.90565	0.01245
915.97728	0.01386
914.04891	0.01501
912.12053	0.01560
910.19216	0.01534
908.26379	0.01393
906.33541	0.01158
904.40704	0.00913
902.47867	0.00719
900.55029	0.00582
898.62192	0.00510
896.69355	0.00511
894.76517	0.00551
892.83680	0.00583
890.90843	0.00623
888.98005	0.00709
887.05168	0.00835
885.12331	0.00988
883.19494	0.01143
881.26656	0.01256
879.33819	0.01316
877.40982	0.01354
875.48144	0.01400
873.55307	0.01463
871.62470	0.01518
869.69632	0.01537
867.76795	0.01533
865.83958	0.01556
863.91120	0.01600
861.98283	0.01615
860.05446	0.01582
858.12608	0.01522
856.19771	0.01451
854.26934	0.01391
852.34096	0.01362
850.41259	0.01351
848.48422	0.01345
846.55584	0.01342
844.62747	0.01333
842.69910	0.01283
840.77072	0.01200
838.84235	0.01129
836.91398	0.01059
834.98560	0.00973
833.05723	0.00909
831.12886	0.00874
829.20049	0.00844
827.27211	0.00804
825.34374	0.00751
823.41537	0.00711
821.48699	0.00686
819.55862	0.00654
817.63025	0.00605
815.70187	0.00557
813.77350	0.00533
811.84513	0.00543
809.91675	0.00539
807.98838	0.00507
806.06001	0.00483
804.13163	0.00463
802.20326	0.00447
800.27489	0.00449
798.34651	0.00433
796.41814	0.00367
794.48977	0.00290
792.56139	0.00240
790.63302	0.00205
788.70465	0.00163
786.77627	0.00139
784.84790	0.00154
782.91953	0.00172
780.99115	0.00176
779.06278	0.00166
777.13441	0.00159
775.20603	0.00162
773.27766	0.00163
771.34929	0.00145
769.42092	0.00103
767.49254	0.00074
765.56417	0.00066
763.63580	0.00032
761.70742	0.00035
759.77905	0.00059
757.85068	0.00073
755.92230	0.00067
753.99393	0.00055
752.06556	0.00057
750.13718	0.00062
748.20881	0.00042
746.28044	0.00065
744.35206	0.00099
742.42369	0.00073
740.49532	0.00065
738.56694	0.00104
736.63857	0.00117
734.71020	0.00132
732.78182	0.00146
730.85345	0.00112
728.92508	0.00076
726.99670	0.00074
725.06833	0.00066
723.13996	0.00089
721.21158	0.00100
719.28321	0.00059
717.35484	0.00022
715.42647	0.00045
713.49809	0.00061
711.56972	0.00079
709.64135	0.00101
707.71297	0.00137
705.78460	0.00138
703.85623	0.00109
701.92785	0.00099
699.99948	0.00114
698.07111	0.00118
696.14273	0.00084
694.21436	0.00053
692.28599	0.00067
690.35761	0.00082
688.42924	0.00090
686.50087	0.00096
684.57249	0.00136
682.64412	0.00126
680.71575	0.00179
678.78737	0.00177
676.85900	0.00155
674.93063	0.00130
673.00225	0.00131
671.07388	0.00210
669.14551	0.00218
667.21713	0.00138
665.28876	0.00166
663.36039	0.00156
661.43201	0.00201
659.50364	0.00246
657.57527	0.00186
655.64690	0.00097
653.71852	0.00153
651.79015	0.00182
649.86178	0.00205
647.93340	0.00206
646.00503	0.00230
644.07666	0.00193
642.14828	0.00133
640.21991	0.00115
638.29154	0.00128
636.36316	0.00142
634.43479	0.00137
632.50642	0.00124
630.57804	0.00217
628.64967	0.00202
626.72130	0.00140
624.79292	0.00148
622.86455	0.00201
620.93618	0.00205
619.00780	0.00113
617.07943	0.00133
615.15106	0.00167
613.22268	0.00259
611.29431	0.00276
609.36594	0.00266
607.43756	0.00363
605.50919	0.00403
603.58082	0.00511
601.65244	0.00681
599.72407	0.00648
