3997.51769	0.94971
3995.58931	0.94974
3993.66094	0.95019
3991.73257	0.95093
3989.80419	0.95164
3987.87582	0.95193
3985.94745	0.95184
3984.01907	0.95152
3982.09070	0.95104
3980.16233	0.95101
3978.23396	0.95161
3976.30558	0.95229
3974.37721	0.95323
3972.44884	0.95443
3970.52046	0.95457
3968.59209	0.95354
3966.66372	0.95279
3964.73534	0.95306
3962.80697	0.95439
3960.87860	0.95616
3958.95022	0.95687
3957.02185	0.95619
3955.09348	0.95539
3953.16510	0.95546
3951.23673	0.95657
3949.30836	0.95806
3947.37998	0.95852
3945.45161	0.95789
3943.52324	0.95761
3941.59486	0.95788
3939.66649	0.95784
3937.73812	0.95750
3935.80974	0.95740
3933.88137	0.95800
3931.95300	0.95890
3930.02462	0.95887
3928.09625	0.95844
3926.16788	0.95893
3924.23950	0.95956
3922.31113	0.95919
3920.38276	0.95900
3918.45439	0.96000
3916.52601	0.96058
3914.59764	0.95968
3912.66927	0.95856
3910.74089	0.95803
3908.81252	0.95823
3906.88415	0.95933
3904.95577	0.96138
3903.02740	0.96377
3901.09903	0.96488
3899.17065	0.96369
3897.24228	0.96192
3895.31391	0.96183
3893.38553	0.96327
3891.45716	0.96410
3889.52879	0.96371
3887.60041	0.96435
3885.67204	0.96590
3883.74367	0.96626
3881.81529	0.96594
3879.88692	0.96515
3877.95855	0.96355
3876.03017	0.96287
3874.10180	0.96384
3872.17343	0.96586
3870.24505	0.96735
3868.31668	0.96656
3866.38831	0.96520
3864.45994	0.96505
3862.53156	0.96494
3860.60319	0.96439
3858.67482	0.96443
3856.74644	0.96524
3854.81807	0.96680
3852.88970	0.96755
3850.96132	0.96557
3849.03295	0.96358
3847.10458	0.96308
3845.17620	0.96444
3843.24783	0.96695
3841.31946	0.96920
3839.39108	0.97002
3837.46271	0.96858
3835.53434	0.96605
3833.60596	0.96434
3831.67759	0.96370
3829.74922	0.96375
3827.82084	0.96413
3825.89247	0.96445
3823.96410	0.96539
3822.03572	0.96760
3820.10735	0.96832
3818.17898	0.96730
3816.25060	0.96680
3814.32223	0.96488
3812.39386	0.96189
3810.46548	0.96075
3808.53711	0.96220
3806.60874	0.96387
3804.68037	0.96441
3802.75199	0.96535
3800.82362	0.96516
3798.89525	0.96303
3796.96687	0.96106
3795.03850	0.95925
3793.11013	0.95836
3791.18175	0.95895
3789.25338	0.95994
3787.32501	0.96033
3785.39663	0.95981
3783.46826	0.95910
3781.53989	0.95934
3779.61151	0.95977
3777.68314	0.95925
3775.75477	0.95844
3773.82639	0.95811
3771.89802	0.95879
3769.96965	0.96005
3768.04127	0.96014
3766.11290	0.95914
3764.18453	0.95820
3762.25615	0.95784
3760.32778	0.95830
3758.39941	0.95891
3756.47103	0.95882
3754.54266	0.95902
3752.61429	0.96120
3750.68591	0.96425
3748.75754	0.96439
3746.82917	0.96369
3744.90080	0.96355
3742.97242	0.96148
3741.04405	0.95887
3739.11568	0.95834
3737.18730	0.96022
3735.25893	0.96237
3733.33056	0.96120
3731.40218	0.95808
3729.47381	0.95597
3727.54544	0.95524
3725.61706	0.95539
3723.68869	0.95573
3721.76032	0.95536
3719.83194	0.95430
3717.90357	0.95323
3715.97520	0.95253
3714.04682	0.95313
3712.11845	0.95564
3710.19008	0.95645
3708.26170	0.95322
3706.33333	0.94985
3704.40496	0.94897
3702.47658	0.94996
3700.54821	0.94955
3698.61984	0.94676
3696.69146	0.94427
3694.76309	0.94428
3692.83472	0.94674
3690.90635	0.94915
3688.97797	0.94805
3687.04960	0.94426
3685.12123	0.94157
3683.19285	0.94021
3681.26448	0.93921
3679.33611	0.93864
3677.40773	0.93931
3675.47936	0.93973
3673.55099	0.93822
3671.62261	0.93723
3669.69424	0.93533
3667.76587	0.93070
3665.83749	0.92640
3663.90912	0.92337
3661.98075	0.92121
3660.05237	0.92005
3658.12400	0.92002
3656.19563	0.92003
3654.26725	0.91912
3652.33888	0.91905
3650.41051	0.92003
3648.48213	0.91765
3646.55376	0.91159
3644.62539	0.90676
3642.69701	0.90382
3640.76864	0.90179
3638.84027	0.89967
3636.91189	0.89749
3634.98352	0.89562
3633.05515	0.89431
3631.12678	0.89411
3629.19840	0.89334
3627.27003	0.88932
3625.34166	0.88504
3623.41328	0.88216
3621.48491	0.88042
3619.55654	0.87914
3617.62816	0.87673
3615.69979	0.87335
3613.77142	0.86972
3611.84304	0.86612
3609.91467	0.86351
3607.98630	0.86175
3606.05792	0.85911
3604.12955	0.85569
3602.20118	0.85282
3600.27280	0.85036
3598.34443	0.84766
3596.41606	0.84521
3594.48768	0.84288
3592.55931	0.84034
3590.63094	0.83861
3588.70256	0.83733
3586.77419	0.83407
3584.84582	0.82914
3582.91744	0.82499
3580.98907	0.82161
3579.06070	0.81839
3577.13233	0.81538
3575.20395	0.81260
3573.27558	0.81020
3571.34721	0.80880
3569.41883	0.80848
3567.49046	0.80709
3565.56209	0.80254
3563.63371	0.79728
3561.70534	0.79287
3559.77697	0.78903
3557.84859	0.78586
3555.92022	0.78322
3553.99185	0.78066
3552.06347	0.77824
3550.13510	0.77619
3548.20673	0.77395
3546.27835	0.77103
3544.34998	0.76764
3542.42161	0.76401
3540.49323	0.76057
3538.56486	0.75782
3536.63649	0.75547
3534.70811	0.75305
3532.77974	0.75062
3530.85137	0.74811
3528.92299	0.74549
3526.99462	0.74270
3525.06625	0.73967
3523.13787	0.73652
3521.20950	0.73341
3519.28113	0.73072
3517.35276	0.72829
3515.42438	0.72585
3513.49601	0.72346
3511.56764	0.72105
3509.63926	0.71848
3507.71089	0.71564
3505.78252	0.71285
3503.85414	0.71049
3501.92577	0.70819
3499.99740	0.70564
3498.06902	0.70320
3496.14065	0.70094
3494.21228	0.69860
3492.28390	0.69632
3490.35553	0.69395
3488.42716	0.69131
3486.49878	0.68899
3484.57041	0.68747
3482.64204	0.68634
3480.71366	0.68467
3478.78529	0.68239
3476.85692	0.68033
3474.92854	0.67880
3473.00017	0.67732
3471.07180	0.67546
3469.14342	0.67331
3467.21505	0.67138
3465.28668	0.66974
3463.35831	0.66794
3461.42993	0.66601
3459.50156	0.66410
3457.57319	0.66194
3455.64481	0.65978
3453.71644	0.65838
3451.78807	0.65749
3449.85969	0.65644
3447.93132	0.65512
3446.00295	0.65325
3444.07457	0.65111
3442.14620	0.64936
3440.21783	0.64789
3438.28945	0.64669
3436.36108	0.64549
3434.43271	0.64385
3432.50433	0.64214
3430.57596	0.64062
3428.64759	0.63905
3426.71921	0.63755
3424.79084	0.63629
3422.86247	0.63517
3420.93409	0.63417
3419.00572	0.63283
3417.07735	0.63084
3415.14897	0.62874
3413.22060	0.62694
3411.29223	0.62538
3409.36385	0.62372
3407.43548	0.62221
3405.50711	0.62119
3403.57874	0.62000
3401.65036	0.61831
3399.72199	0.61668
3397.79362	0.61525
3395.86524	0.61380
3393.93687	0.61237
3392.00850	0.61087
3390.08012	0.60903
3388.15175	0.60692
3386.22338	0.60499
3384.29500	0.60307
3382.36663	0.60058
3380.43826	0.59787
3378.50988	0.59544
3376.58151	0.59292
3374.65314	0.58988
3372.72476	0.58676
3370.79639	0.58469
3368.86802	0.58335
3366.93964	0.58085
3365.01127	0.57686
3363.08290	0.57301
3361.15452	0.56995
3359.22615	0.56667
3357.29778	0.56252
3355.36940	0.55801
3353.44103	0.55367
3351.51266	0.54950
3349.58428	0.54516
3347.65591	0.54037
3345.72754	0.53517
3343.79917	0.52998
3341.87079	0.52505
3339.94242	0.51987
3338.01405	0.51372
3336.08567	0.50708
3334.15730	0.50096
3332.22893	0.49536
3330.30055	0.48965
3328.37218	0.48354
3326.44381	0.47702
3324.51543	0.47014
3322.58706	0.46305
3320.65869	0.45586
3318.73031	0.44839
3316.80194	0.44080
3314.87357	0.43389
3312.94519	0.42771
3311.01682	0.42135
3309.08845	0.41446
3307.16007	0.40772
3305.23170	0.40210
3303.30333	0.39786
3301.37495	0.39415
3299.44658	0.39039
3297.51821	0.38730
3295.58983	0.38537
3293.66146	0.38437
3291.73309	0.38460
3289.80472	0.38603
3287.87634	0.38799
3285.94797	0.39053
3284.01960	0.39400
3282.09122	0.39836
3280.16285	0.40380
3278.23448	0.41022
3276.30610	0.41673
3274.37773	0.42311
3272.44936	0.43017
3270.52098	0.43811
3268.59261	0.44602
3266.66424	0.45350
3264.73586	0.46104
3262.80749	0.46868
3260.87912	0.47618
3258.95074	0.48383
3257.02237	0.49173
3255.09400	0.49959
3253.16562	0.50714
3251.23725	0.51442
3249.30888	0.52181
3247.38050	0.52909
3245.45213	0.53569
3243.52376	0.54198
3241.59538	0.54831
3239.66701	0.55413
3237.73864	0.55905
3235.81026	0.56324
3233.88189	0.56735
3231.95352	0.57190
3230.02515	0.57631
3228.09677	0.58009
3226.16840	0.58363
3224.24003	0.58717
3222.31165	0.59065
3220.38328	0.59424
3218.45491	0.59756
3216.52653	0.60013
3214.59816	0.60227
3212.66979	0.60456
3210.74141	0.60752
3208.81304	0.61113
3206.88467	0.61464
3204.95629	0.61760
3203.02792	0.62013
3201.09955	0.62285
3199.17117	0.62614
3197.24280	0.62932
3195.31443	0.63194
3193.38605	0.63458
3191.45768	0.63775
3189.52931	0.64129
3187.60093	0.64466
3185.67256	0.64764
3183.74419	0.65050
3181.81581	0.65358
3179.88744	0.65663
3177.95907	0.65930
3176.03070	0.66173
3174.10232	0.66409
3172.17395	0.66638
3170.24558	0.66868
3168.31720	0.67114
3166.38883	0.67378
3164.46046	0.67644
3162.53208	0.67884
3160.60371	0.68110
3158.67534	0.68363
3156.74696	0.68610
3154.81859	0.68794
3152.89022	0.68936
3150.96184	0.69053
3149.03347	0.69170
3147.10510	0.69338
3145.17672	0.69544
3143.24835	0.69697
3141.31998	0.69765
3139.39160	0.69822
3137.46323	0.69910
3135.53486	0.70012
3133.60648	0.70116
3131.67811	0.70169
3129.74974	0.70148
3127.82136	0.70126
3125.89299	0.70142
3123.96462	0.70161
3122.03624	0.70165
3120.10787	0.70141
3118.17950	0.70075
3116.25113	0.70018
3114.32275	0.70004
3112.39438	0.69987
3110.46601	0.69906
3108.53763	0.69741
3106.60926	0.69581
3104.68089	0.69520
3102.75251	0.69498
3100.82414	0.69417
3098.89577	0.69277
3096.96739	0.69136
3095.03902	0.69013
3093.11065	0.68868
3091.18227	0.68706
3089.25390	0.68572
3087.32553	0.68491
3085.39715	0.68442
3083.46878	0.68382
3081.54041	0.68286
3079.61203	0.68190
3077.68366	0.68165
3075.75529	0.68211
3073.82691	0.68265
3071.89854	0.68300
3069.97017	0.68308
3068.04179	0.68303
3066.11342	0.68332
3064.18505	0.68407
3062.25668	0.68504
3060.32830	0.68622
3058.39993	0.68788
3056.47156	0.68998
3054.54318	0.69178
3052.61481	0.69288
3050.68644	0.69409
3048.75806	0.69620
3046.82969	0.69900
3044.90132	0.70178
3042.97294	0.70412
3041.04457	0.70619
3039.11620	0.70820
3037.18782	0.70980
3035.25945	0.71121
3033.33108	0.71293
3031.40270	0.71448
3029.47433	0.71547
3027.54596	0.71659
3025.61758	0.71827
3023.68921	0.72027
3021.76084	0.72226
3019.83246	0.72384
3017.90409	0.72510
3015.97572	0.72644
3014.04734	0.72783
3012.11897	0.72903
3010.19060	0.72963
3008.26222	0.72927
3006.33385	0.72837
3004.40548	0.72745
3002.47711	0.72653
3000.54873	0.72538
2998.62036	0.72373
2996.69199	0.72153
2994.76361	0.71901
2992.83524	0.71627
2990.90687	0.71309
2988.97849	0.70924
2987.05012	0.70434
2985.12175	0.69846
2983.19337	0.69260
2981.26500	0.68727
2979.33663	0.68166
2977.40825	0.67564
2975.47988	0.67000
2973.55151	0.66442
2971.62313	0.65843
2969.69476	0.65320
2967.76639	0.64923
2965.83801	0.64574
2963.90964	0.64318
2961.98127	0.64249
2960.05289	0.64306
2958.12452	0.64455
2956.19615	0.64791
2954.26777	0.65295
2952.33940	0.65793
2950.41103	0.66186
2948.48266	0.66451
2946.55428	0.66523
2944.62591	0.66378
2942.69754	0.66084
2940.76916	0.65709
2938.84079	0.65322
2936.91242	0.64999
2934.98404	0.64740
2933.05567	0.64495
2931.12730	0.64326
2929.19892	0.64336
2927.27055	0.64481
2925.34218	0.64673
2923.41380	0.64878
2921.48543	0.65070
2919.55706	0.65300
2917.62868	0.65708
2915.70031	0.66367
2913.77194	0.67168
2911.84356	0.67912
2909.91519	0.68521
2907.98682	0.69046
2906.05844	0.69523
2904.13007	0.69940
2902.20170	0.70269
2900.27332	0.70505
2898.34495	0.70669
2896.41658	0.70794
2894.48820	0.70923
2892.55983	0.71083
2890.63146	0.71211
2888.70309	0.71219
2886.77471	0.71158
2884.84634	0.71089
2882.91797	0.70964
2880.98959	0.70765
2879.06122	0.70540
2877.13285	0.70351
2875.20447	0.70258
2873.27610	0.70309
2871.34773	0.70548
2869.41935	0.70954
2867.49098	0.71431
2865.56261	0.71882
2863.63423	0.72229
2861.70586	0.72449
2859.77749	0.72570
2857.84911	0.72640
2855.92074	0.72679
2853.99237	0.72650
2852.06399	0.72555
2850.13562	0.72573
2848.20725	0.72951
2846.27887	0.73665
2844.35050	0.74409
2842.42213	0.74963
2840.49375	0.75347
2838.56538	0.75641
2836.63701	0.75872
2834.70863	0.76040
2832.78026	0.76162
2830.85189	0.76279
2828.92352	0.76413
2826.99514	0.76530
2825.06677	0.76621
2823.13840	0.76714
2821.21002	0.76804
2819.28165	0.76853
2817.35328	0.76882
2815.42490	0.76973
2813.49653	0.77102
2811.56816	0.77184
2809.63978	0.77243
2807.71141	0.77290
2805.78304	0.77292
2803.85466	0.77309
2801.92629	0.77389
2799.99792	0.77512
2798.06954	0.77656
2796.14117	0.77751
2794.21280	0.77749
2792.28442	0.77739
2790.35605	0.77814
2788.42768	0.77945
2786.49930	0.78058
2784.57093	0.78148
2782.64256	0.78242
2780.71418	0.78316
2778.78581	0.78352
2776.85744	0.78371
2774.92907	0.78397
2773.00069	0.78447
2771.07232	0.78515
2769.14395	0.78597
2767.21557	0.78685
2765.28720	0.78756
2763.35883	0.78825
2761.43045	0.78912
2759.50208	0.78964
2757.57371	0.78959
2755.64533	0.78988
2753.71696	0.79092
2751.78859	0.79207
2749.86021	0.79300
2747.93184	0.79390
2746.00347	0.79440
2744.07509	0.79434
2742.14672	0.79430
2740.21835	0.79490
2738.28997	0.79617
2736.36160	0.79727
2734.43323	0.79750
2732.50485	0.79744
2730.57648	0.79810
2728.64811	0.79933
2726.71973	0.80014
2724.79136	0.80048
2722.86299	0.80102
2720.93461	0.80193
2719.00624	0.80317
2717.07787	0.80436
2715.14950	0.80479
2713.22112	0.80473
2711.29275	0.80507
2709.36438	0.80598
2707.43600	0.80704
2705.50763	0.80776
2703.57926	0.80798
2701.65088	0.80815
2699.72251	0.80877
2697.79414	0.80977
2695.86576	0.81054
2693.93739	0.81079
2692.00902	0.81116
2690.08064	0.81199
2688.15227	0.81273
2686.22390	0.81302
2684.29552	0.81334
2682.36715	0.81412
2680.43878	0.81472
2678.51040	0.81468
2676.58203	0.81483
2674.65366	0.81556
2672.72528	0.81609
2670.79691	0.81613
2668.86854	0.81639
2666.94016	0.81718
2665.01179	0.81801
2663.08342	0.81861
2661.15505	0.81924
2659.22667	0.81992
2657.29830	0.82036
2655.36993	0.82036
2653.44155	0.82027
2651.51318	0.82065
2649.58481	0.82141
2647.65643	0.82203
2645.72806	0.82236
2643.79969	0.82265
2641.87131	0.82310
2639.94294	0.82368
2638.01457	0.82424
2636.08619	0.82474
2634.15782	0.82528
2632.22945	0.82592
2630.30107	0.82655
2628.37270	0.82696
2626.44433	0.82723
2624.51595	0.82754
2622.58758	0.82791
2620.65921	0.82840
2618.73083	0.82894
2616.80246	0.82945
2614.87409	0.82992
2612.94571	0.83030
2611.01734	0.83085
2609.08897	0.83167
2607.16059	0.83235
2605.23222	0.83274
2603.30385	0.83308
2601.37548	0.83348
2599.44710	0.83380
2597.51873	0.83418
2595.59036	0.83480
2593.66198	0.83553
2591.73361	0.83634
2589.80524	0.83717
2587.87686	0.83781
2585.94849	0.83818
2584.02012	0.83851
2582.09174	0.83906
2580.16337	0.83986
2578.23500	0.84066
2576.30662	0.84117
2574.37825	0.84157
2572.44988	0.84221
2570.52150	0.84296
2568.59313	0.84339
2566.66476	0.84362
2564.73638	0.84419
2562.80801	0.84521
2560.87964	0.84625
2558.95126	0.84708
2557.02289	0.84790
2555.09452	0.84860
2553.16614	0.84893
2551.23777	0.84904
2549.30940	0.84934
2547.38103	0.85021
2545.45265	0.85137
2543.52428	0.85228
2541.59591	0.85306
2539.66753	0.85378
2537.73916	0.85413
2535.81079	0.85418
2533.88241	0.85453
2531.95404	0.85546
2530.02567	0.85661
2528.09729	0.85739
2526.16892	0.85775
2524.24055	0.85825
2522.31217	0.85895
2520.38380	0.85945
2518.45543	0.85984
2516.52705	0.86039
2514.59868	0.86118
2512.67031	0.86181
2510.74193	0.86221
2508.81356	0.86299
2506.88519	0.86408
2504.95681	0.86483
2503.02844	0.86509
2501.10007	0.86539
2499.17169	0.86623
2497.24332	0.86716
2495.31495	0.86759
2493.38657	0.86781
2491.45820	0.86819
2489.52983	0.86867
2487.60146	0.86927
2485.67308	0.86989
2483.74471	0.87024
2481.81634	0.87047
2479.88796	0.87127
2477.95959	0.87270
2476.03122	0.87388
2474.10284	0.87443
2472.17447	0.87462
2470.24610	0.87480
2468.31772	0.87525
2466.38935	0.87600
2464.46098	0.87689
2462.53260	0.87767
2460.60423	0.87816
2458.67586	0.87873
2456.74748	0.87973
2454.81911	0.88080
2452.89074	0.88158
2450.96236	0.88230
2449.03399	0.88287
2447.10562	0.88312
2445.17724	0.88354
2443.24887	0.88428
2441.32050	0.88494
2439.39212	0.88541
2437.46375	0.88589
2435.53538	0.88650
2433.60700	0.88732
2431.67863	0.88835
2429.75026	0.88924
2427.82189	0.88981
2425.89351	0.89027
2423.96514	0.89082
2422.03677	0.89153
2420.10839	0.89238
2418.18002	0.89331
2416.25165	0.89417
2414.32327	0.89499
2412.39490	0.89588
2410.46653	0.89644
2408.53815	0.89653
2406.60978	0.89661
2404.68141	0.89697
2402.75303	0.89764
2400.82466	0.89871
2398.89629	0.90006
2396.96791	0.90125
2395.03954	0.90187
2393.11117	0.90221
2391.18279	0.90279
2389.25442	0.90362
2387.32605	0.90466
2385.39767	0.90606
2383.46930	0.90769
2381.54093	0.90919
2379.61255	0.91068
2377.68418	0.91242
2375.75581	0.91479
2373.82744	0.91834
2371.89906	0.92278
2369.97069	0.92709
2368.04232	0.93117
2366.11394	0.93541
2364.18557	0.93967
2362.25720	0.94323
2360.32882	0.94493
2358.40045	0.94396
2356.47208	0.94108
2354.54370	0.93763
2352.61533	0.93431
2350.68696	0.93178
2348.75858	0.93060
2346.83021	0.93129
2344.90184	0.93413
2342.97346	0.93754
2341.04509	0.93906
2339.11672	0.93924
2337.18834	0.93962
2335.25997	0.93965
2333.33160	0.93866
2331.40322	0.93769
2329.47485	0.93773
2327.54648	0.93806
2325.61810	0.93829
2323.68973	0.93862
2321.76136	0.93806
2319.83298	0.93677
2317.90461	0.93604
2315.97624	0.93551
2314.04787	0.93502
2312.11949	0.93550
2310.19112	0.93648
2308.26275	0.93653
2306.33437	0.93574
2304.40600	0.93535
2302.47763	0.93583
2300.54925	0.93660
2298.62088	0.93724
2296.69251	0.93765
2294.76413	0.93769
2292.83576	0.93763
2290.90739	0.93772
2288.97901	0.93801
2287.05064	0.93830
2285.12227	0.93840
2283.19389	0.93848
2281.26552	0.93876
2279.33715	0.93948
2277.40877	0.94057
2275.48040	0.94140
2273.55203	0.94185
2271.62365	0.94254
2269.69528	0.94353
2267.76691	0.94415
2265.83853	0.94433
2263.91016	0.94469
2261.98179	0.94516
2260.05342	0.94542
2258.12504	0.94579
2256.19667	0.94657
2254.26830	0.94731
2252.33992	0.94771
2250.41155	0.94807
2248.48318	0.94864
2246.55480	0.94922
2244.62643	0.94974
2242.69806	0.95039
2240.76968	0.95098
2238.84131	0.95128
2236.91294	0.95162
2234.98456	0.95218
2233.05619	0.95286
2231.12782	0.95354
2229.19944	0.95410
2227.27107	0.95464
2225.34270	0.95535
2223.41432	0.95604
2221.48595	0.95638
2219.55758	0.95665
2217.62920	0.95723
2215.70083	0.95796
2213.77246	0.95860
2211.84408	0.95917
2209.91571	0.95958
2207.98734	0.95993
2206.05896	0.96047
2204.13059	0.96102
2202.20222	0.96144
2200.27385	0.96193
2198.34547	0.96256
2196.41710	0.96321
2194.48873	0.96377
2192.56035	0.96419
2190.63198	0.96444
2188.70361	0.96453
2186.77523	0.96475
2184.84686	0.96542
2182.91849	0.96628
2180.99011	0.96680
2179.06174	0.96728
2177.13337	0.96810
2175.20499	0.96866
2173.27662	0.96861
2171.34825	0.96863
2169.41987	0.96908
2167.49150	0.96969
2165.56313	0.97024
2163.63475	0.97070
2161.70638	0.97111
2159.77801	0.97170
2157.84963	0.97232
2155.92126	0.97255
2153.99289	0.97259
2152.06451	0.97296
2150.13614	0.97362
2148.20777	0.97414
2146.27940	0.97429
2144.35102	0.97432
2142.42265	0.97452
2140.49428	0.97493
2138.56590	0.97540
2136.63753	0.97582
2134.70916	0.97637
2132.78078	0.97705
2130.85241	0.97750
2128.92404	0.97763
2126.99566	0.97783
2125.06729	0.97825
2123.13892	0.97884
2121.21054	0.97956
2119.28217	0.98025
2117.35380	0.98082
2115.42542	0.98114
2113.49705	0.98121
2111.56868	0.98146
2109.64030	0.98199
2107.71193	0.98255
2105.78356	0.98297
2103.85518	0.98305
2101.92681	0.98287
2099.99844	0.98288
2098.07006	0.98331
2096.14169	0.98414
2094.21332	0.98504
2092.28494	0.98543
2090.35657	0.98539
2088.42820	0.98541
2086.49983	0.98581
2084.57145	0.98668
2082.64308	0.98754
2080.71471	0.98784
2078.78633	0.98774
2076.85796	0.98780
2074.92959	0.98813
2073.00121	0.98837
2071.07284	0.98859
2069.14447	0.98900
2067.21609	0.98966
2065.28772	0.99044
2063.35935	0.99090
2061.43097	0.99108
2059.50260	0.99129
2057.57423	0.99146
2055.64585	0.99158
2053.71748	0.99181
2051.78911	0.99209
2049.86073	0.99242
2047.93236	0.99291
2046.00399	0.99321
2044.07561	0.99328
2042.14724	0.99356
2040.21887	0.99387
2038.29049	0.99404
2036.36212	0.99429
2034.43375	0.99476
2032.50538	0.99527
2030.57700	0.99560
2028.64863	0.99569
2026.72026	0.99564
2024.79188	0.99568
2022.86351	0.99607
2020.93514	0.99672
2019.00676	0.99704
2017.07839	0.99691
2015.15002	0.99688
2013.22164	0.99714
2011.29327	0.99735
2009.36490	0.99751
2007.43652	0.99772
2005.50815	0.99785
2003.57978	0.99786
2001.65140	0.99799
1999.72303	0.99822
1997.79466	0.99837
1995.86628	0.99856
1993.93791	0.99892
1992.00954	0.99903
1990.08116	0.99884
1988.15279	0.99889
1986.22442	0.99920
1984.29604	0.99954
1982.36767	0.99964
1980.43930	0.99928
1978.51092	0.99886
1976.58255	0.99877
1974.65418	0.99875
1972.72581	0.99879
1970.79743	0.99924
1968.86906	0.99988
1966.94069	1.00009
1965.01231	0.99973
1963.08394	0.99931
1961.15557	0.99920
1959.22719	0.99935
1957.29882	0.99963
1955.37045	0.99989
1953.44207	1.00007
1951.51370	1.00013
1949.58533	1.00021
1947.65695	1.00055
1945.72858	1.00102
1943.80021	1.00126
1941.87183	1.00108
1939.94346	1.00068
1938.01509	1.00039
1936.08671	1.00018
1934.15834	1.00021
1932.22997	1.00050
1930.30159	1.00045
1928.37322	1.00015
1926.44485	1.00022
1924.51647	1.00070
1922.58810	1.00116
1920.65973	1.00140
1918.73135	1.00135
1916.80298	1.00065
1914.87461	0.99982
1912.94624	0.99976
1911.01786	1.00029
1909.08949	1.00055
1907.16112	1.00012
1905.23274	0.99946
1903.30437	0.99894
1901.37600	0.99857
1899.44762	0.99844
1897.51925	0.99855
1895.59088	0.99854
1893.66250	0.99839
1891.73413	0.99853
1889.80576	0.99858
1887.87738	0.99779
1885.94901	0.99690
1884.02064	0.99659
1882.09226	0.99658
1880.16389	0.99649
1878.23552	0.99611
1876.30714	0.99580
1874.37877	0.99607
1872.45040	0.99679
1870.52202	0.99773
1868.59365	0.99810
1866.66528	0.99724
1864.73690	0.99621
1862.80853	0.99565
1860.88016	0.99522
1858.95179	0.99464
1857.02341	0.99395
1855.09504	0.99344
1853.16667	0.99330
1851.23829	0.99329
1849.30992	0.99343
1847.38155	0.99391
1845.45317	0.99422
1843.52480	0.99351
1841.59643	0.99198
1839.66805	0.99054
1837.73968	0.98959
1835.81131	0.98934
1833.88293	0.98994
1831.95456	0.99123
1830.02619	0.99187
1828.09781	0.99078
1826.16944	0.98949
1824.24107	0.98860
1822.31269	0.98739
1820.38432	0.98620
1818.45595	0.98529
1816.52757	0.98460
1814.59920	0.98441
1812.67083	0.98469
1810.74245	0.98455
1808.81408	0.98352
1806.88571	0.98241
1804.95733	0.98180
1803.02896	0.98178
1801.10059	0.98173
1799.17222	0.98091
1797.24384	0.97979
1795.31547	0.97929
1793.38710	0.97946
1791.45872	0.97844
1789.53035	0.97584
1787.60198	0.97398
1785.67360	0.97322
1783.74523	0.97253
1781.81686	0.97160
1779.88848	0.97030
1777.96011	0.96880
1776.03174	0.96823
1774.10336	0.96877
1772.17499	0.96884
1770.24662	0.96701
1768.31824	0.96440
1766.38987	0.96235
1764.46150	0.96138
1762.53312	0.96065
1760.60475	0.95870
1758.67638	0.95643
1756.74800	0.95461
1754.81963	0.95294
1752.89126	0.95180
1750.96288	0.95053
1749.03451	0.94773
1747.10614	0.94378
1745.17777	0.93997
1743.24939	0.93636
1741.32102	0.93239
1739.39265	0.92823
1737.46427	0.92531
1735.53590	0.92377
1733.60753	0.91972
1731.67915	0.91241
1729.75078	0.90549
1727.82241	0.89909
1725.89403	0.89305
1723.96566	0.88608
1722.03729	0.87885
1720.10891	0.87329
1718.18054	0.86753
1716.25217	0.85668
1714.32379	0.84276
1712.39542	0.82930
1710.46705	0.81531
1708.53867	0.79977
1706.61030	0.77874
1704.68193	0.75261
1702.75355	0.72904
1700.82518	0.70294
1698.89681	0.67307
1696.96843	0.64880
1695.04006	0.62314
1693.11169	0.59916
1691.18331	0.57768
1689.25494	0.55374
1687.32657	0.53170
1685.39820	0.50847
1683.46982	0.47614
1681.54145	0.45055
1679.61308	0.43323
1677.68470	0.41718
1675.75633	0.39883
1673.82796	0.37915
1671.89958	0.36225
1669.97121	0.34411
1668.04284	0.32424
1666.11446	0.30868
1664.18609	0.29343
1662.25772	0.27431
1660.32934	0.25587
1658.40097	0.24136
1656.47260	0.23007
1654.54422	0.22003
1652.61585	0.21115
1650.68748	0.20947
1648.75910	0.21289
1646.83073	0.22122
1644.90236	0.23087
1642.97398	0.23730
1641.04561	0.24145
1639.11724	0.24370
1637.18886	0.24341
1635.26049	0.23928
1633.33212	0.23446
1631.40375	0.23303
1629.47537	0.23770
1627.54700	0.25194
1625.61863	0.27720
1623.69025	0.31714
1621.76188	0.36488
1619.83351	0.40418
1617.90513	0.44371
1615.97676	0.49209
1614.04839	0.53042
1612.12001	0.55852
1610.19164	0.58588
1608.26327	0.61178
1606.33489	0.63274
1604.40652	0.64915
1602.47815	0.66249
1600.54977	0.67261
1598.62140	0.67992
1596.69303	0.68557
1594.76465	0.69012
1592.83628	0.69349
1590.90791	0.69616
1588.97953	0.69787
1587.05116	0.69755
1585.12279	0.69475
1583.19441	0.68992
1581.26604	0.68423
1579.33767	0.67871
1577.40929	0.67136
1575.48092	0.65769
1573.55255	0.64337
1571.62418	0.63136
1569.69580	0.61547
1567.76743	0.59619
1565.83906	0.57783
1563.91068	0.56014
1561.98231	0.54530
1560.05394	0.52705
1558.12556	0.49404
1556.19719	0.47058
1554.26882	0.45618
1552.34044	0.44376
1550.41207	0.43421
1548.48370	0.42782
1546.55532	0.42547
1544.62695	0.42687
1542.69858	0.43035
1540.77020	0.43495
1538.84183	0.43994
1536.91346	0.44367
1534.98508	0.44836
1533.05671	0.45513
1531.12834	0.46116
1529.19996	0.46577
1527.27159	0.47075
1525.34322	0.47584
1523.41484	0.47990
1521.48647	0.48251
1519.55810	0.48346
1517.62972	0.48605
1515.70135	0.49308
1513.77298	0.50427
1511.84461	0.51911
1509.91623	0.53690
1507.98786	0.56173
1506.05949	0.59667
1504.13111	0.62015
1502.20274	0.63596
1500.27437	0.65416
1498.34599	0.67613
1496.41762	0.69805
1494.48925	0.71425
1492.56087	0.72634
1490.63250	0.73905
1488.70413	0.75106
1486.77575	0.75779
1484.84738	0.76114
1482.91901	0.76295
1480.99063	0.76277
1479.06226	0.76006
1477.13389	0.75486
1475.20551	0.74699
1473.27714	0.73523
1471.34877	0.72133
1469.42039	0.71112
1467.49202	0.70436
1465.56365	0.69709
1463.63527	0.68802
1461.70690	0.68094
1459.77853	0.67630
1457.85016	0.66911
1455.92178	0.65742
1453.99341	0.64997
1452.06504	0.64727
1450.13666	0.64710
1448.20829	0.64891
1446.27992	0.65226
1444.35154	0.65682
1442.42317	0.66261
1440.49480	0.66914
1438.56642	0.67649
1436.63805	0.68528
1434.70968	0.69307
1432.78130	0.69958
1430.85293	0.70746
1428.92456	0.71587
1426.99618	0.72219
1425.06781	0.72647
1423.13944	0.72884
1421.21106	0.72948
1419.28269	0.72873
1417.35432	0.72607
1415.42594	0.72293
1413.49757	0.72061
1411.56920	0.71918
1409.64082	0.71852
1407.71245	0.71850
1405.78408	0.71869
1403.85570	0.71870
1401.92733	0.71880
1399.99896	0.71919
1398.07059	0.71946
1396.14221	0.71889
1394.21384	0.71675
1392.28547	0.71368
1390.35709	0.71141
1388.42872	0.71025
1386.50035	0.70989
1384.57197	0.71033
1382.64360	0.71134
1380.71523	0.71276
1378.78685	0.71471
1376.85848	0.71741
1374.93011	0.72066
1373.00173	0.72357
1371.07336	0.72637
1369.14499	0.73060
1367.21661	0.73631
1365.28824	0.74230
1363.35987	0.74812
1361.43149	0.75264
1359.50312	0.75515
1357.57475	0.75671
1355.64637	0.75742
1353.71800	0.75686
1351.78963	0.75577
1349.86125	0.75463
1347.93288	0.75299
1346.00451	0.75082
1344.07614	0.74879
1342.14776	0.74760
1340.21939	0.74675
1338.29102	0.74497
1336.36264	0.74273
1334.43427	0.74098
1332.50590	0.73952
1330.57752	0.73823
1328.64915	0.73741
1326.72078	0.73734
1324.79240	0.73780
1322.86403	0.73787
1320.93566	0.73678
1319.00728	0.73476
1317.07891	0.73280
1315.15054	0.73111
1313.22216	0.72884
1311.29379	0.72612
1309.36542	0.72404
1307.43704	0.72253
1305.50867	0.72117
1303.58030	0.72015
1301.65192	0.71952
1299.72355	0.71937
1297.79518	0.71949
1295.86680	0.71883
1293.93843	0.71687
1292.01006	0.71423
1290.08168	0.71137
1288.15331	0.70800
1286.22494	0.70451
1284.29657	0.70220
1282.36819	0.70145
1280.43982	0.70100
1278.51145	0.69982
1276.58307	0.69831
1274.65470	0.69674
1272.72633	0.69488
1270.79795	0.69332
1268.86958	0.69251
1266.94121	0.69197
1265.01283	0.69135
1263.08446	0.69105
1261.15609	0.69128
1259.22771	0.69149
1257.29934	0.69098
1255.37097	0.68979
1253.44259	0.68853
1251.51422	0.68744
1249.58585	0.68623
1247.65747	0.68461
1245.72910	0.68282
1243.80073	0.68152
1241.87235	0.68061
1239.94398	0.67934
1238.01561	0.67807
1236.08723	0.67848
1234.15886	0.68112
1232.23049	0.68409
1230.30212	0.68675
1228.37374	0.69028
1226.44537	0.69443
1224.51700	0.69839
1222.58862	0.70291
1220.66025	0.70846
1218.73188	0.71409
1216.80350	0.71939
1214.87513	0.72412
1212.94676	0.72733
1211.01838	0.72932
1209.09001	0.73135
1207.16164	0.73356
1205.23326	0.73501
1203.30489	0.73545
1201.37652	0.73641
1199.44814	0.73940
1197.51977	0.74383
1195.59140	0.74757
1193.66302	0.74998
1191.73465	0.75245
1189.80628	0.75535
1187.87790	0.75781
1185.94953	0.75959
1184.02116	0.76098
1182.09278	0.76153
1180.16441	0.76098
1178.23604	0.76018
1176.30766	0.75868
1174.37929	0.75520
1172.45092	0.75133
1170.52255	0.74920
1168.59417	0.74758
1166.66580	0.74504
1164.73743	0.74266
1162.80905	0.74168
1160.88068	0.74262
1158.95231	0.74533
1157.02393	0.74872
1155.09556	0.75201
1153.16719	0.75495
1151.23881	0.75794
1149.31044	0.76191
1147.38207	0.76687
1145.45369	0.77139
1143.52532	0.77426
1141.59695	0.77598
1139.66857	0.77685
1137.74020	0.77630
1135.81183	0.77482
1133.88345	0.77292
1131.95508	0.77052
1130.02671	0.76821
1128.09833	0.76574
1126.16996	0.76232
1124.24159	0.75896
1122.31321	0.75731
1120.38484	0.75746
1118.45647	0.75780
1116.52809	0.75741
1114.59972	0.75707
1112.67135	0.75742
1110.74298	0.75812
1108.81460	0.75885
1106.88623	0.75990
1104.95786	0.76107
1103.02948	0.76160
1101.10111	0.76154
1099.17274	0.76124
1097.24436	0.76100
1095.31599	0.76130
1093.38762	0.76123
1091.45924	0.75969
1089.53087	0.75752
1087.60250	0.75515
1085.67412	0.75162
1083.74575	0.74713
1081.81738	0.74304
1079.88900	0.74025
1077.96063	0.73898
1076.03226	0.73863
1074.10388	0.73895
1072.17551	0.74073
1070.24714	0.74378
1068.31876	0.74706
1066.39039	0.74990
1064.46202	0.75150
1062.53364	0.75209
1060.60527	0.75285
1058.67690	0.75443
1056.74853	0.75692
1054.82015	0.75911
1052.89178	0.75938
1050.96341	0.75830
1049.03503	0.75769
1047.10666	0.75774
1045.17829	0.75742
1043.24991	0.75676
1041.32154	0.75568
1039.39317	0.75339
1037.46479	0.75038
1035.53642	0.74788
1033.60805	0.74624
1031.67967	0.74486
1029.75130	0.74395
1027.82293	0.74424
1025.89455	0.74553
1023.96618	0.74726
1022.03781	0.74874
1020.10943	0.75012
1018.18106	0.75218
1016.25269	0.75438
1014.32431	0.75629
1012.39594	0.75862
1010.46757	0.76176
1008.53919	0.76553
1006.61082	0.76957
1004.68245	0.77308
1002.75407	0.77582
1000.82570	0.77831
998.89733	0.78039
996.96896	0.78185
995.04058	0.78295
993.11221	0.78403
991.18384	0.78528
989.25546	0.78631
987.32709	0.78703
985.39872	0.78777
983.47034	0.78852
981.54197	0.78956
979.61360	0.79093
977.68522	0.79218
975.75685	0.79325
973.82848	0.79402
971.90010	0.79455
969.97173	0.79556
968.04336	0.79714
966.11498	0.79833
964.18661	0.79852
962.25824	0.79816
960.32986	0.79785
958.40149	0.79755
956.47312	0.79692
954.54474	0.79613
952.61637	0.79618
950.68800	0.79741
948.75962	0.79852
946.83125	0.79868
944.90288	0.79910
942.97451	0.80036
941.04613	0.80081
939.11776	0.80019
937.18939	0.80042
935.26101	0.80119
933.33264	0.80112
931.40427	0.80081
929.47589	0.80043
927.54752	0.79986
925.61915	0.80060
923.69077	0.80277
921.76240	0.80390
919.83403	0.80308
917.90565	0.80201
915.97728	0.80194
914.04891	0.80233
912.12053	0.80262
910.19216	0.80338
908.26379	0.80453
906.33541	0.80506
904.40704	0.80481
902.47867	0.80447
900.55029	0.80488
898.62192	0.80621
896.69355	0.80734
894.76517	0.80727
892.83680	0.80623
890.90843	0.80515
888.98005	0.80433
887.05168	0.80377
885.12331	0.80443
883.19494	0.80604
881.26656	0.80648
879.33819	0.80511
877.40982	0.80376
875.48144	0.80342
873.55307	0.80322
871.62470	0.80340
869.69632	0.80508
867.76795	0.80682
865.83958	0.80677
863.91120	0.80631
861.98283	0.80673
860.05446	0.80721
858.12608	0.80737
856.19771	0.80688
854.26934	0.80537
852.34096	0.80440
850.41259	0.80506
848.48422	0.80520
846.55584	0.80362
844.62747	0.80264
842.69910	0.80337
840.77072	0.80387
838.84235	0.80318
836.91398	0.80210
834.98560	0.80106
833.05723	0.80013
831.12886	0.79943
829.20049	0.79902
827.27211	0.79885
825.34374	0.79868
823.41537	0.79834
821.48699	0.79792
819.55862	0.79768
817.63025	0.79725
815.70187	0.79636
813.77350	0.79593
811.84513	0.79586
809.91675	0.79588
807.98838	0.79679
806.06001	0.79801
804.13163	0.79760
802.20326	0.79554
800.27489	0.79395
798.34651	0.79285
796.41814	0.79070
794.48977	0.78800
792.56139	0.78575
790.63302	0.78347
788.70465	0.78068
786.77627	0.77885
784.84790	0.77938
782.91953	0.78131
780.99115	0.78258
779.06278	0.78227
777.13441	0.78139
775.20603	0.78066
773.27766	0.77995
771.34929	0.77935
769.42092	0.77874
767.49254	0.77833
765.56417	0.77789
763.63580	0.77649
761.70742	0.77448
759.77905	0.77275
757.85068	0.77127
755.92230	0.77071
753.99393	0.77114
752.06556	0.77021
750.13718	0.76737
748.20881	0.76524
746.28044	0.76442
744.35206	0.76376
742.42369	0.76363
740.49532	0.76329
738.56694	0.76055
736.63857	0.75729
734.71020	0.75667
732.78182	0.75760
730.85345	0.75773
728.92508	0.75613
726.99670	0.75280
725.06833	0.74907
723.13996	0.74620
721.21158	0.74344
719.28321	0.74045
717.35484	0.73816
715.42647	0.73668
713.49809	0.73635
711.56972	0.73657
709.64135	0.73506
707.71297	0.73215
705.78460	0.73014
703.85623	0.72874
701.92785	0.72617
699.99948	0.72343
698.07111	0.72229
696.14273	0.72273
694.21436	0.72427
692.28599	0.72579
690.35761	0.72641
688.42924	0.72586
686.50087	0.72417
684.57249	0.72259
682.64412	0.72221
680.71575	0.72291
678.78737	0.72338
676.85900	0.72252
674.93063	0.72110
673.00225	0.72024
671.07388	0.72090
669.14551	0.72251
667.21713	0.71960
665.28876	0.71443
663.36039	0.71188
661.43201	0.71067
659.50364	0.70980
657.57527	0.71003
655.64690	0.71131
653.71852	0.71203
651.79015	0.71128
649.86178	0.71032
647.93340	0.71121
646.00503	0.71309
644.07666	0.71251
642.14828	0.71055
640.21991	0.71061
638.29154	0.71076
636.36316	0.71010
634.43479	0.71102
632.50642	0.71205
630.57804	0.71257
628.64967	0.71502
626.72130	0.71688
624.79292	0.71586
622.86455	0.71414
620.93618	0.71229
619.00780	0.71260
617.07943	0.71490
615.15106	0.71333
613.22268	0.70823
611.29431	0.70505
609.36594	0.71009
607.43756	0.72172
605.50919	0.72944
603.58082	0.73298
601.65244	0.73445
599.72407	0.72932
