3997.51769	0.13822
3995.58931	0.13876
3993.66094	0.13875
3991.73257	0.13855
3989.80419	0.13898
3987.87582	0.13970
3985.94745	0.14017
3984.01907	0.14057
3982.09070	0.14082
3980.16233	0.14065
3978.23396	0.14055
3976.30558	0.14085
3974.37721	0.14103
3972.44884	0.14102
3970.52046	0.14123
3968.59209	0.14163
3966.66372	0.14207
3964.73534	0.14242
3962.80697	0.14278
3960.87860	0.14338
3958.95022	0.14388
3957.02185	0.14422
3955.09348	0.14467
3953.16510	0.14487
3951.23673	0.14514
3949.30836	0.14627
3947.37998	0.14721
3945.45161	0.14711
3943.52324	0.14720
3941.59486	0.14794
3939.66649	0.14863
3937.73812	0.14899
3935.80974	0.14911
3933.88137	0.14952
3931.95300	0.15040
3930.02462	0.15108
3928.09625	0.15125
3926.16788	0.15149
3924.23950	0.15215
3922.31113	0.15282
3920.38276	0.15328
3918.45439	0.15377
3916.52601	0.15423
3914.59764	0.15454
3912.66927	0.15472
3910.74089	0.15488
3908.81252	0.15531
3906.88415	0.15639
3904.95577	0.15805
3903.02740	0.15916
3901.09903	0.15920
3899.17065	0.15906
3897.24228	0.15926
3895.31391	0.15962
3893.38553	0.15997
3891.45716	0.16042
3889.52879	0.16108
3887.60041	0.16177
3885.67204	0.16212
3883.74367	0.16228
3881.81529	0.16290
3879.88692	0.16374
3877.95855	0.16428
3876.03017	0.16486
3874.10180	0.16558
3872.17343	0.16648
3870.24505	0.16747
3868.31668	0.16737
3866.38831	0.16663
3864.45994	0.16686
3862.53156	0.16792
3860.60319	0.16866
3858.67482	0.16892
3856.74644	0.16913
3854.81807	0.16984
3852.88970	0.17079
3850.96132	0.17080
3849.03295	0.17058
3847.10458	0.17063
3845.17620	0.17093
3843.24783	0.17158
3841.31946	0.17244
3839.39108	0.17304
3837.46271	0.17325
3835.53434	0.17318
3833.60596	0.17310
3831.67759	0.17317
3829.74922	0.17337
3827.82084	0.17385
3825.89247	0.17429
3823.96410	0.17445
3822.03572	0.17472
3820.10735	0.17497
3818.17898	0.17508
3816.25060	0.17520
3814.32223	0.17497
3812.39386	0.17490
3810.46548	0.17547
3808.53711	0.17613
3806.60874	0.17604
3804.68037	0.17570
3802.75199	0.17612
3800.82362	0.17666
3798.89525	0.17676
3796.96687	0.17679
3795.03850	0.17618
3793.11013	0.17530
3791.18175	0.17530
3789.25338	0.17602
3787.32501	0.17644
3785.39663	0.17616
3783.46826	0.17580
3781.53989	0.17583
3779.61151	0.17613
3777.68314	0.17621
3775.75477	0.17596
3773.82639	0.17594
3771.89802	0.17644
3769.96965	0.17696
3768.04127	0.17669
3766.11290	0.17613
3764.18453	0.17605
3762.25615	0.17621
3760.32778	0.17621
3758.39941	0.17601
3756.47103	0.17585
3754.54266	0.17583
3752.61429	0.17613
3750.68591	0.17644
3748.75754	0.17617
3746.82917	0.17569
3744.90080	0.17514
3742.97242	0.17460
3741.04405	0.17412
3739.11568	0.17385
3737.18730	0.17385
3735.25893	0.17350
3733.33056	0.17245
3731.40218	0.17146
3729.47381	0.17091
3727.54544	0.17037
3725.61706	0.16977
3723.68869	0.16946
3721.76032	0.16916
3719.83194	0.16835
3717.90357	0.16716
3715.97520	0.16600
3714.04682	0.16504
3712.11845	0.16415
3710.19008	0.16254
3708.26170	0.16035
3706.33333	0.15844
3704.40496	0.15699
3702.47658	0.15555
3700.54821	0.15318
3698.61984	0.15017
3696.69146	0.14719
3694.76309	0.14439
3692.83472	0.14193
3690.90635	0.13936
3688.97797	0.13557
3687.04960	0.13074
3685.12123	0.12613
3683.19285	0.12157
3681.26448	0.11688
3679.33611	0.11251
3677.40773	0.10824
3675.47936	0.10248
3673.55099	0.09643
3671.62261	0.09150
3669.69424	0.08519
3667.76587	0.07855
3665.83749	0.07346
3663.90912	0.06868
3661.98075	0.06376
3660.05237	0.05915
3658.12400	0.05490
3656.19563	0.05055
3654.26725	0.04666
3652.33888	0.04362
3650.41051	0.04004
3648.48213	0.03510
3646.55376	0.03101
3644.62539	0.02834
3642.69701	0.02619
3640.76864	0.02421
3638.84027	0.02200
3636.91189	0.01937
3634.98352	0.01683
3633.05515	0.01497
3631.12678	0.01392
3629.19840	0.01285
3627.27003	0.01110
3625.34166	0.00958
3623.41328	0.00841
3621.48491	0.00725
3619.55654	0.00632
3617.62816	0.00596
3615.69979	0.00556
3613.77142	0.00477
3611.84304	0.00409
3609.91467	0.00387
3607.98630	0.00364
3606.05792	0.00328
3604.12955	0.00288
3602.20118	0.00237
3600.27280	0.00199
3598.34443	0.00175
3596.41606	0.00158
3594.48768	0.00170
3592.55931	0.00146
3590.63094	0.00087
3588.70256	0.00121
3586.77419	0.00185
3584.84582	0.00171
3582.91744	0.00122
3580.98907	0.00073
3579.06070	0.00032
3577.13233	0.00024
3575.20395	0.00034
3573.27558	0.00037
3571.34721	0.00071
3569.41883	0.00133
3567.49046	0.00186
3565.56209	0.00165
3563.63371	0.00124
3561.70534	0.00068
3559.77697	0.00055
3557.84859	0.00065
3555.92022	0.00051
3553.99185	0.00036
3552.06347	0.00035
3550.13510	0.00051
3548.20673	0.00046
3546.27835	0.00042
3544.34998	0.00064
3542.42161	0.00091
3540.49323	0.00092
3538.56486	0.00081
3536.63649	0.00045
3534.70811	0.00079
3532.77974	0.00087
3530.85137	0.00094
3528.92299	0.00114
3526.99462	0.00100
3525.06625	0.00045
3523.13787	0.00041
3521.20950	0.00058
3519.28113	0.00080
3517.35276	0.00076
3515.42438	0.00036
3513.49601	0.00069
3511.56764	0.00047
3509.63926	0.00012
3507.71089	0.00028
3505.78252	0.00078
3503.85414	0.00143
3501.92577	0.00165
3499.99740	0.00115
3498.06902	0.00071
3496.14065	0.00077
3494.21228	0.00038
3492.28390	0.00047
3490.35553	0.00048
3488.42716	0.00019
3486.49878	0.00037
3484.57041	0.00055
3482.64204	0.00053
3480.71366	0.00042
3478.78529	0.00051
3476.85692	0.00050
3474.92854	0.00077
3473.00017	0.00124
3471.07180	0.00115
3469.14342	0.00076
3467.21505	0.00100
3465.28668	0.00131
3463.35831	0.00135
3461.42993	0.00141
3459.50156	0.00119
3457.57319	0.00055
3455.64481	0.00030
3453.71644	0.00065
3451.78807	0.00071
3449.85969	0.00059
3447.93132	0.00075
3446.00295	0.00103
3444.07457	0.00108
3442.14620	0.00082
3440.21783	0.00092
3438.28945	0.00098
3436.36108	0.00060
3434.43271	0.00062
3432.50433	0.00055
3430.57596	0.00057
3428.64759	0.00055
3426.71921	0.00052
3424.79084	0.00076
3422.86247	0.00062
3420.93409	0.00054
3419.00572	0.00100
3417.07735	0.00108
3415.14897	0.00106
3413.22060	0.00119
3411.29223	0.00095
3409.36385	0.00049
3407.43548	0.00034
3405.50711	0.00058
3403.57874	0.00056
3401.65036	0.00061
3399.72199	0.00043
3397.79362	0.00031
3395.86524	0.00038
3393.93687	0.00038
3392.00850	0.00068
3390.08012	0.00079
3388.15175	0.00067
3386.22338	0.00068
3384.29500	0.00071
3382.36663	0.00055
3380.43826	0.00066
3378.50988	0.00087
3376.58151	0.00125
3374.65314	0.00130
3372.72476	0.00086
3370.79639	0.00045
3368.86802	0.00065
3366.93964	0.00126
3365.01127	0.00142
3363.08290	0.00098
3361.15452	0.00064
3359.22615	0.00049
3357.29778	0.00086
3355.36940	0.00106
3353.44103	0.00099
3351.51266	0.00067
3349.58428	0.00029
3347.65591	0.00075
3345.72754	0.00077
3343.79917	0.00054
3341.87079	0.00043
3339.94242	0.00060
3338.01405	0.00071
3336.08567	0.00072
3334.15730	0.00070
3332.22893	0.00062
3330.30055	0.00094
3328.37218	0.00118
3326.44381	0.00109
3324.51543	0.00101
3322.58706	0.00092
3320.65869	0.00060
3318.73031	0.00035
3316.80194	0.00045
3314.87357	0.00067
3312.94519	0.00064
3311.01682	0.00051
3309.08845	0.00028
3307.16007	0.00109
3305.23170	0.00158
3303.30333	0.00148
3301.37495	0.00111
3299.44658	0.00074
3297.51821	0.00035
3295.58983	0.00020
3293.66146	0.00047
3291.73309	0.00054
3289.80472	0.00037
3287.87634	0.00070
3285.94797	0.00090
3284.01960	0.00068
3282.09122	0.00054
3280.16285	0.00042
3278.23448	0.00056
3276.30610	0.00055
3274.37773	0.00073
3272.44936	0.00068
3270.52098	0.00059
3268.59261	0.00052
3266.66424	0.00035
3264.73586	0.00055
3262.80749	0.00105
3260.87912	0.00101
3258.95074	0.00106
3257.02237	0.00112
3255.09400	0.00074
3253.16562	0.00061
3251.23725	0.00096
3249.30888	0.00073
3247.38050	0.00054
3245.45213	0.00056
3243.52376	0.00053
3241.59538	0.00061
3239.66701	0.00055
3237.73864	0.00047
3235.81026	0.00049
3233.88189	0.00070
3231.95352	0.00099
3230.02515	0.00142
3228.09677	0.00127
3226.16840	0.00074
3224.24003	0.00057
3222.31165	0.00090
3220.38328	0.00103
3218.45491	0.00083
3216.52653	0.00054
3214.59816	0.00028
3212.66979	0.00065
3210.74141	0.00125
3208.81304	0.00140
3206.88467	0.00088
3204.95629	0.00061
3203.02792	0.00070
3201.09955	0.00054
3199.17117	0.00052
3197.24280	0.00095
3195.31443	0.00100
3193.38605	0.00054
3191.45768	0.00082
3189.52931	0.00132
3187.60093	0.00121
3185.67256	0.00087
3183.74419	0.00058
3181.81581	0.00091
3179.88744	0.00099
3177.95907	0.00113
3176.03070	0.00128
3174.10232	0.00126
3172.17395	0.00091
3170.24558	0.00097
3168.31720	0.00094
3166.38883	0.00096
3164.46046	0.00102
3162.53208	0.00073
3160.60371	0.00055
3158.67534	0.00053
3156.74696	0.00044
3154.81859	0.00051
3152.89022	0.00077
3150.96184	0.00116
3149.03347	0.00121
3147.10510	0.00091
3145.17672	0.00050
3143.24835	0.00049
3141.31998	0.00080
3139.39160	0.00071
3137.46323	0.00053
3135.53486	0.00072
3133.60648	0.00105
3131.67811	0.00132
3129.74974	0.00137
3127.82136	0.00101
3125.89299	0.00046
3123.96462	0.00017
3122.03624	0.00056
3120.10787	0.00081
3118.17950	0.00057
3116.25113	0.00034
3114.32275	0.00054
3112.39438	0.00052
3110.46601	0.00070
3108.53763	0.00091
3106.60926	0.00084
3104.68089	0.00072
3102.75251	0.00104
3100.82414	0.00111
3098.89577	0.00096
3096.96739	0.00111
3095.03902	0.00137
3093.11065	0.00132
3091.18227	0.00102
3089.25390	0.00071
3087.32553	0.00091
3085.39715	0.00075
3083.46878	0.00049
3081.54041	0.00061
3079.61203	0.00099
3077.68366	0.00087
3075.75529	0.00101
3073.82691	0.00125
3071.89854	0.00120
3069.97017	0.00110
3068.04179	0.00106
3066.11342	0.00131
3064.18505	0.00117
3062.25668	0.00083
3060.32830	0.00070
3058.39993	0.00103
3056.47156	0.00129
3054.54318	0.00122
3052.61481	0.00103
3050.68644	0.00077
3048.75806	0.00077
3046.82969	0.00080
3044.90132	0.00077
3042.97294	0.00094
3041.04457	0.00093
3039.11620	0.00086
3037.18782	0.00072
3035.25945	0.00051
3033.33108	0.00077
3031.40270	0.00074
3029.47433	0.00068
3027.54596	0.00048
3025.61758	0.00037
3023.68921	0.00055
3021.76084	0.00072
3019.83246	0.00055
3017.90409	0.00047
3015.97572	0.00044
3014.04734	0.00039
3012.11897	0.00039
3010.19060	0.00045
3008.26222	0.00057
3006.33385	0.00057
3004.40548	0.00063
3002.47711	0.00080
3000.54873	0.00101
2998.62036	0.00123
2996.69199	0.00124
2994.76361	0.00102
2992.83524	0.00074
2990.90687	0.00065
2988.97849	0.00081
2987.05012	0.00120
2985.12175	0.00130
2983.19337	0.00074
2981.26500	0.00060
2979.33663	0.00105
2977.40825	0.00126
2975.47988	0.00131
2973.55151	0.00112
2971.62313	0.00082
2969.69476	0.00111
2967.76639	0.00116
2965.83801	0.00119
2963.90964	0.00135
2961.98127	0.00135
2960.05289	0.00170
2958.12452	0.00188
2956.19615	0.00151
2954.26777	0.00140
2952.33940	0.00139
2950.41103	0.00141
2948.48266	0.00120
2946.55428	0.00098
2944.62591	0.00065
2942.69754	0.00069
2940.76916	0.00103
2938.84079	0.00110
2936.91242	0.00110
2934.98404	0.00073
2933.05567	0.00086
2931.12730	0.00051
2929.19892	0.00060
2927.27055	0.00067
2925.34218	0.00070
2923.41380	0.00052
2921.48543	0.00049
2919.55706	0.00073
2917.62868	0.00090
2915.70031	0.00083
2913.77194	0.00068
2911.84356	0.00055
2909.91519	0.00074
2907.98682	0.00108
2906.05844	0.00099
2904.13007	0.00056
2902.20170	0.00098
2900.27332	0.00145
2898.34495	0.00152
2896.41658	0.00110
2894.48820	0.00058
2892.55983	0.00050
2890.63146	0.00068
2888.70309	0.00061
2886.77471	0.00041
2884.84634	0.00046
2882.91797	0.00050
2880.98959	0.00060
2879.06122	0.00076
2877.13285	0.00079
2875.20447	0.00086
2873.27610	0.00111
2871.34773	0.00136
2869.41935	0.00152
2867.49098	0.00136
2865.56261	0.00097
2863.63423	0.00073
2861.70586	0.00078
2859.77749	0.00053
2857.84911	0.00068
2855.92074	0.00072
2853.99237	0.00078
2852.06399	0.00086
2850.13562	0.00106
2848.20725	0.00115
2846.27887	0.00125
2844.35050	0.00146
2842.42213	0.00174
2840.49375	0.00187
2838.56538	0.00175
2836.63701	0.00158
2834.70863	0.00160
2832.78026	0.00165
2830.85189	0.00166
2828.92352	0.00183
2826.99514	0.00213
2825.06677	0.00242
2823.13840	0.00258
2821.21002	0.00252
2819.28165	0.00232
2817.35328	0.00231
2815.42490	0.00235
2813.49653	0.00236
2811.56816	0.00253
2809.63978	0.00291
2807.71141	0.00334
2805.78304	0.00382
2803.85466	0.00428
2801.92629	0.00438
2799.99792	0.00423
2798.06954	0.00437
2796.14117	0.00474
2794.21280	0.00507
2792.28442	0.00531
2790.35605	0.00552
2788.42768	0.00577
2786.49930	0.00591
2784.57093	0.00598
2782.64256	0.00613
2780.71418	0.00635
2778.78581	0.00661
2776.85744	0.00697
2774.92907	0.00729
2773.00069	0.00744
2771.07232	0.00756
2769.14395	0.00772
2767.21557	0.00785
2765.28720	0.00781
2763.35883	0.00770
2761.43045	0.00764
2759.50208	0.00766
2757.57371	0.00789
2755.64533	0.00835
2753.71696	0.00889
2751.78859	0.00931
2749.86021	0.00954
2747.93184	0.00966
2746.00347	0.00969
2744.07509	0.00976
2742.14672	0.01008
2740.21835	0.01048
2738.28997	0.01070
2736.36160	0.01075
2734.43323	0.01066
2732.50485	0.01059
2730.57648	0.01083
2728.64811	0.01133
2726.71973	0.01176
2724.79136	0.01205
2722.86299	0.01234
2720.93461	0.01273
2719.00624	0.01310
2717.07787	0.01335
2715.14950	0.01346
2713.22112	0.01345
2711.29275	0.01352
2709.36438	0.01395
2707.43600	0.01463
2705.50763	0.01518
2703.57926	0.01542
2701.65088	0.01560
2699.72251	0.01602
2697.79414	0.01651
2695.86576	0.01668
2693.93739	0.01675
2692.00902	0.01708
2690.08064	0.01744
2688.15227	0.01753
2686.22390	0.01762
2684.29552	0.01816
2682.36715	0.01889
2680.43878	0.01929
2678.51040	0.01940
2676.58203	0.01965
2674.65366	0.02013
2672.72528	0.02065
2670.79691	0.02102
2668.86854	0.02126
2666.94016	0.02145
2665.01179	0.02159
2663.08342	0.02179
2661.15505	0.02204
2659.22667	0.02221
2657.29830	0.02243
2655.36993	0.02287
2653.44155	0.02323
2651.51318	0.02316
2649.58481	0.02301
2647.65643	0.02322
2645.72806	0.02359
2643.79969	0.02388
2641.87131	0.02393
2639.94294	0.02361
2638.01457	0.02330
2636.08619	0.02349
2634.15782	0.02410
2632.22945	0.02472
2630.30107	0.02505
2628.37270	0.02513
2626.44433	0.02533
2624.51595	0.02573
2622.58758	0.02598
2620.65921	0.02602
2618.73083	0.02622
2616.80246	0.02672
2614.87409	0.02715
2612.94571	0.02717
2611.01734	0.02713
2609.08897	0.02743
2607.16059	0.02785
2605.23222	0.02833
2603.30385	0.02890
2601.37548	0.02932
2599.44710	0.02952
2597.51873	0.02967
2595.59036	0.02999
2593.66198	0.03061
2591.73361	0.03127
2589.80524	0.03143
2587.87686	0.03124
2585.94849	0.03123
2584.02012	0.03139
2582.09174	0.03164
2580.16337	0.03205
2578.23500	0.03257
2576.30662	0.03330
2574.37825	0.03407
2572.44988	0.03462
2570.52150	0.03500
2568.59313	0.03521
2566.66476	0.03543
2564.73638	0.03598
2562.80801	0.03674
2560.87964	0.03747
2558.95126	0.03837
2557.02289	0.03939
2555.09452	0.04019
2553.16614	0.04071
2551.23777	0.04111
2549.30940	0.04148
2547.38103	0.04189
2545.45265	0.04235
2543.52428	0.04282
2541.59591	0.04333
2539.66753	0.04379
2537.73916	0.04401
2535.81079	0.04402
2533.88241	0.04398
2531.95404	0.04412
2530.02567	0.04460
2528.09729	0.04512
2526.16892	0.04542
2524.24055	0.04558
2522.31217	0.04585
2520.38380	0.04643
2518.45543	0.04700
2516.52705	0.04726
2514.59868	0.04748
2512.67031	0.04792
2510.74193	0.04844
2508.81356	0.04881
2506.88519	0.04904
2504.95681	0.04945
2503.02844	0.05005
2501.10007	0.05073
2499.17169	0.05146
2497.24332	0.05216
2495.31495	0.05277
2493.38657	0.05321
2491.45820	0.05348
2489.52983	0.05399
2487.60146	0.05503
2485.67308	0.05610
2483.74471	0.05667
2481.81634	0.05705
2479.88796	0.05753
2477.95959	0.05781
2476.03122	0.05801
2474.10284	0.05861
2472.17447	0.05959
2470.24610	0.06049
2468.31772	0.06102
2466.38935	0.06143
2464.46098	0.06201
2462.53260	0.06266
2460.60423	0.06347
2458.67586	0.06447
2456.74748	0.06541
2454.81911	0.06636
2452.89074	0.06735
2450.96236	0.06802
2449.03399	0.06837
2447.10562	0.06880
2445.17724	0.06956
2443.24887	0.07059
2441.32050	0.07160
2439.39212	0.07232
2437.46375	0.07270
2435.53538	0.07308
2433.60700	0.07390
2431.67863	0.07503
2429.75026	0.07598
2427.82189	0.07656
2425.89351	0.07692
2423.96514	0.07718
2422.03677	0.07740
2420.10839	0.07778
2418.18002	0.07835
2416.25165	0.07885
2414.32327	0.07924
2412.39490	0.07986
2410.46653	0.08082
2408.53815	0.08186
2406.60978	0.08273
2404.68141	0.08326
2402.75303	0.08368
2400.82466	0.08437
2398.89629	0.08537
2396.96791	0.08649
2395.03954	0.08743
2393.11117	0.08821
2391.18279	0.08904
2389.25442	0.08976
2387.32605	0.09021
2385.39767	0.09073
2383.46930	0.09153
2381.54093	0.09238
2379.61255	0.09322
2377.68418	0.09424
2375.75581	0.09534
2373.82744	0.09635
2371.89906	0.09735
2369.97069	0.09844
2368.04232	0.09936
2366.11394	0.10041
2364.18557	0.10177
2362.25720	0.10283
2360.32882	0.10391
2358.40045	0.10514
2356.47208	0.10551
2354.54370	0.10518
2352.61533	0.10514
2350.68696	0.10520
2348.75858	0.10529
2346.83021	0.10603
2344.90184	0.10718
2342.97346	0.10742
2341.04509	0.10688
2339.11672	0.10635
2337.18834	0.10610
2335.25997	0.10656
2333.33160	0.10755
2331.40322	0.10838
2329.47485	0.10937
2327.54648	0.11057
2325.61810	0.11086
2323.68973	0.11056
2321.76136	0.11077
2319.83298	0.11120
2317.90461	0.11150
2315.97624	0.11194
2314.04787	0.11266
2312.11949	0.11366
2310.19112	0.11482
2308.26275	0.11586
2306.33437	0.11663
2304.40600	0.11719
2302.47763	0.11773
2300.54925	0.11847
2298.62088	0.11945
2296.69251	0.12030
2294.76413	0.12082
2292.83576	0.12127
2290.90739	0.12178
2288.97901	0.12215
2287.05064	0.12240
2285.12227	0.12281
2283.19389	0.12334
2281.26552	0.12366
2279.33715	0.12383
2277.40877	0.12391
2275.48040	0.12399
2273.55203	0.12428
2271.62365	0.12474
2269.69528	0.12499
2267.76691	0.12478
2265.83853	0.12441
2263.91016	0.12447
2261.98179	0.12491
2260.05342	0.12523
2258.12504	0.12533
2256.19667	0.12549
2254.26830	0.12581
2252.33992	0.12630
2250.41155	0.12690
2248.48318	0.12759
2246.55480	0.12822
2244.62643	0.12867
2242.69806	0.12903
2240.76968	0.12944
2238.84131	0.12975
2236.91294	0.12993
2234.98456	0.13014
2233.05619	0.13040
2231.12782	0.13064
2229.19944	0.13084
2227.27107	0.13102
2225.34270	0.13117
2223.41432	0.13116
2221.48595	0.13099
2219.55758	0.13085
2217.62920	0.13095
2215.70083	0.13125
2213.77246	0.13131
2211.84408	0.13113
2209.91571	0.13091
2207.98734	0.13068
2206.05896	0.13051
2204.13059	0.13043
2202.20222	0.13032
2200.27385	0.13023
2198.34547	0.13016
2196.41710	0.12993
2194.48873	0.12968
2192.56035	0.12963
2190.63198	0.12961
2188.70361	0.12950
2186.77523	0.12936
2184.84686	0.12923
2182.91849	0.12918
2180.99011	0.12914
2179.06174	0.12914
2177.13337	0.12925
2175.20499	0.12931
2173.27662	0.12928
2171.34825	0.12924
2169.41987	0.12910
2167.49150	0.12891
2165.56313	0.12879
2163.63475	0.12869
2161.70638	0.12857
2159.77801	0.12840
2157.84963	0.12835
2155.92126	0.12871
2153.99289	0.12927
2152.06451	0.12956
2150.13614	0.12947
2148.20777	0.12931
2146.27940	0.12929
2144.35102	0.12939
2142.42265	0.12961
2140.49428	0.12995
2138.56590	0.13024
2136.63753	0.13035
2134.70916	0.13047
2132.78078	0.13084
2130.85241	0.13143
2128.92404	0.13192
2126.99566	0.13219
2125.06729	0.13245
2123.13892	0.13286
2121.21054	0.13333
2119.28217	0.13378
2117.35380	0.13435
2115.42542	0.13510
2113.49705	0.13573
2111.56868	0.13619
2109.64030	0.13674
2107.71193	0.13733
2105.78356	0.13780
2103.85518	0.13810
2101.92681	0.13833
2099.99844	0.13865
2098.07006	0.13904
2096.14169	0.13942
2094.21332	0.13977
2092.28494	0.14007
2090.35657	0.14031
2088.42820	0.14039
2086.49983	0.14024
2084.57145	0.14003
2082.64308	0.13996
2080.71471	0.13999
2078.78633	0.14004
2076.85796	0.14021
2074.92959	0.14050
2073.00121	0.14073
2071.07284	0.14086
2069.14447	0.14103
2067.21609	0.14140
2065.28772	0.14198
2063.35935	0.14263
2061.43097	0.14323
2059.50260	0.14379
2057.57423	0.14433
2055.64585	0.14495
2053.71748	0.14586
2051.78911	0.14686
2049.86073	0.14755
2047.93236	0.14822
2046.00399	0.14927
2044.07561	0.15040
2042.14724	0.15135
2040.21887	0.15221
2038.29049	0.15302
2036.36212	0.15374
2034.43375	0.15433
2032.50538	0.15488
2030.57700	0.15544
2028.64863	0.15598
2026.72026	0.15645
2024.79188	0.15677
2022.86351	0.15705
2020.93514	0.15754
2019.00676	0.15818
2017.07839	0.15874
2015.15002	0.15918
2013.22164	0.15963
2011.29327	0.16020
2009.36490	0.16079
2007.43652	0.16139
2005.50815	0.16209
2003.57978	0.16279
2001.65140	0.16346
1999.72303	0.16396
1997.79466	0.16418
1995.86628	0.16446
1993.93791	0.16505
1992.00954	0.16558
1990.08116	0.16574
1988.15279	0.16575
1986.22442	0.16575
1984.29604	0.16571
1982.36767	0.16564
1980.43930	0.16555
1978.51092	0.16551
1976.58255	0.16558
1974.65418	0.16576
1972.72581	0.16612
1970.79743	0.16664
1968.86906	0.16709
1966.94069	0.16737
1965.01231	0.16752
1963.08394	0.16769
1961.15557	0.16811
1959.22719	0.16879
1957.29882	0.16950
1955.37045	0.17011
1953.44207	0.17081
1951.51370	0.17179
1949.58533	0.17289
1947.65695	0.17396
1945.72858	0.17507
1943.80021	0.17629
1941.87183	0.17729
1939.94346	0.17796
1938.01509	0.17867
1936.08671	0.17948
1934.15834	0.18029
1932.22997	0.18092
1930.30159	0.18129
1928.37322	0.18167
1926.44485	0.18224
1924.51647	0.18284
1922.58810	0.18330
1920.65973	0.18372
1918.73135	0.18434
1916.80298	0.18502
1914.87461	0.18537
1912.94624	0.18544
1911.01786	0.18555
1909.08949	0.18573
1907.16112	0.18577
1905.23274	0.18573
1903.30437	0.18583
1901.37600	0.18591
1899.44762	0.18586
1897.51925	0.18596
1895.59088	0.18629
1893.66250	0.18658
1891.73413	0.18674
1889.80576	0.18674
1887.87738	0.18658
1885.94901	0.18651
1884.02064	0.18657
1882.09226	0.18671
1880.16389	0.18692
1878.23552	0.18700
1876.30714	0.18692
1874.37877	0.18684
1872.45040	0.18687
1870.52202	0.18704
1868.59365	0.18715
1866.66528	0.18694
1864.73690	0.18640
1862.80853	0.18583
1860.88016	0.18549
1858.95179	0.18527
1857.02341	0.18485
1855.09504	0.18442
1853.16667	0.18428
1851.23829	0.18426
1849.30992	0.18424
1847.38155	0.18413
1845.45317	0.18387
1843.52480	0.18338
1841.59643	0.18275
1839.66805	0.18221
1837.73968	0.18175
1835.81131	0.18135
1833.88293	0.18099
1831.95456	0.18059
1830.02619	0.17998
1828.09781	0.17931
1826.16944	0.17872
1824.24107	0.17786
1822.31269	0.17671
1820.38432	0.17550
1818.45595	0.17418
1816.52757	0.17285
1814.59920	0.17169
1812.67083	0.17049
1810.74245	0.16876
1808.81408	0.16665
1806.88571	0.16462
1804.95733	0.16284
1803.02896	0.16116
1801.10059	0.15902
1799.17222	0.15619
1797.24384	0.15322
1795.31547	0.15051
1793.38710	0.14753
1791.45872	0.14349
1789.53035	0.13947
1787.60198	0.13630
1785.67360	0.13320
1783.74523	0.12980
1781.81686	0.12648
1779.88848	0.12318
1777.96011	0.12008
1776.03174	0.11741
1774.10336	0.11461
1772.17499	0.11104
1770.24662	0.10744
1768.31824	0.10411
1766.38987	0.10061
1764.46150	0.09733
1762.53312	0.09386
1760.60475	0.08975
1758.67638	0.08555
1756.74800	0.08108
1754.81963	0.07675
1752.89126	0.07267
1750.96288	0.06764
1749.03451	0.06167
1747.10614	0.05598
1745.17777	0.05066
1743.24939	0.04572
1741.32102	0.04104
1739.39265	0.03627
1737.46427	0.03222
1735.53590	0.02855
1733.60753	0.02362
1731.67915	0.01880
1729.75078	0.01526
1727.82241	0.01251
1725.89403	0.01041
1723.96566	0.00850
1722.03729	0.00664
1720.10891	0.00521
1718.18054	0.00427
1716.25217	0.00334
1714.32379	0.00247
1712.39542	0.00172
1710.46705	0.00096
1708.53867	0.00031
1706.61030	0.00027
1704.68193	0.00046
1702.75355	0.00083
1700.82518	0.00111
1698.89681	0.00110
1696.96843	0.00080
1695.04006	0.00059
1693.11169	0.00050
1691.18331	0.00055
1689.25494	0.00080
1687.32657	0.00117
1685.39820	0.00143
1683.46982	0.00106
1681.54145	0.00059
1679.61308	0.00068
1677.68470	0.00087
1675.75633	0.00099
1673.82796	0.00102
1671.89958	0.00128
1669.97121	0.00127
1668.04284	0.00054
1666.11446	0.00080
1664.18609	0.00073
1662.25772	0.00067
1660.32934	0.00060
1658.40097	0.00059
1656.47260	0.00059
1654.54422	0.00082
1652.61585	0.00077
1650.68748	0.00040
1648.75910	0.00028
1646.83073	0.00059
1644.90236	0.00069
1642.97398	0.00041
1641.04561	0.00041
1639.11724	0.00074
1637.18886	0.00072
1635.26049	0.00040
1633.33212	0.00037
1631.40375	0.00033
1629.47537	0.00031
1627.54700	0.00043
1625.61863	0.00086
1623.69025	0.00115
1621.76188	0.00090
1619.83351	0.00053
1617.90513	0.00044
1615.97676	0.00051
1614.04839	0.00051
1612.12001	0.00036
1610.19164	0.00051
1608.26327	0.00059
1606.33489	0.00038
1604.40652	0.00050
1602.47815	0.00066
1600.54977	0.00071
1598.62140	0.00050
1596.69303	0.00019
1594.76465	0.00044
1592.83628	0.00048
1590.90791	0.00043
1588.97953	0.00035
1587.05116	0.00023
1585.12279	0.00038
1583.19441	0.00053
1581.26604	0.00062
1579.33767	0.00058
1577.40929	0.00047
1575.48092	0.00027
1573.55255	0.00019
1571.62418	0.00046
1569.69580	0.00079
1567.76743	0.00069
1565.83906	0.00064
1563.91068	0.00091
1561.98231	0.00106
1560.05394	0.00098
1558.12556	0.00080
1556.19719	0.00044
1554.26882	0.00057
1552.34044	0.00055
1550.41207	0.00039
1548.48370	0.00034
1546.55532	0.00045
1544.62695	0.00090
1542.69858	0.00143
1540.77020	0.00117
1538.84183	0.00089
1536.91346	0.00078
1534.98508	0.00096
1533.05671	0.00098
1531.12834	0.00070
1529.19996	0.00077
1527.27159	0.00077
1525.34322	0.00070
1523.41484	0.00101
1521.48647	0.00064
1519.55810	0.00030
1517.62972	0.00063
1515.70135	0.00060
1513.77298	0.00035
1511.84461	0.00048
1509.91623	0.00080
1507.98786	0.00049
1506.05949	0.00080
1504.13111	0.00063
1502.20274	0.00034
1500.27437	0.00019
1498.34599	0.00021
1496.41762	0.00033
1494.48925	0.00046
1492.56087	0.00049
1490.63250	0.00063
1488.70413	0.00069
1486.77575	0.00073
1484.84738	0.00081
1482.91901	0.00045
1480.99063	0.00024
1479.06226	0.00084
1477.13389	0.00113
1475.20551	0.00110
1473.27714	0.00094
1471.34877	0.00083
1469.42039	0.00071
1467.49202	0.00072
1465.56365	0.00062
1463.63527	0.00081
1461.70690	0.00086
1459.77853	0.00088
1457.85016	0.00115
1455.92178	0.00090
1453.99341	0.00059
1452.06504	0.00061
1450.13666	0.00096
1448.20829	0.00093
1446.27992	0.00057
1444.35154	0.00060
1442.42317	0.00057
1440.49480	0.00071
1438.56642	0.00066
1436.63805	0.00080
1434.70968	0.00071
1432.78130	0.00040
1430.85293	0.00007
1428.92456	0.00041
1426.99618	0.00040
1425.06781	0.00064
1423.13944	0.00080
1421.21106	0.00107
1419.28269	0.00127
1417.35432	0.00085
1415.42594	0.00047
1413.49757	0.00073
1411.56920	0.00099
1409.64082	0.00075
1407.71245	0.00036
1405.78408	0.00046
1403.85570	0.00052
1401.92733	0.00077
1399.99896	0.00076
1398.07059	0.00041
1396.14221	0.00028
1394.21384	0.00073
1392.28547	0.00086
1390.35709	0.00064
1388.42872	0.00052
1386.50035	0.00050
1384.57197	0.00025
1382.64360	0.00035
1380.71523	0.00089
1378.78685	0.00067
1376.85848	0.00024
1374.93011	0.00070
1373.00173	0.00085
1371.07336	0.00082
1369.14499	0.00091
1367.21661	0.00078
1365.28824	0.00061
1363.35987	0.00068
1361.43149	0.00081
1359.50312	0.00088
1357.57475	0.00051
1355.64637	0.00070
1353.71800	0.00081
1351.78963	0.00069
1349.86125	0.00068
1347.93288	0.00040
1346.00451	0.00065
1344.07614	0.00075
1342.14776	0.00063
1340.21939	0.00043
1338.29102	0.00044
1336.36264	0.00034
1334.43427	0.00016
1332.50590	0.00052
1330.57752	0.00063
1328.64915	0.00037
1326.72078	0.00014
1324.79240	0.00036
1322.86403	0.00077
1320.93566	0.00092
1319.00728	0.00100
1317.07891	0.00104
1315.15054	0.00067
1313.22216	0.00026
1311.29379	0.00045
1309.36542	0.00052
1307.43704	0.00050
1305.50867	0.00052
1303.58030	0.00048
1301.65192	0.00020
1299.72355	0.00044
1297.79518	0.00084
1295.86680	0.00098
1293.93843	0.00078
1292.01006	0.00041
1290.08168	0.00042
1288.15331	0.00052
1286.22494	0.00052
1284.29657	0.00086
1282.36819	0.00103
1280.43982	0.00098
1278.51145	0.00071
1276.58307	0.00059
1274.65470	0.00084
1272.72633	0.00087
1270.79795	0.00062
1268.86958	0.00111
1266.94121	0.00105
1265.01283	0.00109
1263.08446	0.00082
1261.15609	0.00049
1259.22771	0.00087
1257.29934	0.00084
1255.37097	0.00100
1253.44259	0.00105
1251.51422	0.00075
1249.58585	0.00034
1247.65747	0.00090
1245.72910	0.00130
1243.80073	0.00134
1241.87235	0.00122
1239.94398	0.00092
1238.01561	0.00123
1236.08723	0.00069
1234.15886	0.00055
1232.23049	0.00097
1230.30212	0.00118
1228.37374	0.00107
1226.44537	0.00104
1224.51700	0.00098
1222.58862	0.00053
1220.66025	0.00073
1218.73188	0.00079
1216.80350	0.00065
1214.87513	0.00108
1212.94676	0.00154
1211.01838	0.00161
1209.09001	0.00130
1207.16164	0.00096
1205.23326	0.00141
1203.30489	0.00130
1201.37652	0.00174
1199.44814	0.00221
1197.51977	0.00171
1195.59140	0.00065
1193.66302	0.00090
1191.73465	0.00101
1189.80628	0.00143
1187.87790	0.00214
1185.94953	0.00221
1184.02116	0.00160
1182.09278	0.00193
1180.16441	0.00210
1178.23604	0.00124
1176.30766	0.00058
1174.37929	0.00116
1172.45092	0.00103
1170.52255	0.00124
1168.59417	0.00168
1166.66580	0.00171
1164.73743	0.00117
1162.80905	0.00122
1160.88068	0.00160
1158.95231	0.00153
1157.02393	0.00116
1155.09556	0.00057
1153.16719	0.00096
1151.23881	0.00115
1149.31044	0.00119
1147.38207	0.00155
1145.45369	0.00115
1143.52532	0.00084
1141.59695	0.00091
1139.66857	0.00089
1137.74020	0.00077
1135.81183	0.00146
1133.88345	0.00195
1131.95508	0.00160
1130.02671	0.00069
1128.09833	0.00051
1126.16996	0.00112
1124.24159	0.00085
1122.31321	0.00058
1120.38484	0.00090
1118.45647	0.00192
1116.52809	0.00200
1114.59972	0.00110
1112.67135	0.00084
1110.74298	0.00074
1108.81460	0.00049
1106.88623	0.00061
1104.95786	0.00074
1103.02948	0.00132
1101.10111	0.00190
1099.17274	0.00219
1097.24436	0.00186
1095.31599	0.00175
1093.38762	0.00211
1091.45924	0.00205
1089.53087	0.00143
1087.60250	0.00104
1085.67412	0.00144
1083.74575	0.00197
1081.81738	0.00210
1079.88900	0.00167
1077.96063	0.00117
1076.03226	0.00130
1074.10388	0.00223
1072.17551	0.00238
1070.24714	0.00207
1068.31876	0.00202
1066.39039	0.00096
1064.46202	0.00165
1062.53364	0.00150
1060.60527	0.00043
1058.67690	0.00089
1056.74853	0.00156
1054.82015	0.00164
1052.89178	0.00140
1050.96341	0.00039
1049.03503	0.00072
1047.10666	0.00066
1045.17829	0.00059
1043.24991	0.00081
1041.32154	0.00094
1039.39317	0.00122
1037.46479	0.00109
1035.53642	0.00092
1033.60805	0.00140
1031.67967	0.00196
1029.75130	0.00237
1027.82293	0.00169
1025.89455	0.00091
1023.96618	0.00091
1022.03781	0.00135
1020.10943	0.00145
1018.18106	0.00133
1016.25269	0.00118
1014.32431	0.00141
1012.39594	0.00172
1010.46757	0.00136
1008.53919	0.00087
1006.61082	0.00110
1004.68245	0.00120
1002.75407	0.00120
1000.82570	0.00136
998.89733	0.00113
996.96896	0.00129
995.04058	0.00115
993.11221	0.00091
991.18384	0.00121
989.25546	0.00090
987.32709	0.00046
985.39872	0.00073
983.47034	0.00089
981.54197	0.00087
979.61360	0.00079
977.68522	0.00068
975.75685	0.00073
973.82848	0.00113
971.90010	0.00090
969.97173	0.00109
968.04336	0.00175
966.11498	0.00253
964.18661	0.00331
962.25824	0.00311
960.32986	0.00226
958.40149	0.00134
956.47312	0.00122
954.54474	0.00164
952.61637	0.00170
950.68800	0.00153
948.75962	0.00212
946.83125	0.00333
944.90288	0.00486
942.97451	0.00628
941.04613	0.00740
939.11776	0.00858
937.18939	0.00981
935.26101	0.01097
933.33264	0.01209
931.40427	0.01291
929.47589	0.01324
927.54752	0.01335
925.61915	0.01311
923.69077	0.01235
921.76240	0.01192
919.83403	0.01231
917.90565	0.01311
915.97728	0.01402
914.04891	0.01462
912.12053	0.01435
910.19216	0.01336
908.26379	0.01234
906.33541	0.01143
904.40704	0.01004
902.47867	0.00778
900.55029	0.00566
898.62192	0.00444
896.69355	0.00389
894.76517	0.00397
892.83680	0.00444
890.90843	0.00469
888.98005	0.00521
887.05168	0.00697
885.12331	0.00940
883.19494	0.01126
881.26656	0.01208
879.33819	0.01229
877.40982	0.01294
875.48144	0.01382
873.55307	0.01422
871.62470	0.01440
869.69632	0.01498
867.76795	0.01573
865.83958	0.01608
863.91120	0.01561
861.98283	0.01445
860.05446	0.01382
858.12608	0.01430
856.19771	0.01457
854.26934	0.01449
852.34096	0.01432
850.41259	0.01311
848.48422	0.01154
846.55584	0.01098
844.62747	0.01081
842.69910	0.01031
840.77072	0.00981
838.84235	0.00945
836.91398	0.00929
834.98560	0.00910
833.05723	0.00852
831.12886	0.00802
829.20049	0.00789
827.27211	0.00743
825.34374	0.00681
823.41537	0.00678
821.48699	0.00714
819.55862	0.00730
817.63025	0.00675
815.70187	0.00542
813.77350	0.00448
811.84513	0.00429
809.91675	0.00436
807.98838	0.00473
806.06001	0.00526
804.13163	0.00545
802.20326	0.00485
800.27489	0.00406
798.34651	0.00348
796.41814	0.00270
794.48977	0.00218
792.56139	0.00217
790.63302	0.00219
788.70465	0.00138
786.77627	0.00101
784.84790	0.00122
782.91953	0.00101
780.99115	0.00137
779.06278	0.00206
777.13441	0.00139
775.20603	0.00176
773.27766	0.00263
771.34929	0.00203
769.42092	0.00205
767.49254	0.00257
765.56417	0.00208
763.63580	0.00172
761.70742	0.00197
759.77905	0.00192
757.85068	0.00141
755.92230	0.00236
753.99393	0.00336
752.06556	0.00267
750.13718	0.00170
748.20881	0.00189
746.28044	0.00211
744.35206	0.00198
742.42369	0.00141
740.49532	0.00264
738.56694	0.00251
736.63857	0.00118
734.71020	0.00209
732.78182	0.00207
730.85345	0.00085
728.92508	0.00051
726.99670	0.00115
725.06833	0.00126
723.13996	0.00106
721.21158	0.00247
719.28321	0.00255
717.35484	0.00142
715.42647	0.00081
713.49809	0.00069
711.56972	0.00079
709.64135	0.00178
707.71297	0.00279
705.78460	0.00269
703.85623	0.00228
701.92785	0.00257
699.99948	0.00229
698.07111	0.00244
696.14273	0.00295
694.21436	0.00274
692.28599	0.00193
690.35761	0.00166
688.42924	0.00208
686.50087	0.00277
684.57249	0.00372
682.64412	0.00354
680.71575	0.00404
678.78737	0.00444
676.85900	0.00474
674.93063	0.00418
673.00225	0.00376
671.07388	0.00248
669.14551	0.00354
667.21713	0.00499
665.28876	0.00338
663.36039	0.00295
661.43201	0.00280
659.50364	0.00386
657.57527	0.00323
655.64690	0.00261
653.71852	0.00427
651.79015	0.00485
649.86178	0.00406
647.93340	0.00354
646.00503	0.00548
644.07666	0.00658
642.14828	0.00643
640.21991	0.00391
638.29154	0.00348
636.36316	0.00553
634.43479	0.00502
632.50642	0.00359
630.57804	0.00379
628.64967	0.00473
626.72130	0.00560
624.79292	0.00538
622.86455	0.00521
620.93618	0.00475
619.00780	0.00386
617.07943	0.00416
615.15106	0.00721
613.22268	0.00883
611.29431	0.00676
609.36594	0.00664
607.43756	0.00823
605.50919	0.00765
603.58082	0.00797
601.65244	0.00943
599.72407	0.01114
