3997.51769	0.17929
3995.58931	0.17948
3993.66094	0.17983
3991.73257	0.18035
3989.80419	0.18101
3987.87582	0.18181
3985.94745	0.18263
3984.01907	0.18347
3982.09070	0.18423
3980.16233	0.18469
3978.23396	0.18485
3976.30558	0.18504
3974.37721	0.18554
3972.44884	0.18613
3970.52046	0.18647
3968.59209	0.18674
3966.66372	0.18703
3964.73534	0.18732
3962.80697	0.18770
3960.87860	0.18816
3958.95022	0.18861
3957.02185	0.18904
3955.09348	0.18950
3953.16510	0.18989
3951.23673	0.18997
3949.30836	0.18998
3947.37998	0.19025
3945.45161	0.19058
3943.52324	0.19083
3941.59486	0.19132
3939.66649	0.19207
3937.73812	0.19266
3935.80974	0.19286
3933.88137	0.19279
3931.95300	0.19272
3930.02462	0.19296
3928.09625	0.19356
3926.16788	0.19405
3924.23950	0.19420
3922.31113	0.19437
3920.38276	0.19468
3918.45439	0.19509
3916.52601	0.19570
3914.59764	0.19652
3912.66927	0.19725
3910.74089	0.19767
3908.81252	0.19781
3906.88415	0.19757
3904.95577	0.19708
3903.02740	0.19708
3901.09903	0.19781
3899.17065	0.19870
3897.24228	0.19967
3895.31391	0.20047
3893.38553	0.20059
3891.45716	0.20043
3889.52879	0.20082
3887.60041	0.20137
3885.67204	0.20162
3883.74367	0.20190
3881.81529	0.20226
3879.88692	0.20269
3877.95855	0.20340
3876.03017	0.20374
3874.10180	0.20343
3872.17343	0.20325
3870.24505	0.20373
3868.31668	0.20457
3866.38831	0.20505
3864.45994	0.20495
3862.53156	0.20507
3860.60319	0.20587
3858.67482	0.20657
3856.74644	0.20684
3854.81807	0.20697
3852.88970	0.20670
3850.96132	0.20665
3849.03295	0.20734
3847.10458	0.20808
3845.17620	0.20839
3843.24783	0.20813
3841.31946	0.20762
3839.39108	0.20746
3837.46271	0.20771
3835.53434	0.20801
3833.60596	0.20851
3831.67759	0.20917
3829.74922	0.20956
3827.82084	0.20966
3825.89247	0.20980
3823.96410	0.20992
3822.03572	0.20944
3820.10735	0.20885
3818.17898	0.20921
3816.25060	0.20994
3814.32223	0.21073
3812.39386	0.21161
3810.46548	0.21204
3808.53711	0.21163
3806.60874	0.21079
3804.68037	0.21041
3802.75199	0.21026
3800.82362	0.20993
3798.89525	0.20999
3796.96687	0.21053
3795.03850	0.21127
3793.11013	0.21189
3791.18175	0.21208
3789.25338	0.21192
3787.32501	0.21178
3785.39663	0.21182
3783.46826	0.21191
3781.53989	0.21174
3779.61151	0.21128
3777.68314	0.21114
3775.75477	0.21147
3773.82639	0.21164
3771.89802	0.21127
3769.96965	0.21053
3768.04127	0.21009
3766.11290	0.21025
3764.18453	0.21056
3762.25615	0.21044
3760.32778	0.20968
3758.39941	0.20896
3756.47103	0.20894
3754.54266	0.20890
3752.61429	0.20823
3750.68591	0.20748
3748.75754	0.20752
3746.82917	0.20779
3744.90080	0.20751
3742.97242	0.20666
3741.04405	0.20601
3739.11568	0.20549
3737.18730	0.20456
3735.25893	0.20359
3733.33056	0.20364
3731.40218	0.20422
3729.47381	0.20448
3727.54544	0.20404
3725.61706	0.20316
3723.68869	0.20260
3721.76032	0.20247
3719.83194	0.20235
3717.90357	0.20208
3715.97520	0.20151
3714.04682	0.20025
3712.11845	0.19828
3710.19008	0.19674
3708.26170	0.19630
3706.33333	0.19600
3704.40496	0.19523
3702.47658	0.19396
3700.54821	0.19260
3698.61984	0.19139
3696.69146	0.18979
3694.76309	0.18752
3692.83472	0.18457
3690.90635	0.18097
3688.97797	0.17732
3687.04960	0.17427
3685.12123	0.17154
3683.19285	0.16832
3681.26448	0.16416
3679.33611	0.15939
3677.40773	0.15429
3675.47936	0.14842
3673.55099	0.14326
3671.62261	0.13924
3669.69424	0.13425
3667.76587	0.12919
3665.83749	0.12526
3663.90912	0.12119
3661.98075	0.11647
3660.05237	0.11156
3658.12400	0.10655
3656.19563	0.10104
3654.26725	0.09582
3652.33888	0.09129
3650.41051	0.08606
3648.48213	0.08026
3646.55376	0.07594
3644.62539	0.07274
3642.69701	0.06939
3640.76864	0.06570
3638.84027	0.06200
3636.91189	0.05836
3634.98352	0.05479
3633.05515	0.05144
3631.12678	0.04843
3629.19840	0.04512
3627.27003	0.04176
3625.34166	0.03943
3623.41328	0.03737
3621.48491	0.03495
3619.55654	0.03224
3617.62816	0.02977
3615.69979	0.02786
3613.77142	0.02627
3611.84304	0.02463
3609.91467	0.02275
3607.98630	0.02087
3606.05792	0.01934
3604.12955	0.01801
3602.20118	0.01658
3600.27280	0.01523
3598.34443	0.01415
3596.41606	0.01310
3594.48768	0.01205
3592.55931	0.01125
3590.63094	0.01075
3588.70256	0.01008
3586.77419	0.00901
3584.84582	0.00808
3582.91744	0.00753
3580.98907	0.00698
3579.06070	0.00630
3577.13233	0.00575
3575.20395	0.00535
3573.27558	0.00491
3571.34721	0.00444
3569.41883	0.00398
3567.49046	0.00346
3565.56209	0.00296
3563.63371	0.00267
3561.70534	0.00254
3559.77697	0.00236
3557.84859	0.00219
3555.92022	0.00206
3553.99185	0.00191
3552.06347	0.00169
3550.13510	0.00148
3548.20673	0.00139
3546.27835	0.00140
3544.34998	0.00130
3542.42161	0.00113
3540.49323	0.00099
3538.56486	0.00076
3536.63649	0.00041
3534.70811	0.00030
3532.77974	0.00026
3530.85137	0.00016
3528.92299	0.00023
3526.99462	0.00033
3525.06625	0.00039
3523.13787	0.00047
3521.20950	0.00054
3519.28113	0.00049
3517.35276	0.00029
3515.42438	0.00028
3513.49601	0.00032
3511.56764	0.00039
3509.63926	0.00042
3507.71089	0.00035
3505.78252	0.00026
3503.85414	0.00017
3501.92577	0.00023
3499.99740	0.00032
3498.06902	0.00034
3496.14065	0.00036
3494.21228	0.00032
3492.28390	0.00035
3490.35553	0.00026
3488.42716	0.00033
3486.49878	0.00019
3484.57041	0.00020
3482.64204	0.00047
3480.71366	0.00064
3478.78529	0.00058
3476.85692	0.00040
3474.92854	0.00051
3473.00017	0.00062
3471.07180	0.00060
3469.14342	0.00063
3467.21505	0.00055
3465.28668	0.00040
3463.35831	0.00052
3461.42993	0.00066
3459.50156	0.00046
3457.57319	0.00026
3455.64481	0.00041
3453.71644	0.00052
3451.78807	0.00054
3449.85969	0.00061
3447.93132	0.00061
3446.00295	0.00029
3444.07457	0.00021
3442.14620	0.00049
3440.21783	0.00056
3438.28945	0.00048
3436.36108	0.00037
3434.43271	0.00049
3432.50433	0.00055
3430.57596	0.00038
3428.64759	0.00016
3426.71921	0.00028
3424.79084	0.00029
3422.86247	0.00020
3420.93409	0.00032
3419.00572	0.00047
3417.07735	0.00044
3415.14897	0.00029
3413.22060	0.00027
3411.29223	0.00037
3409.36385	0.00038
3407.43548	0.00019
3405.50711	0.00019
3403.57874	0.00034
3401.65036	0.00040
3399.72199	0.00046
3397.79362	0.00040
3395.86524	0.00033
3393.93687	0.00040
3392.00850	0.00045
3390.08012	0.00044
3388.15175	0.00036
3386.22338	0.00048
3384.29500	0.00057
3382.36663	0.00047
3380.43826	0.00024
3378.50988	0.00034
3376.58151	0.00041
3374.65314	0.00042
3372.72476	0.00050
3370.79639	0.00047
3368.86802	0.00030
3366.93964	0.00038
3365.01127	0.00032
3363.08290	0.00018
3361.15452	0.00016
3359.22615	0.00024
3357.29778	0.00018
3355.36940	0.00023
3353.44103	0.00027
3351.51266	0.00023
3349.58428	0.00027
3347.65591	0.00033
3345.72754	0.00031
3343.79917	0.00035
3341.87079	0.00025
3339.94242	0.00035
3338.01405	0.00044
3336.08567	0.00032
3334.15730	0.00009
3332.22893	0.00029
3330.30055	0.00037
3328.37218	0.00034
3326.44381	0.00035
3324.51543	0.00033
3322.58706	0.00019
3320.65869	0.00017
3318.73031	0.00024
3316.80194	0.00014
3314.87357	0.00029
3312.94519	0.00036
3311.01682	0.00022
3309.08845	0.00037
3307.16007	0.00067
3305.23170	0.00074
3303.30333	0.00053
3301.37495	0.00028
3299.44658	0.00028
3297.51821	0.00025
3295.58983	0.00026
3293.66146	0.00022
3291.73309	0.00015
3289.80472	0.00022
3287.87634	0.00024
3285.94797	0.00020
3284.01960	0.00022
3282.09122	0.00023
3280.16285	0.00034
3278.23448	0.00032
3276.30610	0.00021
3274.37773	0.00015
3272.44936	0.00020
3270.52098	0.00018
3268.59261	0.00030
3266.66424	0.00043
3264.73586	0.00058
3262.80749	0.00053
3260.87912	0.00021
3258.95074	0.00026
3257.02237	0.00032
3255.09400	0.00039
3253.16562	0.00045
3251.23725	0.00035
3249.30888	0.00021
3247.38050	0.00028
3245.45213	0.00049
3243.52376	0.00055
3241.59538	0.00055
3239.66701	0.00057
3237.73864	0.00045
3235.81026	0.00044
3233.88189	0.00045
3231.95352	0.00039
3230.02515	0.00020
3228.09677	0.00032
3226.16840	0.00028
3224.24003	0.00016
3222.31165	0.00034
3220.38328	0.00026
3218.45491	0.00031
3216.52653	0.00036
3214.59816	0.00027
3212.66979	0.00023
3210.74141	0.00036
3208.81304	0.00054
3206.88467	0.00065
3204.95629	0.00069
3203.02792	0.00062
3201.09955	0.00045
3199.17117	0.00042
3197.24280	0.00041
3195.31443	0.00039
3193.38605	0.00045
3191.45768	0.00039
3189.52931	0.00021
3187.60093	0.00021
3185.67256	0.00031
3183.74419	0.00031
3181.81581	0.00018
3179.88744	0.00027
3177.95907	0.00026
3176.03070	0.00028
3174.10232	0.00021
3172.17395	0.00024
3170.24558	0.00034
3168.31720	0.00048
3166.38883	0.00052
3164.46046	0.00038
3162.53208	0.00022
3160.60371	0.00024
3158.67534	0.00032
3156.74696	0.00010
3154.81859	0.00031
3152.89022	0.00031
3150.96184	0.00034
3149.03347	0.00029
3147.10510	0.00033
3145.17672	0.00044
3143.24835	0.00031
3141.31998	0.00018
3139.39160	0.00018
3137.46323	0.00019
3135.53486	0.00021
3133.60648	0.00024
3131.67811	0.00026
3129.74974	0.00027
3127.82136	0.00034
3125.89299	0.00031
3123.96462	0.00021
3122.03624	0.00021
3120.10787	0.00026
3118.17950	0.00023
3116.25113	0.00024
3114.32275	0.00022
3112.39438	0.00018
3110.46601	0.00018
3108.53763	0.00028
3106.60926	0.00035
3104.68089	0.00031
3102.75251	0.00022
3100.82414	0.00014
3098.89577	0.00011
3096.96739	0.00018
3095.03902	0.00030
3093.11065	0.00029
3091.18227	0.00016
3089.25390	0.00031
3087.32553	0.00042
3085.39715	0.00029
3083.46878	0.00021
3081.54041	0.00020
3079.61203	0.00036
3077.68366	0.00049
3075.75529	0.00047
3073.82691	0.00039
3071.89854	0.00040
3069.97017	0.00037
3068.04179	0.00031
3066.11342	0.00028
3064.18505	0.00033
3062.25668	0.00037
3060.32830	0.00037
3058.39993	0.00051
3056.47156	0.00053
3054.54318	0.00047
3052.61481	0.00045
3050.68644	0.00050
3048.75806	0.00057
3046.82969	0.00067
3044.90132	0.00079
3042.97294	0.00096
3041.04457	0.00116
3039.11620	0.00129
3037.18782	0.00127
3035.25945	0.00119
3033.33108	0.00114
3031.40270	0.00114
3029.47433	0.00126
3027.54596	0.00140
3025.61758	0.00144
3023.68921	0.00140
3021.76084	0.00137
3019.83246	0.00137
3017.90409	0.00141
3015.97572	0.00143
3014.04734	0.00137
3012.11897	0.00134
3010.19060	0.00140
3008.26222	0.00151
3006.33385	0.00150
3004.40548	0.00139
3002.47711	0.00129
3000.54873	0.00124
2998.62036	0.00130
2996.69199	0.00136
2994.76361	0.00121
2992.83524	0.00083
2990.90687	0.00057
2988.97849	0.00063
2987.05012	0.00077
2985.12175	0.00075
2983.19337	0.00060
2981.26500	0.00033
2979.33663	0.00017
2977.40825	0.00032
2975.47988	0.00038
2973.55151	0.00034
2971.62313	0.00031
2969.69476	0.00038
2967.76639	0.00035
2965.83801	0.00042
2963.90964	0.00055
2961.98127	0.00051
2960.05289	0.00034
2958.12452	0.00020
2956.19615	0.00028
2954.26777	0.00045
2952.33940	0.00033
2950.41103	0.00009
2948.48266	0.00024
2946.55428	0.00048
2944.62591	0.00057
2942.69754	0.00047
2940.76916	0.00027
2938.84079	0.00024
2936.91242	0.00023
2934.98404	0.00025
2933.05567	0.00046
2931.12730	0.00058
2929.19892	0.00050
2927.27055	0.00058
2925.34218	0.00070
2923.41380	0.00057
2921.48543	0.00040
2919.55706	0.00032
2917.62868	0.00023
2915.70031	0.00037
2913.77194	0.00036
2911.84356	0.00025
2909.91519	0.00028
2907.98682	0.00038
2906.05844	0.00042
2904.13007	0.00045
2902.20170	0.00035
2900.27332	0.00044
2898.34495	0.00032
2896.41658	0.00036
2894.48820	0.00060
2892.55983	0.00062
2890.63146	0.00044
2888.70309	0.00033
2886.77471	0.00047
2884.84634	0.00040
2882.91797	0.00027
2880.98959	0.00025
2879.06122	0.00029
2877.13285	0.00030
2875.20447	0.00024
2873.27610	0.00020
2871.34773	0.00030
2869.41935	0.00050
2867.49098	0.00071
2865.56261	0.00084
2863.63423	0.00093
2861.70586	0.00101
2859.77749	0.00108
2857.84911	0.00105
2855.92074	0.00094
2853.99237	0.00105
2852.06399	0.00138
2850.13562	0.00167
2848.20725	0.00194
2846.27887	0.00234
2844.35050	0.00284
2842.42213	0.00319
2840.49375	0.00328
2838.56538	0.00336
2836.63701	0.00363
2834.70863	0.00397
2832.78026	0.00423
2830.85189	0.00439
2828.92352	0.00452
2826.99514	0.00469
2825.06677	0.00495
2823.13840	0.00527
2821.21002	0.00557
2819.28165	0.00581
2817.35328	0.00613
2815.42490	0.00648
2813.49653	0.00674
2811.56816	0.00694
2809.63978	0.00717
2807.71141	0.00749
2805.78304	0.00780
2803.85466	0.00806
2801.92629	0.00832
2799.99792	0.00865
2798.06954	0.00904
2796.14117	0.00948
2794.21280	0.00991
2792.28442	0.01021
2790.35605	0.01042
2788.42768	0.01071
2786.49930	0.01110
2784.57093	0.01145
2782.64256	0.01175
2780.71418	0.01204
2778.78581	0.01226
2776.85744	0.01233
2774.92907	0.01239
2773.00069	0.01252
2771.07232	0.01267
2769.14395	0.01290
2767.21557	0.01328
2765.28720	0.01368
2763.35883	0.01394
2761.43045	0.01412
2759.50208	0.01437
2757.57371	0.01466
2755.64533	0.01494
2753.71696	0.01515
2751.78859	0.01532
2749.86021	0.01556
2747.93184	0.01595
2746.00347	0.01636
2744.07509	0.01659
2742.14672	0.01673
2740.21835	0.01694
2738.28997	0.01720
2736.36160	0.01742
2734.43323	0.01761
2732.50485	0.01778
2730.57648	0.01794
2728.64811	0.01817
2726.71973	0.01838
2724.79136	0.01852
2722.86299	0.01871
2720.93461	0.01904
2719.00624	0.01940
2717.07787	0.01973
2715.14950	0.02006
2713.22112	0.02034
2711.29275	0.02059
2709.36438	0.02089
2707.43600	0.02120
2705.50763	0.02151
2703.57926	0.02192
2701.65088	0.02243
2699.72251	0.02283
2697.79414	0.02312
2695.86576	0.02340
2693.93739	0.02371
2692.00902	0.02405
2690.08064	0.02437
2688.15227	0.02466
2686.22390	0.02502
2684.29552	0.02541
2682.36715	0.02576
2680.43878	0.02612
2678.51040	0.02648
2676.58203	0.02678
2674.65366	0.02706
2672.72528	0.02738
2670.79691	0.02773
2668.86854	0.02809
2666.94016	0.02842
2665.01179	0.02868
2663.08342	0.02890
2661.15505	0.02913
2659.22667	0.02940
2657.29830	0.02972
2655.36993	0.02999
2653.44155	0.03015
2651.51318	0.03030
2649.58481	0.03047
2647.65643	0.03067
2645.72806	0.03091
2643.79969	0.03117
2641.87131	0.03138
2639.94294	0.03158
2638.01457	0.03185
2636.08619	0.03210
2634.15782	0.03228
2632.22945	0.03252
2630.30107	0.03287
2628.37270	0.03320
2626.44433	0.03342
2624.51595	0.03354
2622.58758	0.03368
2620.65921	0.03395
2618.73083	0.03426
2616.80246	0.03453
2614.87409	0.03490
2612.94571	0.03533
2611.01734	0.03561
2609.08897	0.03582
2607.16059	0.03620
2605.23222	0.03671
2603.30385	0.03711
2601.37548	0.03734
2599.44710	0.03752
2597.51873	0.03768
2595.59036	0.03781
2593.66198	0.03799
2591.73361	0.03825
2589.80524	0.03852
2587.87686	0.03875
2585.94849	0.03898
2584.02012	0.03932
2582.09174	0.03970
2580.16337	0.03997
2578.23500	0.04020
2576.30662	0.04047
2574.37825	0.04072
2572.44988	0.04094
2570.52150	0.04126
2568.59313	0.04168
2566.66476	0.04213
2564.73638	0.04264
2562.80801	0.04324
2560.87964	0.04383
2558.95126	0.04440
2557.02289	0.04499
2555.09452	0.04561
2553.16614	0.04615
2551.23777	0.04658
2549.30940	0.04701
2547.38103	0.04745
2545.45265	0.04775
2543.52428	0.04795
2541.59591	0.04826
2539.66753	0.04867
2537.73916	0.04905
2535.81079	0.04933
2533.88241	0.04951
2531.95404	0.04966
2530.02567	0.04989
2528.09729	0.05021
2526.16892	0.05063
2524.24055	0.05104
2522.31217	0.05137
2520.38380	0.05177
2518.45543	0.05229
2516.52705	0.05274
2514.59868	0.05309
2512.67031	0.05342
2510.74193	0.05379
2508.81356	0.05422
2506.88519	0.05464
2504.95681	0.05502
2503.02844	0.05542
2501.10007	0.05587
2499.17169	0.05632
2497.24332	0.05672
2495.31495	0.05709
2493.38657	0.05747
2491.45820	0.05788
2489.52983	0.05837
2487.60146	0.05895
2485.67308	0.05950
2483.74471	0.05996
2481.81634	0.06040
2479.88796	0.06080
2477.95959	0.06116
2476.03122	0.06156
2474.10284	0.06208
2472.17447	0.06265
2470.24610	0.06315
2468.31772	0.06360
2466.38935	0.06398
2464.46098	0.06435
2462.53260	0.06479
2460.60423	0.06528
2458.67586	0.06577
2456.74748	0.06626
2454.81911	0.06674
2452.89074	0.06719
2450.96236	0.06761
2449.03399	0.06798
2447.10562	0.06832
2445.17724	0.06873
2443.24887	0.06920
2441.32050	0.06968
2439.39212	0.07020
2437.46375	0.07071
2435.53538	0.07117
2433.60700	0.07165
2431.67863	0.07222
2429.75026	0.07278
2427.82189	0.07325
2425.89351	0.07361
2423.96514	0.07388
2422.03677	0.07414
2420.10839	0.07444
2418.18002	0.07483
2416.25165	0.07531
2414.32327	0.07577
2412.39490	0.07617
2410.46653	0.07657
2408.53815	0.07699
2406.60978	0.07744
2404.68141	0.07791
2402.75303	0.07836
2400.82466	0.07889
2398.89629	0.07949
2396.96791	0.08009
2395.03954	0.08063
2393.11117	0.08111
2391.18279	0.08157
2389.25442	0.08201
2387.32605	0.08240
2385.39767	0.08268
2383.46930	0.08283
2381.54093	0.08286
2379.61255	0.08281
2377.68418	0.08273
2375.75581	0.08268
2373.82744	0.08270
2371.89906	0.08266
2369.97069	0.08245
2368.04232	0.08233
2366.11394	0.08229
2364.18557	0.08208
2362.25720	0.08207
2360.32882	0.08250
2358.40045	0.08292
2356.47208	0.08322
2354.54370	0.08403
2352.61533	0.08521
2350.68696	0.08609
2348.75858	0.08654
2346.83021	0.08664
2344.90184	0.08650
2342.97346	0.08633
2341.04509	0.08632
2339.11672	0.08646
2337.18834	0.08669
2335.25997	0.08705
2333.33160	0.08749
2331.40322	0.08793
2329.47485	0.08828
2327.54648	0.08869
2325.61810	0.08920
2323.68973	0.08970
2321.76136	0.09041
2319.83298	0.09135
2317.90461	0.09214
2315.97624	0.09286
2314.04787	0.09375
2312.11949	0.09476
2310.19112	0.09582
2308.26275	0.09682
2306.33437	0.09764
2304.40600	0.09836
2302.47763	0.09913
2300.54925	0.09989
2298.62088	0.10060
2296.69251	0.10134
2294.76413	0.10202
2292.83576	0.10263
2290.90739	0.10322
2288.97901	0.10380
2287.05064	0.10430
2285.12227	0.10469
2283.19389	0.10499
2281.26552	0.10530
2279.33715	0.10560
2277.40877	0.10582
2275.48040	0.10600
2273.55203	0.10623
2271.62365	0.10649
2269.69528	0.10678
2267.76691	0.10708
2265.83853	0.10732
2263.91016	0.10756
2261.98179	0.10794
2260.05342	0.10840
2258.12504	0.10878
2256.19667	0.10912
2254.26830	0.10948
2252.33992	0.10990
2250.41155	0.11039
2248.48318	0.11097
2246.55480	0.11162
2244.62643	0.11223
2242.69806	0.11267
2240.76968	0.11298
2238.84131	0.11332
2236.91294	0.11369
2234.98456	0.11404
2233.05619	0.11441
2231.12782	0.11470
2229.19944	0.11488
2227.27107	0.11505
2225.34270	0.11527
2223.41432	0.11547
2221.48595	0.11558
2219.55758	0.11562
2217.62920	0.11566
2215.70083	0.11572
2213.77246	0.11579
2211.84408	0.11582
2209.91571	0.11584
2207.98734	0.11585
2206.05896	0.11586
2204.13059	0.11582
2202.20222	0.11576
2200.27385	0.11578
2198.34547	0.11586
2196.41710	0.11592
2194.48873	0.11596
2192.56035	0.11597
2190.63198	0.11586
2188.70361	0.11572
2186.77523	0.11563
2184.84686	0.11561
2182.91849	0.11572
2180.99011	0.11587
2179.06174	0.11592
2177.13337	0.11589
2175.20499	0.11581
2173.27662	0.11571
2171.34825	0.11564
2169.41987	0.11561
2167.49150	0.11562
2165.56313	0.11566
2163.63475	0.11571
2161.70638	0.11574
2159.77801	0.11579
2157.84963	0.11592
2155.92126	0.11612
2153.99289	0.11627
2152.06451	0.11634
2150.13614	0.11642
2148.20777	0.11653
2146.27940	0.11661
2144.35102	0.11667
2142.42265	0.11681
2140.49428	0.11714
2138.56590	0.11751
2136.63753	0.11777
2134.70916	0.11789
2132.78078	0.11797
2130.85241	0.11810
2128.92404	0.11829
2126.99566	0.11857
2125.06729	0.11891
2123.13892	0.11926
2121.21054	0.11959
2119.28217	0.11995
2117.35380	0.12043
2115.42542	0.12102
2113.49705	0.12155
2111.56868	0.12199
2109.64030	0.12236
2107.71193	0.12263
2105.78356	0.12290
2103.85518	0.12320
2101.92681	0.12352
2099.99844	0.12380
2098.07006	0.12405
2096.14169	0.12431
2094.21332	0.12457
2092.28494	0.12477
2090.35657	0.12489
2088.42820	0.12500
2086.49983	0.12515
2084.57145	0.12529
2082.64308	0.12533
2080.71471	0.12532
2078.78633	0.12536
2076.85796	0.12549
2074.92959	0.12565
2073.00121	0.12581
2071.07284	0.12598
2069.14447	0.12617
2067.21609	0.12641
2065.28772	0.12672
2063.35935	0.12709
2061.43097	0.12753
2059.50260	0.12807
2057.57423	0.12865
2055.64585	0.12921
2053.71748	0.12983
2051.78911	0.13051
2049.86073	0.13113
2047.93236	0.13175
2046.00399	0.13237
2044.07561	0.13292
2042.14724	0.13344
2040.21887	0.13400
2038.29049	0.13453
2036.36212	0.13493
2034.43375	0.13530
2032.50538	0.13570
2030.57700	0.13605
2028.64863	0.13628
2026.72026	0.13642
2024.79188	0.13662
2022.86351	0.13694
2020.93514	0.13724
2019.00676	0.13745
2017.07839	0.13766
2015.15002	0.13800
2013.22164	0.13844
2011.29327	0.13890
2009.36490	0.13934
2007.43652	0.13980
2005.50815	0.14029
2003.57978	0.14081
2001.65140	0.14128
1999.72303	0.14166
1997.79466	0.14200
1995.86628	0.14232
1993.93791	0.14253
1992.00954	0.14271
1990.08116	0.14300
1988.15279	0.14340
1986.22442	0.14385
1984.29604	0.14418
1982.36767	0.14433
1980.43930	0.14449
1978.51092	0.14479
1976.58255	0.14508
1974.65418	0.14529
1972.72581	0.14553
1970.79743	0.14580
1968.86906	0.14601
1966.94069	0.14623
1965.01231	0.14660
1963.08394	0.14706
1961.15557	0.14752
1959.22719	0.14792
1957.29882	0.14823
1955.37045	0.14858
1953.44207	0.14905
1951.51370	0.14957
1949.58533	0.15005
1947.65695	0.15043
1945.72858	0.15069
1943.80021	0.15086
1941.87183	0.15123
1939.94346	0.15190
1938.01509	0.15253
1936.08671	0.15294
1934.15834	0.15321
1932.22997	0.15345
1930.30159	0.15372
1928.37322	0.15396
1926.44485	0.15402
1924.51647	0.15391
1922.58810	0.15391
1920.65973	0.15409
1918.73135	0.15423
1916.80298	0.15451
1914.87461	0.15499
1912.94624	0.15531
1911.01786	0.15538
1909.08949	0.15539
1907.16112	0.15551
1905.23274	0.15565
1903.30437	0.15568
1901.37600	0.15566
1899.44762	0.15555
1897.51925	0.15531
1895.59088	0.15507
1893.66250	0.15495
1891.73413	0.15475
1889.80576	0.15446
1887.87738	0.15446
1885.94901	0.15467
1884.02064	0.15481
1882.09226	0.15492
1880.16389	0.15508
1878.23552	0.15525
1876.30714	0.15542
1874.37877	0.15559
1872.45040	0.15551
1870.52202	0.15496
1868.59365	0.15446
1866.66528	0.15477
1864.73690	0.15536
1862.80853	0.15555
1860.88016	0.15547
1858.95179	0.15533
1857.02341	0.15517
1855.09504	0.15496
1853.16667	0.15476
1851.23829	0.15451
1849.30992	0.15403
1847.38155	0.15329
1845.45317	0.15246
1843.52480	0.15217
1841.59643	0.15259
1839.66805	0.15285
1837.73968	0.15268
1835.81131	0.15248
1833.88293	0.15216
1831.95456	0.15128
1830.02619	0.15022
1828.09781	0.14977
1826.16944	0.14959
1824.24107	0.14936
1822.31269	0.14923
1820.38432	0.14885
1818.45595	0.14803
1816.52757	0.14707
1814.59920	0.14603
1812.67083	0.14470
1810.74245	0.14326
1808.81408	0.14210
1806.88571	0.14107
1804.95733	0.13980
1803.02896	0.13814
1801.10059	0.13629
1799.17222	0.13467
1797.24384	0.13318
1795.31547	0.13136
1793.38710	0.12905
1791.45872	0.12687
1789.53035	0.12548
1787.60198	0.12411
1785.67360	0.12210
1783.74523	0.11976
1781.81686	0.11742
1779.88848	0.11508
1777.96011	0.11275
1776.03174	0.11020
1774.10336	0.10707
1772.17499	0.10354
1770.24662	0.10057
1768.31824	0.09820
1766.38987	0.09568
1764.46150	0.09266
1762.53312	0.08872
1760.60475	0.08421
1758.67638	0.07971
1756.74800	0.07461
1754.81963	0.06907
1752.89126	0.06316
1750.96288	0.05599
1749.03451	0.04815
1747.10614	0.04087
1745.17777	0.03402
1743.24939	0.02745
1741.32102	0.02132
1739.39265	0.01577
1737.46427	0.01163
1735.53590	0.00853
1733.60753	0.00558
1731.67915	0.00356
1729.75078	0.00250
1727.82241	0.00175
1725.89403	0.00118
1723.96566	0.00079
1722.03729	0.00051
1720.10891	0.00030
1718.18054	0.00024
1716.25217	0.00022
1714.32379	0.00022
1712.39542	0.00021
1710.46705	0.00022
1708.53867	0.00023
1706.61030	0.00025
1704.68193	0.00026
1702.75355	0.00023
1700.82518	0.00017
1698.89681	0.00029
1696.96843	0.00027
1695.04006	0.00013
1693.11169	0.00010
1691.18331	0.00016
1689.25494	0.00018
1687.32657	0.00023
1685.39820	0.00034
1683.46982	0.00033
1681.54145	0.00029
1679.61308	0.00030
1677.68470	0.00018
1675.75633	0.00010
1673.82796	0.00013
1671.89958	0.00015
1669.97121	0.00014
1668.04284	0.00010
1666.11446	0.00014
1664.18609	0.00018
1662.25772	0.00021
1660.32934	0.00026
1658.40097	0.00024
1656.47260	0.00020
1654.54422	0.00019
1652.61585	0.00017
1650.68748	0.00016
1648.75910	0.00025
1646.83073	0.00037
1644.90236	0.00032
1642.97398	0.00034
1641.04561	0.00041
1639.11724	0.00040
1637.18886	0.00032
1635.26049	0.00027
1633.33212	0.00035
1631.40375	0.00035
1629.47537	0.00024
1627.54700	0.00017
1625.61863	0.00017
1623.69025	0.00027
1621.76188	0.00029
1619.83351	0.00022
1617.90513	0.00019
1615.97676	0.00019
1614.04839	0.00028
1612.12001	0.00029
1610.19164	0.00020
1608.26327	0.00014
1606.33489	0.00013
1604.40652	0.00022
1602.47815	0.00022
1600.54977	0.00017
1598.62140	0.00013
1596.69303	0.00020
1594.76465	0.00031
1592.83628	0.00028
1590.90791	0.00020
1588.97953	0.00010
1587.05116	0.00007
1585.12279	0.00021
1583.19441	0.00027
1581.26604	0.00019
1579.33767	0.00008
1577.40929	0.00015
1575.48092	0.00024
1573.55255	0.00015
1571.62418	0.00011
1569.69580	0.00013
1567.76743	0.00010
1565.83906	0.00016
1563.91068	0.00020
1561.98231	0.00021
1560.05394	0.00038
1558.12556	0.00045
1556.19719	0.00029
1554.26882	0.00021
1552.34044	0.00019
1550.41207	0.00022
1548.48370	0.00017
1546.55532	0.00013
1544.62695	0.00023
1542.69858	0.00025
1540.77020	0.00031
1538.84183	0.00036
1536.91346	0.00035
1534.98508	0.00037
1533.05671	0.00030
1531.12834	0.00020
1529.19996	0.00018
1527.27159	0.00028
1525.34322	0.00023
1523.41484	0.00019
1521.48647	0.00020
1519.55810	0.00027
1517.62972	0.00028
1515.70135	0.00020
1513.77298	0.00013
1511.84461	0.00013
1509.91623	0.00016
1507.98786	0.00021
1506.05949	0.00016
1504.13111	0.00013
1502.20274	0.00012
1500.27437	0.00019
1498.34599	0.00027
1496.41762	0.00021
1494.48925	0.00018
1492.56087	0.00021
1490.63250	0.00036
1488.70413	0.00046
1486.77575	0.00041
1484.84738	0.00042
1482.91901	0.00043
1480.99063	0.00030
1479.06226	0.00025
1477.13389	0.00026
1475.20551	0.00033
1473.27714	0.00038
1471.34877	0.00037
1469.42039	0.00033
1467.49202	0.00026
1465.56365	0.00030
1463.63527	0.00029
1461.70690	0.00012
1459.77853	0.00030
1457.85016	0.00035
1455.92178	0.00016
1453.99341	0.00016
1452.06504	0.00023
1450.13666	0.00024
1448.20829	0.00021
1446.27992	0.00018
1444.35154	0.00013
1442.42317	0.00022
1440.49480	0.00038
1438.56642	0.00052
1436.63805	0.00051
1434.70968	0.00034
1432.78130	0.00026
1430.85293	0.00018
1428.92456	0.00022
1426.99618	0.00028
1425.06781	0.00028
1423.13944	0.00023
1421.21106	0.00017
1419.28269	0.00020
1417.35432	0.00021
1415.42594	0.00026
1413.49757	0.00036
1411.56920	0.00037
1409.64082	0.00031
1407.71245	0.00023
1405.78408	0.00020
1403.85570	0.00029
1401.92733	0.00031
1399.99896	0.00024
1398.07059	0.00029
1396.14221	0.00038
1394.21384	0.00029
1392.28547	0.00014
1390.35709	0.00015
1388.42872	0.00015
1386.50035	0.00019
1384.57197	0.00024
1382.64360	0.00015
1380.71523	0.00011
1378.78685	0.00021
1376.85848	0.00029
1374.93011	0.00033
1373.00173	0.00039
1371.07336	0.00032
1369.14499	0.00011
1367.21661	0.00025
1365.28824	0.00040
1363.35987	0.00059
1361.43149	0.00066
1359.50312	0.00054
1357.57475	0.00042
1355.64637	0.00031
1353.71800	0.00031
1351.78963	0.00036
1349.86125	0.00041
1347.93288	0.00041
1346.00451	0.00035
1344.07614	0.00028
1342.14776	0.00029
1340.21939	0.00037
1338.29102	0.00031
1336.36264	0.00016
1334.43427	0.00019
1332.50590	0.00017
1330.57752	0.00026
1328.64915	0.00025
1326.72078	0.00005
1324.79240	0.00017
1322.86403	0.00016
1320.93566	0.00020
1319.00728	0.00022
1317.07891	0.00017
1315.15054	0.00014
1313.22216	0.00016
1311.29379	0.00018
1309.36542	0.00027
1307.43704	0.00031
1305.50867	0.00028
1303.58030	0.00023
1301.65192	0.00021
1299.72355	0.00021
1297.79518	0.00014
1295.86680	0.00014
1293.93843	0.00036
1292.01006	0.00036
1290.08168	0.00012
1288.15331	0.00020
1286.22494	0.00017
1284.29657	0.00012
1282.36819	0.00020
1280.43982	0.00031
1278.51145	0.00034
1276.58307	0.00038
1274.65470	0.00039
1272.72633	0.00028
1270.79795	0.00024
1268.86958	0.00037
1266.94121	0.00048
1265.01283	0.00044
1263.08446	0.00039
1261.15609	0.00030
1259.22771	0.00022
1257.29934	0.00025
1255.37097	0.00027
1253.44259	0.00038
1251.51422	0.00035
1249.58585	0.00024
1247.65747	0.00016
1245.72910	0.00021
1243.80073	0.00041
1241.87235	0.00055
1239.94398	0.00058
1238.01561	0.00036
1236.08723	0.00028
1234.15886	0.00033
1232.23049	0.00040
1230.30212	0.00028
1228.37374	0.00046
1226.44537	0.00068
1224.51700	0.00071
1222.58862	0.00087
1220.66025	0.00104
1218.73188	0.00115
1216.80350	0.00103
1214.87513	0.00101
1212.94676	0.00129
1211.01838	0.00139
1209.09001	0.00090
1207.16164	0.00036
1205.23326	0.00033
1203.30489	0.00045
1201.37652	0.00053
1199.44814	0.00052
1197.51977	0.00068
1195.59140	0.00076
1193.66302	0.00085
1191.73465	0.00088
1189.80628	0.00077
1187.87790	0.00062
1185.94953	0.00054
1184.02116	0.00053
1182.09278	0.00057
1180.16441	0.00063
1178.23604	0.00060
1176.30766	0.00039
1174.37929	0.00036
1172.45092	0.00033
1170.52255	0.00016
1168.59417	0.00018
1166.66580	0.00018
1164.73743	0.00019
1162.80905	0.00043
1160.88068	0.00044
1158.95231	0.00025
1157.02393	0.00022
1155.09556	0.00041
1153.16719	0.00055
1151.23881	0.00056
1149.31044	0.00062
1147.38207	0.00081
1145.45369	0.00108
1143.52532	0.00107
1141.59695	0.00068
1139.66857	0.00048
1137.74020	0.00036
1135.81183	0.00027
1133.88345	0.00020
1131.95508	0.00027
1130.02671	0.00045
1128.09833	0.00041
1126.16996	0.00034
1124.24159	0.00033
1122.31321	0.00052
1120.38484	0.00061
1118.45647	0.00059
1116.52809	0.00059
1114.59972	0.00034
1112.67135	0.00042
1110.74298	0.00063
1108.81460	0.00082
1106.88623	0.00080
1104.95786	0.00032
1103.02948	0.00027
1101.10111	0.00053
1099.17274	0.00059
1097.24436	0.00069
1095.31599	0.00060
1093.38762	0.00041
1091.45924	0.00017
1089.53087	0.00023
1087.60250	0.00013
1085.67412	0.00042
1083.74575	0.00054
1081.81738	0.00034
1079.88900	0.00033
1077.96063	0.00041
1076.03226	0.00032
1074.10388	0.00029
1072.17551	0.00033
1070.24714	0.00023
1068.31876	0.00036
1066.39039	0.00047
1064.46202	0.00060
1062.53364	0.00055
1060.60527	0.00030
1058.67690	0.00040
1056.74853	0.00049
1054.82015	0.00036
1052.89178	0.00034
1050.96341	0.00044
1049.03503	0.00053
1047.10666	0.00042
1045.17829	0.00034
1043.24991	0.00043
1041.32154	0.00029
1039.39317	0.00029
1037.46479	0.00045
1035.53642	0.00048
1033.60805	0.00052
1031.67967	0.00064
1029.75130	0.00058
1027.82293	0.00030
1025.89455	0.00009
1023.96618	0.00026
1022.03781	0.00030
1020.10943	0.00028
1018.18106	0.00041
1016.25269	0.00045
1014.32431	0.00027
1012.39594	0.00010
1010.46757	0.00029
1008.53919	0.00055
1006.61082	0.00069
1004.68245	0.00055
1002.75407	0.00020
1000.82570	0.00036
998.89733	0.00053
996.96896	0.00040
995.04058	0.00056
993.11221	0.00070
991.18384	0.00082
989.25546	0.00113
987.32709	0.00147
985.39872	0.00162
983.47034	0.00162
981.54197	0.00173
979.61360	0.00192
977.68522	0.00210
975.75685	0.00235
973.82848	0.00277
971.90010	0.00345
969.97173	0.00437
968.04336	0.00537
966.11498	0.00645
964.18661	0.00720
962.25824	0.00695
960.32986	0.00556
958.40149	0.00371
956.47312	0.00230
954.54474	0.00170
952.61637	0.00165
950.68800	0.00195
948.75962	0.00262
946.83125	0.00349
944.90288	0.00441
942.97451	0.00535
941.04613	0.00641
939.11776	0.00775
937.18939	0.00942
935.26101	0.01124
933.33264	0.01280
931.40427	0.01380
929.47589	0.01441
927.54752	0.01489
925.61915	0.01507
923.69077	0.01482
921.76240	0.01463
919.83403	0.01487
917.90565	0.01548
915.97728	0.01653
914.04891	0.01786
912.12053	0.01860
910.19216	0.01834
908.26379	0.01737
906.33541	0.01597
904.40704	0.01429
902.47867	0.01261
900.55029	0.01139
898.62192	0.01083
896.69355	0.01068
894.76517	0.01089
892.83680	0.01149
890.90843	0.01242
888.98005	0.01344
887.05168	0.01392
885.12331	0.01382
883.19494	0.01430
881.26656	0.01615
879.33819	0.01855
877.40982	0.02034
875.48144	0.02132
873.55307	0.02181
871.62470	0.02211
869.69632	0.02234
867.76795	0.02243
865.83958	0.02230
863.91120	0.02200
861.98283	0.02150
860.05446	0.02073
858.12608	0.01975
856.19771	0.01885
854.26934	0.01811
852.34096	0.01754
850.41259	0.01744
848.48422	0.01784
846.55584	0.01824
844.62747	0.01833
842.69910	0.01829
840.77072	0.01838
838.84235	0.01859
836.91398	0.01890
834.98560	0.01923
833.05723	0.01930
831.12886	0.01902
829.20049	0.01868
827.27211	0.01831
825.34374	0.01781
823.41537	0.01739
821.48699	0.01714
819.55862	0.01687
817.63025	0.01671
815.70187	0.01671
813.77350	0.01658
811.84513	0.01621
809.91675	0.01553
807.98838	0.01430
806.06001	0.01286
804.13163	0.01190
802.20326	0.01132
800.27489	0.01072
798.34651	0.01002
796.41814	0.00910
794.48977	0.00786
792.56139	0.00654
790.63302	0.00547
788.70465	0.00482
786.77627	0.00467
784.84790	0.00460
782.91953	0.00407
780.99115	0.00329
779.06278	0.00259
777.13441	0.00198
775.20603	0.00159
773.27766	0.00140
771.34929	0.00105
769.42092	0.00083
767.49254	0.00147
765.56417	0.00169
763.63580	0.00114
761.70742	0.00056
759.77905	0.00049
757.85068	0.00062
755.92230	0.00050
753.99393	0.00056
752.06556	0.00033
750.13718	0.00052
748.20881	0.00064
746.28044	0.00074
744.35206	0.00101
742.42369	0.00130
740.49532	0.00157
738.56694	0.00191
736.63857	0.00180
734.71020	0.00158
732.78182	0.00134
730.85345	0.00120
728.92508	0.00142
726.99670	0.00121
725.06833	0.00085
723.13996	0.00082
721.21158	0.00093
719.28321	0.00141
717.35484	0.00177
715.42647	0.00167
713.49809	0.00146
711.56972	0.00124
709.64135	0.00125
707.71297	0.00123
705.78460	0.00129
703.85623	0.00149
701.92785	0.00113
699.99948	0.00133
698.07111	0.00160
696.14273	0.00119
694.21436	0.00103
692.28599	0.00129
690.35761	0.00117
688.42924	0.00127
686.50087	0.00128
684.57249	0.00192
682.64412	0.00248
680.71575	0.00266
678.78737	0.00244
676.85900	0.00309
674.93063	0.00342
673.00225	0.00335
671.07388	0.00302
669.14551	0.00299
667.21713	0.00323
665.28876	0.00313
663.36039	0.00296
661.43201	0.00224
659.50364	0.00114
657.57527	0.00134
655.64690	0.00161
653.71852	0.00174
651.79015	0.00188
649.86178	0.00164
647.93340	0.00170
646.00503	0.00245
644.07666	0.00375
642.14828	0.00429
640.21991	0.00368
638.29154	0.00315
636.36316	0.00338
634.43479	0.00336
632.50642	0.00314
630.57804	0.00259
628.64967	0.00168
626.72130	0.00145
624.79292	0.00105
622.86455	0.00124
620.93618	0.00157
619.00780	0.00330
617.07943	0.00453
615.15106	0.00450
613.22268	0.00350
611.29431	0.00583
609.36594	0.00699
607.43756	0.00435
605.50919	0.00123
603.58082	0.00161
601.65244	0.00277
599.72407	0.00531
