3997.51769	0.17122
3995.58931	0.17141
3993.66094	0.17168
3991.73257	0.17201
3989.80419	0.17231
3987.87582	0.17271
3985.94745	0.17331
3984.01907	0.17404
3982.09070	0.17489
3980.16233	0.17564
3978.23396	0.17596
3976.30558	0.17602
3974.37721	0.17623
3972.44884	0.17652
3970.52046	0.17680
3968.59209	0.17728
3966.66372	0.17796
3964.73534	0.17852
3962.80697	0.17878
3960.87860	0.17880
3958.95022	0.17886
3957.02185	0.17920
3955.09348	0.17974
3953.16510	0.18025
3951.23673	0.18048
3949.30836	0.18034
3947.37998	0.18024
3945.45161	0.18058
3943.52324	0.18114
3941.59486	0.18176
3939.66649	0.18225
3937.73812	0.18243
3935.80974	0.18239
3933.88137	0.18230
3931.95300	0.18225
3930.02462	0.18252
3928.09625	0.18306
3926.16788	0.18342
3924.23950	0.18360
3922.31113	0.18396
3920.38276	0.18428
3918.45439	0.18446
3916.52601	0.18498
3914.59764	0.18589
3912.66927	0.18672
3910.74089	0.18720
3908.81252	0.18734
3906.88415	0.18712
3904.95577	0.18671
3903.02740	0.18669
3901.09903	0.18724
3899.17065	0.18786
3897.24228	0.18849
3895.31391	0.18899
3893.38553	0.18900
3891.45716	0.18903
3889.52879	0.18967
3887.60041	0.19014
3885.67204	0.19004
3883.74367	0.19001
3881.81529	0.19019
3879.88692	0.19061
3877.95855	0.19152
3876.03017	0.19210
3874.10180	0.19205
3872.17343	0.19204
3870.24505	0.19230
3868.31668	0.19263
3866.38831	0.19276
3864.45994	0.19278
3862.53156	0.19339
3860.60319	0.19446
3858.67482	0.19514
3856.74644	0.19542
3854.81807	0.19556
3852.88970	0.19516
3850.96132	0.19495
3849.03295	0.19565
3847.10458	0.19644
3845.17620	0.19658
3843.24783	0.19604
3841.31946	0.19533
3839.39108	0.19504
3837.46271	0.19543
3835.53434	0.19606
3833.60596	0.19649
3831.67759	0.19688
3829.74922	0.19720
3827.82084	0.19725
3825.89247	0.19721
3823.96410	0.19724
3822.03572	0.19697
3820.10735	0.19668
3818.17898	0.19703
3816.25060	0.19771
3814.32223	0.19874
3812.39386	0.19975
3810.46548	0.20003
3808.53711	0.19951
3806.60874	0.19886
3804.68037	0.19855
3802.75199	0.19802
3800.82362	0.19756
3798.89525	0.19788
3796.96687	0.19845
3795.03850	0.19924
3793.11013	0.20010
3791.18175	0.20052
3789.25338	0.20048
3787.32501	0.20019
3785.39663	0.19973
3783.46826	0.19950
3781.53989	0.19939
3779.61151	0.19905
3777.68314	0.19899
3775.75477	0.19939
3773.82639	0.19966
3771.89802	0.19929
3769.96965	0.19846
3768.04127	0.19800
3766.11290	0.19816
3764.18453	0.19850
3762.25615	0.19838
3760.32778	0.19759
3758.39941	0.19687
3756.47103	0.19684
3754.54266	0.19674
3752.61429	0.19600
3750.68591	0.19532
3748.75754	0.19552
3746.82917	0.19580
3744.90080	0.19552
3742.97242	0.19509
3741.04405	0.19500
3739.11568	0.19466
3737.18730	0.19346
3735.25893	0.19208
3733.33056	0.19221
3731.40218	0.19342
3729.47381	0.19412
3727.54544	0.19366
3725.61706	0.19256
3723.68869	0.19179
3721.76032	0.19159
3719.83194	0.19164
3717.90357	0.19160
3715.97520	0.19131
3714.04682	0.19053
3712.11845	0.18904
3710.19008	0.18771
3708.26170	0.18742
3706.33333	0.18724
3704.40496	0.18628
3702.47658	0.18459
3700.54821	0.18295
3698.61984	0.18185
3696.69146	0.18059
3694.76309	0.17866
3692.83472	0.17609
3690.90635	0.17299
3688.97797	0.16986
3687.04960	0.16742
3685.12123	0.16532
3683.19285	0.16266
3681.26448	0.15912
3679.33611	0.15505
3677.40773	0.15054
3675.47936	0.14519
3673.55099	0.14060
3671.62261	0.13713
3669.69424	0.13288
3667.76587	0.12858
3665.83749	0.12499
3663.90912	0.12106
3661.98075	0.11676
3660.05237	0.11255
3658.12400	0.10817
3656.19563	0.10320
3654.26725	0.09852
3652.33888	0.09421
3650.41051	0.08886
3648.48213	0.08310
3646.55376	0.07923
3644.62539	0.07644
3642.69701	0.07344
3640.76864	0.07011
3638.84027	0.06659
3636.91189	0.06300
3634.98352	0.05951
3633.05515	0.05630
3631.12678	0.05334
3629.19840	0.04998
3627.27003	0.04670
3625.34166	0.04452
3623.41328	0.04259
3621.48491	0.04017
3619.55654	0.03728
3617.62816	0.03461
3615.69979	0.03252
3613.77142	0.03064
3611.84304	0.02894
3609.91467	0.02734
3607.98630	0.02552
3606.05792	0.02376
3604.12955	0.02243
3602.20118	0.02116
3600.27280	0.01969
3598.34443	0.01830
3596.41606	0.01707
3594.48768	0.01585
3592.55931	0.01469
3590.63094	0.01365
3588.70256	0.01260
3586.77419	0.01154
3584.84582	0.01064
3582.91744	0.00999
3580.98907	0.00945
3579.06070	0.00878
3577.13233	0.00809
3575.20395	0.00743
3573.27558	0.00680
3571.34721	0.00625
3569.41883	0.00577
3567.49046	0.00522
3565.56209	0.00471
3563.63371	0.00449
3561.70534	0.00434
3559.77697	0.00410
3557.84859	0.00385
3555.92022	0.00364
3553.99185	0.00332
3552.06347	0.00284
3550.13510	0.00232
3548.20673	0.00196
3546.27835	0.00174
3544.34998	0.00160
3542.42161	0.00159
3540.49323	0.00167
3538.56486	0.00165
3536.63649	0.00157
3534.70811	0.00144
3532.77974	0.00127
3530.85137	0.00112
3528.92299	0.00104
3526.99462	0.00097
3525.06625	0.00081
3523.13787	0.00058
3521.20950	0.00045
3519.28113	0.00050
3517.35276	0.00061
3515.42438	0.00054
3513.49601	0.00055
3511.56764	0.00061
3509.63926	0.00065
3507.71089	0.00054
3505.78252	0.00029
3503.85414	0.00020
3501.92577	0.00033
3499.99740	0.00046
3498.06902	0.00037
3496.14065	0.00049
3494.21228	0.00064
3492.28390	0.00070
3490.35553	0.00048
3488.42716	0.00018
3486.49878	0.00038
3484.57041	0.00049
3482.64204	0.00030
3480.71366	0.00027
3478.78529	0.00029
3476.85692	0.00041
3474.92854	0.00046
3473.00017	0.00052
3471.07180	0.00062
3469.14342	0.00054
3467.21505	0.00033
3465.28668	0.00038
3463.35831	0.00044
3461.42993	0.00038
3459.50156	0.00042
3457.57319	0.00047
3455.64481	0.00030
3453.71644	0.00023
3451.78807	0.00035
3449.85969	0.00036
3447.93132	0.00035
3446.00295	0.00033
3444.07457	0.00038
3442.14620	0.00040
3440.21783	0.00035
3438.28945	0.00029
3436.36108	0.00028
3434.43271	0.00015
3432.50433	0.00014
3430.57596	0.00021
3428.64759	0.00011
3426.71921	0.00027
3424.79084	0.00052
3422.86247	0.00051
3420.93409	0.00027
3419.00572	0.00037
3417.07735	0.00035
3415.14897	0.00034
3413.22060	0.00035
3411.29223	0.00034
3409.36385	0.00040
3407.43548	0.00050
3405.50711	0.00038
3403.57874	0.00011
3401.65036	0.00014
3399.72199	0.00021
3397.79362	0.00032
3395.86524	0.00044
3393.93687	0.00037
3392.00850	0.00026
3390.08012	0.00025
3388.15175	0.00012
3386.22338	0.00019
3384.29500	0.00034
3382.36663	0.00048
3380.43826	0.00038
3378.50988	0.00036
3376.58151	0.00038
3374.65314	0.00038
3372.72476	0.00037
3370.79639	0.00022
3368.86802	0.00008
3366.93964	0.00021
3365.01127	0.00020
3363.08290	0.00028
3361.15452	0.00046
3359.22615	0.00043
3357.29778	0.00025
3355.36940	0.00015
3353.44103	0.00025
3351.51266	0.00033
3349.58428	0.00023
3347.65591	0.00016
3345.72754	0.00016
3343.79917	0.00025
3341.87079	0.00031
3339.94242	0.00030
3338.01405	0.00028
3336.08567	0.00031
3334.15730	0.00024
3332.22893	0.00025
3330.30055	0.00032
3328.37218	0.00024
3326.44381	0.00042
3324.51543	0.00029
3322.58706	0.00039
3320.65869	0.00039
3318.73031	0.00039
3316.80194	0.00042
3314.87357	0.00037
3312.94519	0.00029
3311.01682	0.00022
3309.08845	0.00029
3307.16007	0.00033
3305.23170	0.00025
3303.30333	0.00018
3301.37495	0.00008
3299.44658	0.00022
3297.51821	0.00030
3295.58983	0.00023
3293.66146	0.00019
3291.73309	0.00008
3289.80472	0.00026
3287.87634	0.00028
3285.94797	0.00040
3284.01960	0.00049
3282.09122	0.00047
3280.16285	0.00041
3278.23448	0.00053
3276.30610	0.00069
3274.37773	0.00054
3272.44936	0.00027
3270.52098	0.00026
3268.59261	0.00036
3266.66424	0.00041
3264.73586	0.00029
3262.80749	0.00038
3260.87912	0.00050
3258.95074	0.00046
3257.02237	0.00042
3255.09400	0.00033
3253.16562	0.00041
3251.23725	0.00044
3249.30888	0.00036
3247.38050	0.00034
3245.45213	0.00057
3243.52376	0.00063
3241.59538	0.00046
3239.66701	0.00039
3237.73864	0.00038
3235.81026	0.00039
3233.88189	0.00049
3231.95352	0.00049
3230.02515	0.00035
3228.09677	0.00028
3226.16840	0.00028
3224.24003	0.00019
3222.31165	0.00017
3220.38328	0.00027
3218.45491	0.00021
3216.52653	0.00011
3214.59816	0.00026
3212.66979	0.00036
3210.74141	0.00030
3208.81304	0.00032
3206.88467	0.00035
3204.95629	0.00037
3203.02792	0.00042
3201.09955	0.00039
3199.17117	0.00028
3197.24280	0.00023
3195.31443	0.00026
3193.38605	0.00026
3191.45768	0.00025
3189.52931	0.00024
3187.60093	0.00028
3185.67256	0.00016
3183.74419	0.00022
3181.81581	0.00045
3179.88744	0.00046
3177.95907	0.00034
3176.03070	0.00050
3174.10232	0.00063
3172.17395	0.00059
3170.24558	0.00056
3168.31720	0.00052
3166.38883	0.00042
3164.46046	0.00038
3162.53208	0.00046
3160.60371	0.00047
3158.67534	0.00042
3156.74696	0.00052
3154.81859	0.00056
3152.89022	0.00047
3150.96184	0.00046
3149.03347	0.00048
3147.10510	0.00040
3145.17672	0.00037
3143.24835	0.00029
3141.31998	0.00023
3139.39160	0.00039
3137.46323	0.00046
3135.53486	0.00039
3133.60648	0.00022
3131.67811	0.00036
3129.74974	0.00052
3127.82136	0.00053
3125.89299	0.00049
3123.96462	0.00035
3122.03624	0.00048
3120.10787	0.00048
3118.17950	0.00030
3116.25113	0.00039
3114.32275	0.00043
3112.39438	0.00035
3110.46601	0.00029
3108.53763	0.00025
3106.60926	0.00031
3104.68089	0.00029
3102.75251	0.00017
3100.82414	0.00015
3098.89577	0.00018
3096.96739	0.00027
3095.03902	0.00041
3093.11065	0.00051
3091.18227	0.00048
3089.25390	0.00038
3087.32553	0.00033
3085.39715	0.00037
3083.46878	0.00041
3081.54041	0.00038
3079.61203	0.00037
3077.68366	0.00032
3075.75529	0.00044
3073.82691	0.00064
3071.89854	0.00072
3069.97017	0.00074
3068.04179	0.00071
3066.11342	0.00062
3064.18505	0.00060
3062.25668	0.00065
3060.32830	0.00076
3058.39993	0.00089
3056.47156	0.00101
3054.54318	0.00106
3052.61481	0.00105
3050.68644	0.00106
3048.75806	0.00119
3046.82969	0.00138
3044.90132	0.00149
3042.97294	0.00134
3041.04457	0.00116
3039.11620	0.00123
3037.18782	0.00143
3035.25945	0.00164
3033.33108	0.00184
3031.40270	0.00199
3029.47433	0.00198
3027.54596	0.00194
3025.61758	0.00199
3023.68921	0.00203
3021.76084	0.00198
3019.83246	0.00183
3017.90409	0.00173
3015.97572	0.00169
3014.04734	0.00165
3012.11897	0.00162
3010.19060	0.00155
3008.26222	0.00150
3006.33385	0.00156
3004.40548	0.00170
3002.47711	0.00172
3000.54873	0.00160
2998.62036	0.00147
2996.69199	0.00132
2994.76361	0.00124
2992.83524	0.00129
2990.90687	0.00133
2988.97849	0.00129
2987.05012	0.00124
2985.12175	0.00110
2983.19337	0.00089
2981.26500	0.00071
2979.33663	0.00067
2977.40825	0.00069
2975.47988	0.00070
2973.55151	0.00071
2971.62313	0.00069
2969.69476	0.00080
2967.76639	0.00088
2965.83801	0.00077
2963.90964	0.00067
2961.98127	0.00053
2960.05289	0.00045
2958.12452	0.00053
2956.19615	0.00061
2954.26777	0.00043
2952.33940	0.00038
2950.41103	0.00048
2948.48266	0.00059
2946.55428	0.00063
2944.62591	0.00059
2942.69754	0.00041
2940.76916	0.00031
2938.84079	0.00029
2936.91242	0.00024
2934.98404	0.00027
2933.05567	0.00021
2931.12730	0.00017
2929.19892	0.00020
2927.27055	0.00024
2925.34218	0.00029
2923.41380	0.00049
2921.48543	0.00056
2919.55706	0.00053
2917.62868	0.00048
2915.70031	0.00048
2913.77194	0.00048
2911.84356	0.00037
2909.91519	0.00041
2907.98682	0.00060
2906.05844	0.00080
2904.13007	0.00094
2902.20170	0.00097
2900.27332	0.00079
2898.34495	0.00063
2896.41658	0.00065
2894.48820	0.00058
2892.55983	0.00049
2890.63146	0.00046
2888.70309	0.00042
2886.77471	0.00037
2884.84634	0.00033
2882.91797	0.00041
2880.98959	0.00046
2879.06122	0.00048
2877.13285	0.00050
2875.20447	0.00049
2873.27610	0.00046
2871.34773	0.00050
2869.41935	0.00062
2867.49098	0.00062
2865.56261	0.00077
2863.63423	0.00106
2861.70586	0.00128
2859.77749	0.00146
2857.84911	0.00160
2855.92074	0.00169
2853.99237	0.00183
2852.06399	0.00192
2850.13562	0.00193
2848.20725	0.00213
2846.27887	0.00263
2844.35050	0.00320
2842.42213	0.00365
2840.49375	0.00398
2838.56538	0.00415
2836.63701	0.00426
2834.70863	0.00437
2832.78026	0.00453
2830.85189	0.00477
2828.92352	0.00503
2826.99514	0.00526
2825.06677	0.00544
2823.13840	0.00566
2821.21002	0.00594
2819.28165	0.00615
2817.35328	0.00623
2815.42490	0.00637
2813.49653	0.00664
2811.56816	0.00685
2809.63978	0.00696
2807.71141	0.00721
2805.78304	0.00764
2803.85466	0.00801
2801.92629	0.00820
2799.99792	0.00834
2798.06954	0.00854
2796.14117	0.00874
2794.21280	0.00899
2792.28442	0.00938
2790.35605	0.00972
2788.42768	0.00990
2786.49930	0.01003
2784.57093	0.01030
2782.64256	0.01067
2780.71418	0.01088
2778.78581	0.01093
2776.85744	0.01099
2774.92907	0.01114
2773.00069	0.01132
2771.07232	0.01152
2769.14395	0.01173
2767.21557	0.01188
2765.28720	0.01195
2763.35883	0.01211
2761.43045	0.01243
2759.50208	0.01273
2757.57371	0.01297
2755.64533	0.01324
2753.71696	0.01351
2751.78859	0.01373
2749.86021	0.01396
2747.93184	0.01425
2746.00347	0.01448
2744.07509	0.01462
2742.14672	0.01477
2740.21835	0.01499
2738.28997	0.01521
2736.36160	0.01539
2734.43323	0.01557
2732.50485	0.01574
2730.57648	0.01589
2728.64811	0.01609
2726.71973	0.01636
2724.79136	0.01657
2722.86299	0.01675
2720.93461	0.01698
2719.00624	0.01720
2717.07787	0.01743
2715.14950	0.01768
2713.22112	0.01796
2711.29275	0.01829
2709.36438	0.01861
2707.43600	0.01885
2705.50763	0.01906
2703.57926	0.01932
2701.65088	0.01962
2699.72251	0.01991
2697.79414	0.02016
2695.86576	0.02036
2693.93739	0.02054
2692.00902	0.02069
2690.08064	0.02083
2688.15227	0.02097
2686.22390	0.02121
2684.29552	0.02152
2682.36715	0.02181
2680.43878	0.02206
2678.51040	0.02229
2676.58203	0.02253
2674.65366	0.02285
2672.72528	0.02326
2670.79691	0.02364
2668.86854	0.02391
2666.94016	0.02409
2665.01179	0.02430
2663.08342	0.02453
2661.15505	0.02476
2659.22667	0.02505
2657.29830	0.02537
2655.36993	0.02561
2653.44155	0.02574
2651.51318	0.02579
2649.58481	0.02592
2647.65643	0.02624
2645.72806	0.02655
2643.79969	0.02671
2641.87131	0.02685
2639.94294	0.02703
2638.01457	0.02722
2636.08619	0.02746
2634.15782	0.02776
2632.22945	0.02807
2630.30107	0.02830
2628.37270	0.02846
2626.44433	0.02865
2624.51595	0.02887
2622.58758	0.02901
2620.65921	0.02913
2618.73083	0.02941
2616.80246	0.02989
2614.87409	0.03041
2612.94571	0.03078
2611.01734	0.03105
2609.08897	0.03130
2607.16059	0.03158
2605.23222	0.03185
2603.30385	0.03212
2601.37548	0.03239
2599.44710	0.03268
2597.51873	0.03302
2595.59036	0.03331
2593.66198	0.03345
2591.73361	0.03354
2589.80524	0.03370
2587.87686	0.03398
2585.94849	0.03433
2584.02012	0.03469
2582.09174	0.03504
2580.16337	0.03535
2578.23500	0.03555
2576.30662	0.03573
2574.37825	0.03601
2572.44988	0.03638
2570.52150	0.03675
2568.59313	0.03715
2566.66476	0.03756
2564.73638	0.03792
2562.80801	0.03841
2560.87964	0.03912
2558.95126	0.03980
2557.02289	0.04030
2555.09452	0.04072
2553.16614	0.04114
2551.23777	0.04158
2549.30940	0.04200
2547.38103	0.04234
2545.45265	0.04259
2543.52428	0.04278
2541.59591	0.04300
2539.66753	0.04336
2537.73916	0.04371
2535.81079	0.04391
2533.88241	0.04407
2531.95404	0.04427
2530.02567	0.04457
2528.09729	0.04505
2526.16892	0.04554
2524.24055	0.04587
2522.31217	0.04612
2520.38380	0.04643
2518.45543	0.04679
2516.52705	0.04717
2514.59868	0.04754
2512.67031	0.04789
2510.74193	0.04816
2508.81356	0.04838
2506.88519	0.04866
2504.95681	0.04899
2503.02844	0.04936
2501.10007	0.04984
2499.17169	0.05030
2497.24332	0.05068
2495.31495	0.05105
2493.38657	0.05142
2491.45820	0.05179
2489.52983	0.05217
2487.60146	0.05256
2485.67308	0.05293
2483.74471	0.05330
2481.81634	0.05369
2479.88796	0.05406
2477.95959	0.05441
2476.03122	0.05475
2474.10284	0.05510
2472.17447	0.05557
2470.24610	0.05619
2468.31772	0.05679
2466.38935	0.05719
2464.46098	0.05744
2462.53260	0.05781
2460.60423	0.05828
2458.67586	0.05875
2456.74748	0.05920
2454.81911	0.05963
2452.89074	0.06001
2450.96236	0.06043
2449.03399	0.06089
2447.10562	0.06127
2445.17724	0.06154
2443.24887	0.06193
2441.32050	0.06249
2439.39212	0.06302
2437.46375	0.06336
2435.53538	0.06367
2433.60700	0.06412
2431.67863	0.06463
2429.75026	0.06509
2427.82189	0.06554
2425.89351	0.06605
2423.96514	0.06652
2422.03677	0.06685
2420.10839	0.06715
2418.18002	0.06754
2416.25165	0.06797
2414.32327	0.06836
2412.39490	0.06866
2410.46653	0.06899
2408.53815	0.06944
2406.60978	0.06997
2404.68141	0.07048
2402.75303	0.07092
2400.82466	0.07140
2398.89629	0.07197
2396.96791	0.07253
2395.03954	0.07302
2393.11117	0.07348
2391.18279	0.07393
2389.25442	0.07432
2387.32605	0.07466
2385.39767	0.07496
2383.46930	0.07522
2381.54093	0.07545
2379.61255	0.07565
2377.68418	0.07576
2375.75581	0.07572
2373.82744	0.07558
2371.89906	0.07542
2369.97069	0.07532
2368.04232	0.07537
2366.11394	0.07561
2364.18557	0.07591
2362.25720	0.07600
2360.32882	0.07604
2358.40045	0.07649
2356.47208	0.07730
2354.54370	0.07814
2352.61533	0.07882
2350.68696	0.07927
2348.75858	0.07944
2346.83021	0.07938
2344.90184	0.07925
2342.97346	0.07936
2341.04509	0.07976
2339.11672	0.08022
2337.18834	0.08054
2335.25997	0.08072
2333.33160	0.08091
2331.40322	0.08119
2329.47485	0.08156
2327.54648	0.08201
2325.61810	0.08243
2323.68973	0.08276
2321.76136	0.08317
2319.83298	0.08388
2317.90461	0.08485
2315.97624	0.08586
2314.04787	0.08679
2312.11949	0.08762
2310.19112	0.08841
2308.26275	0.08920
2306.33437	0.08994
2304.40600	0.09067
2302.47763	0.09145
2300.54925	0.09226
2298.62088	0.09306
2296.69251	0.09381
2294.76413	0.09446
2292.83576	0.09505
2290.90739	0.09562
2288.97901	0.09607
2287.05064	0.09645
2285.12227	0.09693
2283.19389	0.09744
2281.26552	0.09785
2279.33715	0.09815
2277.40877	0.09839
2275.48040	0.09862
2273.55203	0.09897
2271.62365	0.09944
2269.69528	0.09990
2267.76691	0.10025
2265.83853	0.10052
2263.91016	0.10079
2261.98179	0.10113
2260.05342	0.10158
2258.12504	0.10207
2256.19667	0.10252
2254.26830	0.10297
2252.33992	0.10340
2250.41155	0.10386
2248.48318	0.10436
2246.55480	0.10487
2244.62643	0.10544
2242.69806	0.10598
2240.76968	0.10642
2238.84131	0.10685
2236.91294	0.10726
2234.98456	0.10756
2233.05619	0.10780
2231.12782	0.10810
2229.19944	0.10847
2227.27107	0.10887
2225.34270	0.10918
2223.41432	0.10935
2221.48595	0.10950
2219.55758	0.10968
2217.62920	0.10981
2215.70083	0.10991
2213.77246	0.11005
2211.84408	0.11024
2209.91571	0.11042
2207.98734	0.11060
2206.05896	0.11079
2204.13059	0.11097
2202.20222	0.11111
2200.27385	0.11119
2198.34547	0.11126
2196.41710	0.11138
2194.48873	0.11153
2192.56035	0.11163
2190.63198	0.11162
2188.70361	0.11166
2186.77523	0.11188
2184.84686	0.11213
2182.91849	0.11230
2180.99011	0.11245
2179.06174	0.11257
2177.13337	0.11263
2175.20499	0.11269
2173.27662	0.11276
2171.34825	0.11284
2169.41987	0.11296
2167.49150	0.11309
2165.56313	0.11319
2163.63475	0.11330
2161.70638	0.11342
2159.77801	0.11357
2157.84963	0.11373
2155.92126	0.11390
2153.99289	0.11411
2152.06451	0.11433
2150.13614	0.11456
2148.20777	0.11480
2146.27940	0.11509
2144.35102	0.11544
2142.42265	0.11580
2140.49428	0.11609
2138.56590	0.11631
2136.63753	0.11654
2134.70916	0.11684
2132.78078	0.11713
2130.85241	0.11732
2128.92404	0.11746
2126.99566	0.11772
2125.06729	0.11812
2123.13892	0.11858
2121.21054	0.11903
2119.28217	0.11951
2117.35380	0.12007
2115.42542	0.12060
2113.49705	0.12103
2111.56868	0.12142
2109.64030	0.12187
2107.71193	0.12233
2105.78356	0.12274
2103.85518	0.12310
2101.92681	0.12345
2099.99844	0.12380
2098.07006	0.12406
2096.14169	0.12421
2094.21332	0.12438
2092.28494	0.12462
2090.35657	0.12487
2088.42820	0.12511
2086.49983	0.12532
2084.57145	0.12550
2082.64308	0.12565
2080.71471	0.12576
2078.78633	0.12588
2076.85796	0.12601
2074.92959	0.12616
2073.00121	0.12637
2071.07284	0.12669
2069.14447	0.12701
2067.21609	0.12726
2065.28772	0.12748
2063.35935	0.12779
2061.43097	0.12824
2059.50260	0.12878
2057.57423	0.12932
2055.64585	0.12984
2053.71748	0.13041
2051.78911	0.13104
2049.86073	0.13162
2047.93236	0.13212
2046.00399	0.13259
2044.07561	0.13308
2042.14724	0.13361
2040.21887	0.13416
2038.29049	0.13469
2036.36212	0.13513
2034.43375	0.13548
2032.50538	0.13576
2030.57700	0.13601
2028.64863	0.13632
2026.72026	0.13665
2024.79188	0.13691
2022.86351	0.13714
2020.93514	0.13739
2019.00676	0.13760
2017.07839	0.13782
2015.15002	0.13811
2013.22164	0.13852
2011.29327	0.13908
2009.36490	0.13971
2007.43652	0.14022
2005.50815	0.14062
2003.57978	0.14107
2001.65140	0.14155
1999.72303	0.14197
1997.79466	0.14236
1995.86628	0.14272
1993.93791	0.14296
1992.00954	0.14325
1990.08116	0.14375
1988.15279	0.14424
1986.22442	0.14455
1984.29604	0.14479
1982.36767	0.14510
1980.43930	0.14547
1978.51092	0.14581
1976.58255	0.14605
1974.65418	0.14631
1972.72581	0.14664
1970.79743	0.14695
1968.86906	0.14714
1966.94069	0.14736
1965.01231	0.14776
1963.08394	0.14820
1961.15557	0.14859
1959.22719	0.14897
1957.29882	0.14934
1955.37045	0.14971
1953.44207	0.15015
1951.51370	0.15065
1949.58533	0.15112
1947.65695	0.15146
1945.72858	0.15167
1943.80021	0.15178
1941.87183	0.15212
1939.94346	0.15282
1938.01509	0.15350
1936.08671	0.15390
1934.15834	0.15414
1932.22997	0.15437
1930.30159	0.15465
1928.37322	0.15487
1926.44485	0.15488
1924.51647	0.15464
1922.58810	0.15452
1920.65973	0.15466
1918.73135	0.15482
1916.80298	0.15519
1914.87461	0.15577
1912.94624	0.15610
1911.01786	0.15607
1909.08949	0.15601
1907.16112	0.15616
1905.23274	0.15633
1903.30437	0.15636
1901.37600	0.15635
1899.44762	0.15634
1897.51925	0.15618
1895.59088	0.15599
1893.66250	0.15590
1891.73413	0.15566
1889.80576	0.15537
1887.87738	0.15553
1885.94901	0.15594
1884.02064	0.15621
1882.09226	0.15643
1880.16389	0.15666
1878.23552	0.15692
1876.30714	0.15711
1874.37877	0.15716
1872.45040	0.15694
1870.52202	0.15629
1868.59365	0.15575
1866.66528	0.15611
1864.73690	0.15684
1862.80853	0.15714
1860.88016	0.15708
1858.95179	0.15703
1857.02341	0.15706
1855.09504	0.15702
1853.16667	0.15684
1851.23829	0.15654
1849.30992	0.15610
1847.38155	0.15547
1845.45317	0.15470
1843.52480	0.15449
1841.59643	0.15511
1839.66805	0.15554
1837.73968	0.15539
1835.81131	0.15516
1833.88293	0.15495
1831.95456	0.15428
1830.02619	0.15333
1828.09781	0.15294
1826.16944	0.15288
1824.24107	0.15279
1822.31269	0.15282
1820.38432	0.15266
1818.45595	0.15210
1816.52757	0.15138
1814.59920	0.15051
1812.67083	0.14930
1810.74245	0.14796
1808.81408	0.14697
1806.88571	0.14610
1804.95733	0.14490
1803.02896	0.14327
1801.10059	0.14147
1799.17222	0.14000
1797.24384	0.13873
1795.31547	0.13703
1793.38710	0.13475
1791.45872	0.13278
1789.53035	0.13176
1787.60198	0.13066
1785.67360	0.12889
1783.74523	0.12678
1781.81686	0.12460
1779.88848	0.12243
1777.96011	0.12038
1776.03174	0.11807
1774.10336	0.11501
1772.17499	0.11146
1770.24662	0.10851
1768.31824	0.10609
1766.38987	0.10337
1764.46150	0.10007
1762.53312	0.09573
1760.60475	0.09066
1758.67638	0.08557
1756.74800	0.07989
1754.81963	0.07379
1752.89126	0.06735
1750.96288	0.05956
1749.03451	0.05103
1747.10614	0.04329
1745.17777	0.03621
1743.24939	0.02953
1741.32102	0.02334
1739.39265	0.01773
1737.46427	0.01344
1735.53590	0.01026
1733.60753	0.00722
1731.67915	0.00490
1729.75078	0.00348
1727.82241	0.00249
1725.89403	0.00179
1723.96566	0.00128
1722.03729	0.00089
1720.10891	0.00058
1718.18054	0.00034
1716.25217	0.00031
1714.32379	0.00035
1712.39542	0.00032
1710.46705	0.00025
1708.53867	0.00013
1706.61030	0.00012
1704.68193	0.00010
1702.75355	0.00027
1700.82518	0.00044
1698.89681	0.00039
1696.96843	0.00039
1695.04006	0.00035
1693.11169	0.00026
1691.18331	0.00015
1689.25494	0.00008
1687.32657	0.00015
1685.39820	0.00024
1683.46982	0.00035
1681.54145	0.00027
1679.61308	0.00013
1677.68470	0.00018
1675.75633	0.00028
1673.82796	0.00036
1671.89958	0.00026
1669.97121	0.00015
1668.04284	0.00015
1666.11446	0.00020
1664.18609	0.00029
1662.25772	0.00032
1660.32934	0.00027
1658.40097	0.00017
1656.47260	0.00019
1654.54422	0.00024
1652.61585	0.00016
1650.68748	0.00013
1648.75910	0.00026
1646.83073	0.00031
1644.90236	0.00019
1642.97398	0.00019
1641.04561	0.00021
1639.11724	0.00011
1637.18886	0.00013
1635.26049	0.00012
1633.33212	0.00022
1631.40375	0.00025
1629.47537	0.00017
1627.54700	0.00016
1625.61863	0.00027
1623.69025	0.00030
1621.76188	0.00021
1619.83351	0.00016
1617.90513	0.00027
1615.97676	0.00019
1614.04839	0.00014
1612.12001	0.00020
1610.19164	0.00020
1608.26327	0.00006
1606.33489	0.00015
1604.40652	0.00021
1602.47815	0.00022
1600.54977	0.00018
1598.62140	0.00021
1596.69303	0.00028
1594.76465	0.00028
1592.83628	0.00018
1590.90791	0.00012
1588.97953	0.00018
1587.05116	0.00020
1585.12279	0.00007
1583.19441	0.00015
1581.26604	0.00015
1579.33767	0.00008
1577.40929	0.00013
1575.48092	0.00022
1573.55255	0.00023
1571.62418	0.00017
1569.69580	0.00014
1567.76743	0.00024
1565.83906	0.00027
1563.91068	0.00025
1561.98231	0.00033
1560.05394	0.00031
1558.12556	0.00024
1556.19719	0.00023
1554.26882	0.00012
1552.34044	0.00017
1550.41207	0.00023
1548.48370	0.00024
1546.55532	0.00025
1544.62695	0.00022
1542.69858	0.00021
1540.77020	0.00027
1538.84183	0.00014
1536.91346	0.00019
1534.98508	0.00021
1533.05671	0.00013
1531.12834	0.00014
1529.19996	0.00019
1527.27159	0.00027
1525.34322	0.00026
1523.41484	0.00023
1521.48647	0.00019
1519.55810	0.00041
1517.62972	0.00040
1515.70135	0.00028
1513.77298	0.00022
1511.84461	0.00021
1509.91623	0.00015
1507.98786	0.00018
1506.05949	0.00019
1504.13111	0.00018
1502.20274	0.00022
1500.27437	0.00023
1498.34599	0.00017
1496.41762	0.00029
1494.48925	0.00039
1492.56087	0.00048
1490.63250	0.00065
1488.70413	0.00076
1486.77575	0.00073
1484.84738	0.00073
1482.91901	0.00074
1480.99063	0.00073
1479.06226	0.00075
1477.13389	0.00069
1475.20551	0.00047
1473.27714	0.00032
1471.34877	0.00030
1469.42039	0.00027
1467.49202	0.00024
1465.56365	0.00021
1463.63527	0.00015
1461.70690	0.00019
1459.77853	0.00032
1457.85016	0.00039
1455.92178	0.00023
1453.99341	0.00017
1452.06504	0.00021
1450.13666	0.00021
1448.20829	0.00033
1446.27992	0.00022
1444.35154	0.00010
1442.42317	0.00019
1440.49480	0.00014
1438.56642	0.00017
1436.63805	0.00019
1434.70968	0.00015
1432.78130	0.00014
1430.85293	0.00018
1428.92456	0.00018
1426.99618	0.00020
1425.06781	0.00020
1423.13944	0.00022
1421.21106	0.00025
1419.28269	0.00027
1417.35432	0.00021
1415.42594	0.00014
1413.49757	0.00023
1411.56920	0.00026
1409.64082	0.00017
1407.71245	0.00022
1405.78408	0.00034
1403.85570	0.00034
1401.92733	0.00036
1399.99896	0.00030
1398.07059	0.00017
1396.14221	0.00020
1394.21384	0.00019
1392.28547	0.00013
1390.35709	0.00021
1388.42872	0.00028
1386.50035	0.00016
1384.57197	0.00020
1382.64360	0.00008
1380.71523	0.00018
1378.78685	0.00016
1376.85848	0.00021
1374.93011	0.00024
1373.00173	0.00024
1371.07336	0.00015
1369.14499	0.00016
1367.21661	0.00025
1365.28824	0.00027
1363.35987	0.00032
1361.43149	0.00037
1359.50312	0.00049
1357.57475	0.00063
1355.64637	0.00074
1353.71800	0.00086
1351.78963	0.00089
1349.86125	0.00082
1347.93288	0.00082
1346.00451	0.00076
1344.07614	0.00062
1342.14776	0.00054
1340.21939	0.00048
1338.29102	0.00032
1336.36264	0.00034
1334.43427	0.00048
1332.50590	0.00044
1330.57752	0.00028
1328.64915	0.00025
1326.72078	0.00028
1324.79240	0.00026
1322.86403	0.00019
1320.93566	0.00021
1319.00728	0.00026
1317.07891	0.00019
1315.15054	0.00014
1313.22216	0.00021
1311.29379	0.00031
1309.36542	0.00033
1307.43704	0.00026
1305.50867	0.00024
1303.58030	0.00016
1301.65192	0.00025
1299.72355	0.00038
1297.79518	0.00052
1295.86680	0.00058
1293.93843	0.00059
1292.01006	0.00055
1290.08168	0.00046
1288.15331	0.00044
1286.22494	0.00044
1284.29657	0.00043
1282.36819	0.00042
1280.43982	0.00044
1278.51145	0.00049
1276.58307	0.00051
1274.65470	0.00050
1272.72633	0.00063
1270.79795	0.00072
1268.86958	0.00063
1266.94121	0.00048
1265.01283	0.00049
1263.08446	0.00055
1261.15609	0.00062
1259.22771	0.00075
1257.29934	0.00069
1255.37097	0.00042
1253.44259	0.00027
1251.51422	0.00040
1249.58585	0.00053
1247.65747	0.00058
1245.72910	0.00058
1243.80073	0.00063
1241.87235	0.00064
1239.94398	0.00061
1238.01561	0.00059
1236.08723	0.00053
1234.15886	0.00037
1232.23049	0.00038
1230.30212	0.00036
1228.37374	0.00034
1226.44537	0.00042
1224.51700	0.00054
1222.58862	0.00056
1220.66025	0.00043
1218.73188	0.00039
1216.80350	0.00061
1214.87513	0.00092
1212.94676	0.00118
1211.01838	0.00118
1209.09001	0.00094
1207.16164	0.00089
1205.23326	0.00114
1203.30489	0.00153
1201.37652	0.00180
1199.44814	0.00185
1197.51977	0.00184
1195.59140	0.00186
1193.66302	0.00190
1191.73465	0.00195
1189.80628	0.00181
1187.87790	0.00150
1185.94953	0.00110
1184.02116	0.00088
1182.09278	0.00074
1180.16441	0.00047
1178.23604	0.00032
1176.30766	0.00027
1174.37929	0.00023
1172.45092	0.00048
1170.52255	0.00064
1168.59417	0.00058
1166.66580	0.00047
1164.73743	0.00034
1162.80905	0.00032
1160.88068	0.00056
1158.95231	0.00061
1157.02393	0.00065
1155.09556	0.00065
1153.16719	0.00064
1151.23881	0.00058
1149.31044	0.00046
1147.38207	0.00022
1145.45369	0.00036
1143.52532	0.00054
1141.59695	0.00061
1139.66857	0.00046
1137.74020	0.00026
1135.81183	0.00030
1133.88345	0.00024
1131.95508	0.00024
1130.02671	0.00039
1128.09833	0.00052
1126.16996	0.00034
1124.24159	0.00078
1122.31321	0.00107
1120.38484	0.00111
1118.45647	0.00098
1116.52809	0.00069
1114.59972	0.00042
1112.67135	0.00061
1110.74298	0.00065
1108.81460	0.00031
1106.88623	0.00060
1104.95786	0.00064
1103.02948	0.00051
1101.10111	0.00039
1099.17274	0.00032
1097.24436	0.00032
1095.31599	0.00058
1093.38762	0.00072
1091.45924	0.00071
1089.53087	0.00060
1087.60250	0.00042
1085.67412	0.00049
1083.74575	0.00060
1081.81738	0.00042
1079.88900	0.00016
1077.96063	0.00051
1076.03226	0.00074
1074.10388	0.00078
1072.17551	0.00068
1070.24714	0.00056
1068.31876	0.00044
1066.39039	0.00027
1064.46202	0.00025
1062.53364	0.00030
1060.60527	0.00037
1058.67690	0.00041
1056.74853	0.00035
1054.82015	0.00037
1052.89178	0.00029
1050.96341	0.00049
1049.03503	0.00057
1047.10666	0.00045
1045.17829	0.00032
1043.24991	0.00036
1041.32154	0.00050
1039.39317	0.00060
1037.46479	0.00043
1035.53642	0.00024
1033.60805	0.00029
1031.67967	0.00031
1029.75130	0.00030
1027.82293	0.00026
1025.89455	0.00032
1023.96618	0.00034
1022.03781	0.00039
1020.10943	0.00036
1018.18106	0.00025
1016.25269	0.00016
1014.32431	0.00026
1012.39594	0.00027
1010.46757	0.00020
1008.53919	0.00027
1006.61082	0.00047
1004.68245	0.00060
1002.75407	0.00044
1000.82570	0.00055
998.89733	0.00089
996.96896	0.00106
995.04058	0.00117
993.11221	0.00137
991.18384	0.00170
989.25546	0.00219
987.32709	0.00279
985.39872	0.00332
983.47034	0.00364
981.54197	0.00390
979.61360	0.00408
977.68522	0.00411
975.75685	0.00421
973.82848	0.00460
971.90010	0.00538
969.97173	0.00659
968.04336	0.00811
966.11498	0.00963
964.18661	0.01054
962.25824	0.01029
960.32986	0.00875
958.40149	0.00631
956.47312	0.00399
954.54474	0.00288
952.61637	0.00308
950.68800	0.00400
948.75962	0.00506
946.83125	0.00602
944.90288	0.00697
942.97451	0.00813
941.04613	0.00973
939.11776	0.01182
937.18939	0.01406
935.26101	0.01609
933.33264	0.01783
931.40427	0.01931
929.47589	0.02042
927.54752	0.02088
925.61915	0.02068
923.69077	0.02029
921.76240	0.02019
919.83403	0.02068
917.90565	0.02201
915.97728	0.02380
914.04891	0.02508
912.12053	0.02536
910.19216	0.02473
908.26379	0.02344
906.33541	0.02168
904.40704	0.01954
902.47867	0.01731
900.55029	0.01571
898.62192	0.01504
896.69355	0.01509
894.76517	0.01563
892.83680	0.01663
890.90843	0.01789
888.98005	0.01879
887.05168	0.01879
885.12331	0.01823
883.19494	0.01836
881.26656	0.01988
879.33819	0.02201
877.40982	0.02373
875.48144	0.02474
873.55307	0.02520
871.62470	0.02558
869.69632	0.02590
867.76795	0.02596
865.83958	0.02590
863.91120	0.02570
861.98283	0.02512
860.05446	0.02431
858.12608	0.02360
856.19771	0.02291
854.26934	0.02216
852.34096	0.02154
850.41259	0.02128
848.48422	0.02119
846.55584	0.02100
844.62747	0.02068
842.69910	0.02031
840.77072	0.02008
838.84235	0.02012
836.91398	0.02014
834.98560	0.02004
833.05723	0.01998
831.12886	0.01998
829.20049	0.01992
827.27211	0.01976
825.34374	0.01948
823.41537	0.01915
821.48699	0.01885
819.55862	0.01872
817.63025	0.01895
815.70187	0.01925
813.77350	0.01903
811.84513	0.01809
809.91675	0.01698
807.98838	0.01638
806.06001	0.01603
804.13163	0.01531
802.20326	0.01428
800.27489	0.01314
798.34651	0.01198
796.41814	0.01099
794.48977	0.01014
792.56139	0.00910
790.63302	0.00788
788.70465	0.00675
786.77627	0.00602
784.84790	0.00576
782.91953	0.00548
780.99115	0.00472
779.06278	0.00382
777.13441	0.00327
775.20603	0.00294
773.27766	0.00261
771.34929	0.00223
769.42092	0.00170
767.49254	0.00126
765.56417	0.00101
763.63580	0.00098
761.70742	0.00119
759.77905	0.00113
757.85068	0.00103
755.92230	0.00103
753.99393	0.00099
752.06556	0.00081
750.13718	0.00076
748.20881	0.00091
746.28044	0.00115
744.35206	0.00168
742.42369	0.00209
740.49532	0.00207
738.56694	0.00192
736.63857	0.00208
734.71020	0.00238
732.78182	0.00250
730.85345	0.00258
728.92508	0.00261
726.99670	0.00260
725.06833	0.00253
723.13996	0.00221
721.21158	0.00214
719.28321	0.00251
717.35484	0.00268
715.42647	0.00236
713.49809	0.00187
711.56972	0.00142
709.64135	0.00113
707.71297	0.00138
705.78460	0.00213
703.85623	0.00283
701.92785	0.00292
699.99948	0.00263
698.07111	0.00232
696.14273	0.00218
694.21436	0.00228
692.28599	0.00261
690.35761	0.00270
688.42924	0.00241
686.50087	0.00247
684.57249	0.00290
682.64412	0.00306
680.71575	0.00269
678.78737	0.00233
676.85900	0.00248
674.93063	0.00288
673.00225	0.00302
671.07388	0.00311
669.14551	0.00335
667.21713	0.00336
665.28876	0.00376
663.36039	0.00426
661.43201	0.00383
659.50364	0.00373
657.57527	0.00395
655.64690	0.00362
653.71852	0.00334
651.79015	0.00280
649.86178	0.00215
647.93340	0.00198
646.00503	0.00161
644.07666	0.00164
642.14828	0.00168
640.21991	0.00196
638.29154	0.00313
636.36316	0.00426
634.43479	0.00345
632.50642	0.00262
630.57804	0.00211
628.64967	0.00156
626.72130	0.00191
624.79292	0.00189
622.86455	0.00202
620.93618	0.00247
619.00780	0.00336
617.07943	0.00375
615.15106	0.00387
613.22268	0.00390
611.29431	0.00386
609.36594	0.00394
607.43756	0.00306
605.50919	0.00205
603.58082	0.00253
601.65244	0.00479
599.72407	0.00574
