3997.51769	0.25685
3995.58931	0.25714
3993.66094	0.25752
3991.73257	0.25784
3989.80419	0.25834
3987.87582	0.25941
3985.94745	0.26083
3984.01907	0.26224
3982.09070	0.26357
3980.16233	0.26461
3978.23396	0.26510
3976.30558	0.26529
3974.37721	0.26565
3972.44884	0.26619
3970.52046	0.26678
3968.59209	0.26755
3966.66372	0.26860
3964.73534	0.26939
3962.80697	0.26959
3960.87860	0.26979
3958.95022	0.27039
3957.02185	0.27112
3955.09348	0.27174
3953.16510	0.27202
3951.23673	0.27165
3949.30836	0.27104
3947.37998	0.27123
3945.45161	0.27181
3943.52324	0.27190
3941.59486	0.27280
3939.66649	0.27483
3937.73812	0.27623
3935.80974	0.27619
3933.88137	0.27486
3931.95300	0.27354
3930.02462	0.27410
3928.09625	0.27569
3926.16788	0.27614
3924.23950	0.27593
3922.31113	0.27642
3920.38276	0.27668
3918.45439	0.27628
3916.52601	0.27699
3914.59764	0.27947
3912.66927	0.28191
3910.74089	0.28297
3908.81252	0.28259
3906.88415	0.28021
3904.95577	0.27605
3903.02740	0.27305
3901.09903	0.27338
3899.17065	0.27646
3897.24228	0.28099
3895.31391	0.28393
3893.38553	0.28332
3891.45716	0.28200
3889.52879	0.28327
3887.60041	0.28403
3885.67204	0.28260
3883.74367	0.28192
3881.81529	0.28203
3879.88692	0.28330
3877.95855	0.28667
3876.03017	0.28785
3874.10180	0.28579
3872.17343	0.28355
3870.24505	0.28258
3868.31668	0.28389
3866.38831	0.28534
3864.45994	0.28519
3862.53156	0.28686
3860.60319	0.29060
3858.67482	0.29211
3856.74644	0.28974
3854.81807	0.28418
3852.88970	0.28051
3850.96132	0.28551
3849.03295	0.29234
3847.10458	0.29563
3845.17620	0.29490
3843.24783	0.29161
3841.31946	0.28765
3839.39108	0.28457
3837.46271	0.28461
3835.53434	0.28773
3833.60596	0.29075
3831.67759	0.29305
3829.74922	0.29501
3827.82084	0.29569
3825.89247	0.29535
3823.96410	0.29379
3822.03572	0.28971
3820.10735	0.28759
3818.17898	0.29008
3816.25060	0.29293
3814.32223	0.29687
3812.39386	0.30109
3810.46548	0.30205
3808.53711	0.29918
3806.60874	0.29557
3804.68037	0.29370
3802.75199	0.29121
3800.82362	0.29003
3798.89525	0.29286
3796.96687	0.29595
3795.03850	0.29917
3793.11013	0.30273
3791.18175	0.30450
3789.25338	0.30434
3787.32501	0.30306
3785.39663	0.30161
3783.46826	0.30133
3781.53989	0.30079
3779.61151	0.29935
3777.68314	0.30020
3775.75477	0.30281
3773.82639	0.30339
3771.89802	0.30089
3769.96965	0.29763
3768.04127	0.29649
3766.11290	0.29694
3764.18453	0.29804
3762.25615	0.29820
3760.32778	0.29562
3758.39941	0.29308
3756.47103	0.29292
3754.54266	0.29145
3752.61429	0.28607
3750.68591	0.28081
3748.75754	0.28165
3746.82917	0.28379
3744.90080	0.28359
3742.97242	0.28478
3741.04405	0.28731
3739.11568	0.28683
3737.18730	0.28213
3735.25893	0.27711
3733.33056	0.27815
3731.40218	0.28401
3729.47381	0.28848
3727.54544	0.28871
3725.61706	0.28642
3723.68869	0.28478
3721.76032	0.28475
3719.83194	0.28585
3717.90357	0.28689
3715.97520	0.28604
3714.04682	0.28181
3712.11845	0.27543
3710.19008	0.27300
3708.26170	0.27634
3706.33333	0.27952
3704.40496	0.27884
3702.47658	0.27523
3700.54821	0.27272
3698.61984	0.27220
3696.69146	0.27073
3694.76309	0.26704
3692.83472	0.26066
3690.90635	0.25183
3688.97797	0.24496
3687.04960	0.24342
3685.12123	0.24290
3683.19285	0.23973
3681.26448	0.23333
3679.33611	0.22453
3677.40773	0.21394
3675.47936	0.20269
3673.55099	0.19588
3671.62261	0.19137
3669.69424	0.18471
3667.76587	0.17943
3665.83749	0.17607
3663.90912	0.17111
3661.98075	0.16425
3660.05237	0.15665
3658.12400	0.14859
3656.19563	0.14006
3654.26725	0.13242
3652.33888	0.12486
3650.41051	0.11502
3648.48213	0.10576
3646.55376	0.10147
3644.62539	0.09914
3642.69701	0.09556
3640.76864	0.09059
3638.84027	0.08534
3636.91189	0.08028
3634.98352	0.07509
3633.05515	0.06981
3631.12678	0.06468
3629.19840	0.05931
3627.27003	0.05520
3625.34166	0.05301
3623.41328	0.05051
3621.48491	0.04691
3619.55654	0.04275
3617.62816	0.03930
3615.69979	0.03683
3613.77142	0.03446
3611.84304	0.03200
3609.91467	0.02954
3607.98630	0.02710
3606.05792	0.02513
3604.12955	0.02358
3602.20118	0.02189
3600.27280	0.02005
3598.34443	0.01829
3596.41606	0.01669
3594.48768	0.01535
3592.55931	0.01433
3590.63094	0.01348
3588.70256	0.01239
3586.77419	0.01109
3584.84582	0.01018
3582.91744	0.00955
3580.98907	0.00879
3579.06070	0.00790
3577.13233	0.00719
3575.20395	0.00668
3573.27558	0.00622
3571.34721	0.00565
3569.41883	0.00503
3567.49046	0.00446
3565.56209	0.00383
3563.63371	0.00313
3561.70534	0.00262
3559.77697	0.00244
3557.84859	0.00242
3555.92022	0.00238
3553.99185	0.00224
3552.06347	0.00190
3550.13510	0.00140
3548.20673	0.00107
3546.27835	0.00100
3544.34998	0.00103
3542.42161	0.00099
3540.49323	0.00090
3538.56486	0.00079
3536.63649	0.00069
3534.70811	0.00061
3532.77974	0.00055
3530.85137	0.00045
3528.92299	0.00029
3526.99462	0.00026
3525.06625	0.00026
3523.13787	0.00030
3521.20950	0.00029
3519.28113	0.00017
3517.35276	0.00014
3515.42438	0.00017
3513.49601	0.00023
3511.56764	0.00046
3509.63926	0.00063
3507.71089	0.00072
3505.78252	0.00076
3503.85414	0.00070
3501.92577	0.00047
3499.99740	0.00033
3498.06902	0.00029
3496.14065	0.00023
3494.21228	0.00020
3492.28390	0.00031
3490.35553	0.00020
3488.42716	0.00015
3486.49878	0.00015
3484.57041	0.00013
3482.64204	0.00022
3480.71366	0.00038
3478.78529	0.00046
3476.85692	0.00033
3474.92854	0.00014
3473.00017	0.00035
3471.07180	0.00042
3469.14342	0.00028
3467.21505	0.00016
3465.28668	0.00024
3463.35831	0.00032
3461.42993	0.00034
3459.50156	0.00040
3457.57319	0.00034
3455.64481	0.00007
3453.71644	0.00029
3451.78807	0.00041
3449.85969	0.00031
3447.93132	0.00018
3446.00295	0.00017
3444.07457	0.00021
3442.14620	0.00029
3440.21783	0.00063
3438.28945	0.00061
3436.36108	0.00034
3434.43271	0.00021
3432.50433	0.00024
3430.57596	0.00037
3428.64759	0.00035
3426.71921	0.00041
3424.79084	0.00037
3422.86247	0.00029
3420.93409	0.00055
3419.00572	0.00072
3417.07735	0.00055
3415.14897	0.00022
3413.22060	0.00025
3411.29223	0.00038
3409.36385	0.00041
3407.43548	0.00034
3405.50711	0.00022
3403.57874	0.00034
3401.65036	0.00026
3399.72199	0.00037
3397.79362	0.00053
3395.86524	0.00046
3393.93687	0.00025
3392.00850	0.00046
3390.08012	0.00049
3388.15175	0.00040
3386.22338	0.00053
3384.29500	0.00047
3382.36663	0.00038
3380.43826	0.00051
3378.50988	0.00044
3376.58151	0.00027
3374.65314	0.00018
3372.72476	0.00015
3370.79639	0.00026
3368.86802	0.00032
3366.93964	0.00033
3365.01127	0.00031
3363.08290	0.00045
3361.15452	0.00054
3359.22615	0.00031
3357.29778	0.00051
3355.36940	0.00081
3353.44103	0.00069
3351.51266	0.00041
3349.58428	0.00028
3347.65591	0.00021
3345.72754	0.00012
3343.79917	0.00038
3341.87079	0.00052
3339.94242	0.00043
3338.01405	0.00028
3336.08567	0.00026
3334.15730	0.00044
3332.22893	0.00045
3330.30055	0.00044
3328.37218	0.00040
3326.44381	0.00035
3324.51543	0.00027
3322.58706	0.00023
3320.65869	0.00024
3318.73031	0.00019
3316.80194	0.00034
3314.87357	0.00046
3312.94519	0.00037
3311.01682	0.00017
3309.08845	0.00013
3307.16007	0.00014
3305.23170	0.00035
3303.30333	0.00026
3301.37495	0.00022
3299.44658	0.00038
3297.51821	0.00036
3295.58983	0.00034
3293.66146	0.00040
3291.73309	0.00047
3289.80472	0.00048
3287.87634	0.00046
3285.94797	0.00034
3284.01960	0.00037
3282.09122	0.00053
3280.16285	0.00059
3278.23448	0.00049
3276.30610	0.00040
3274.37773	0.00033
3272.44936	0.00047
3270.52098	0.00049
3268.59261	0.00048
3266.66424	0.00044
3264.73586	0.00046
3262.80749	0.00048
3260.87912	0.00048
3258.95074	0.00042
3257.02237	0.00030
3255.09400	0.00030
3253.16562	0.00049
3251.23725	0.00042
3249.30888	0.00051
3247.38050	0.00042
3245.45213	0.00021
3243.52376	0.00034
3241.59538	0.00053
3239.66701	0.00045
3237.73864	0.00022
3235.81026	0.00022
3233.88189	0.00025
3231.95352	0.00023
3230.02515	0.00020
3228.09677	0.00024
3226.16840	0.00027
3224.24003	0.00032
3222.31165	0.00020
3220.38328	0.00039
3218.45491	0.00043
3216.52653	0.00032
3214.59816	0.00060
3212.66979	0.00067
3210.74141	0.00056
3208.81304	0.00038
3206.88467	0.00019
3204.95629	0.00011
3203.02792	0.00034
3201.09955	0.00037
3199.17117	0.00025
3197.24280	0.00047
3195.31443	0.00043
3193.38605	0.00036
3191.45768	0.00036
3189.52931	0.00043
3187.60093	0.00039
3185.67256	0.00029
3183.74419	0.00025
3181.81581	0.00029
3179.88744	0.00045
3177.95907	0.00041
3176.03070	0.00041
3174.10232	0.00036
3172.17395	0.00026
3170.24558	0.00025
3168.31720	0.00040
3166.38883	0.00041
3164.46046	0.00029
3162.53208	0.00024
3160.60371	0.00049
3158.67534	0.00048
3156.74696	0.00043
3154.81859	0.00063
3152.89022	0.00080
3150.96184	0.00060
3149.03347	0.00030
3147.10510	0.00047
3145.17672	0.00052
3143.24835	0.00059
3141.31998	0.00051
3139.39160	0.00037
3137.46323	0.00030
3135.53486	0.00024
3133.60648	0.00035
3131.67811	0.00048
3129.74974	0.00043
3127.82136	0.00024
3125.89299	0.00026
3123.96462	0.00023
3122.03624	0.00005
3120.10787	0.00022
3118.17950	0.00032
3116.25113	0.00053
3114.32275	0.00046
3112.39438	0.00025
3110.46601	0.00025
3108.53763	0.00017
3106.60926	0.00024
3104.68089	0.00032
3102.75251	0.00029
3100.82414	0.00014
3098.89577	0.00012
3096.96739	0.00023
3095.03902	0.00043
3093.11065	0.00049
3091.18227	0.00051
3089.25390	0.00049
3087.32553	0.00046
3085.39715	0.00037
3083.46878	0.00031
3081.54041	0.00020
3079.61203	0.00023
3077.68366	0.00042
3075.75529	0.00040
3073.82691	0.00034
3071.89854	0.00057
3069.97017	0.00065
3068.04179	0.00052
3066.11342	0.00047
3064.18505	0.00053
3062.25668	0.00065
3060.32830	0.00055
3058.39993	0.00073
3056.47156	0.00112
3054.54318	0.00131
3052.61481	0.00134
3050.68644	0.00129
3048.75806	0.00127
3046.82969	0.00136
3044.90132	0.00155
3042.97294	0.00177
3041.04457	0.00189
3039.11620	0.00188
3037.18782	0.00187
3035.25945	0.00197
3033.33108	0.00213
3031.40270	0.00223
3029.47433	0.00224
3027.54596	0.00224
3025.61758	0.00226
3023.68921	0.00236
3021.76084	0.00253
3019.83246	0.00264
3017.90409	0.00258
3015.97572	0.00249
3014.04734	0.00243
3012.11897	0.00243
3010.19060	0.00257
3008.26222	0.00271
3006.33385	0.00263
3004.40548	0.00247
3002.47711	0.00237
3000.54873	0.00234
2998.62036	0.00225
2996.69199	0.00197
2994.76361	0.00170
2992.83524	0.00159
2990.90687	0.00135
2988.97849	0.00099
2987.05012	0.00096
2985.12175	0.00104
2983.19337	0.00101
2981.26500	0.00082
2979.33663	0.00053
2977.40825	0.00034
2975.47988	0.00031
2973.55151	0.00036
2971.62313	0.00035
2969.69476	0.00031
2967.76639	0.00014
2965.83801	0.00023
2963.90964	0.00033
2961.98127	0.00032
2960.05289	0.00025
2958.12452	0.00024
2956.19615	0.00031
2954.26777	0.00034
2952.33940	0.00025
2950.41103	0.00024
2948.48266	0.00030
2946.55428	0.00043
2944.62591	0.00050
2942.69754	0.00042
2940.76916	0.00038
2938.84079	0.00040
2936.91242	0.00044
2934.98404	0.00047
2933.05567	0.00066
2931.12730	0.00071
2929.19892	0.00058
2927.27055	0.00035
2925.34218	0.00032
2923.41380	0.00037
2921.48543	0.00031
2919.55706	0.00029
2917.62868	0.00022
2915.70031	0.00016
2913.77194	0.00023
2911.84356	0.00047
2909.91519	0.00049
2907.98682	0.00021
2906.05844	0.00030
2904.13007	0.00048
2902.20170	0.00068
2900.27332	0.00083
2898.34495	0.00068
2896.41658	0.00049
2894.48820	0.00049
2892.55983	0.00050
2890.63146	0.00045
2888.70309	0.00037
2886.77471	0.00054
2884.84634	0.00063
2882.91797	0.00057
2880.98959	0.00059
2879.06122	0.00058
2877.13285	0.00056
2875.20447	0.00058
2873.27610	0.00062
2871.34773	0.00067
2869.41935	0.00071
2867.49098	0.00083
2865.56261	0.00102
2863.63423	0.00132
2861.70586	0.00142
2859.77749	0.00134
2857.84911	0.00139
2855.92074	0.00172
2853.99237	0.00211
2852.06399	0.00250
2850.13562	0.00300
2848.20725	0.00360
2846.27887	0.00416
2844.35050	0.00464
2842.42213	0.00511
2840.49375	0.00567
2838.56538	0.00617
2836.63701	0.00647
2834.70863	0.00672
2832.78026	0.00708
2830.85189	0.00752
2828.92352	0.00800
2826.99514	0.00845
2825.06677	0.00876
2823.13840	0.00902
2821.21002	0.00932
2819.28165	0.00960
2817.35328	0.00987
2815.42490	0.01027
2813.49653	0.01082
2811.56816	0.01145
2809.63978	0.01211
2807.71141	0.01276
2805.78304	0.01330
2803.85466	0.01370
2801.92629	0.01417
2799.99792	0.01482
2798.06954	0.01551
2796.14117	0.01616
2794.21280	0.01680
2792.28442	0.01737
2790.35605	0.01787
2788.42768	0.01841
2786.49930	0.01895
2784.57093	0.01937
2782.64256	0.01973
2780.71418	0.02012
2778.78581	0.02056
2776.85744	0.02103
2774.92907	0.02149
2773.00069	0.02184
2771.07232	0.02203
2769.14395	0.02227
2767.21557	0.02268
2765.28720	0.02313
2763.35883	0.02362
2761.43045	0.02419
2759.50208	0.02481
2757.57371	0.02543
2755.64533	0.02596
2753.71696	0.02636
2751.78859	0.02673
2749.86021	0.02714
2747.93184	0.02750
2746.00347	0.02788
2744.07509	0.02835
2742.14672	0.02884
2740.21835	0.02933
2738.28997	0.02969
2736.36160	0.02996
2734.43323	0.03028
2732.50485	0.03071
2730.57648	0.03122
2728.64811	0.03165
2726.71973	0.03192
2724.79136	0.03222
2722.86299	0.03262
2720.93461	0.03308
2719.00624	0.03356
2717.07787	0.03406
2715.14950	0.03458
2713.22112	0.03506
2711.29275	0.03551
2709.36438	0.03603
2707.43600	0.03659
2705.50763	0.03714
2703.57926	0.03773
2701.65088	0.03831
2699.72251	0.03875
2697.79414	0.03919
2695.86576	0.03974
2693.93739	0.04033
2692.00902	0.04091
2690.08064	0.04143
2688.15227	0.04189
2686.22390	0.04248
2684.29552	0.04317
2682.36715	0.04380
2680.43878	0.04439
2678.51040	0.04499
2676.58203	0.04560
2674.65366	0.04627
2672.72528	0.04698
2670.79691	0.04760
2668.86854	0.04817
2666.94016	0.04881
2665.01179	0.04945
2663.08342	0.05005
2661.15505	0.05062
2659.22667	0.05113
2657.29830	0.05156
2655.36993	0.05192
2653.44155	0.05228
2651.51318	0.05264
2649.58481	0.05301
2647.65643	0.05339
2645.72806	0.05372
2643.79969	0.05401
2641.87131	0.05427
2639.94294	0.05452
2638.01457	0.05481
2636.08619	0.05519
2634.15782	0.05560
2632.22945	0.05596
2630.30107	0.05631
2628.37270	0.05668
2626.44433	0.05711
2624.51595	0.05759
2622.58758	0.05805
2620.65921	0.05845
2618.73083	0.05884
2616.80246	0.05927
2614.87409	0.05983
2612.94571	0.06046
2611.01734	0.06101
2609.08897	0.06143
2607.16059	0.06189
2605.23222	0.06244
2603.30385	0.06289
2601.37548	0.06323
2599.44710	0.06363
2597.51873	0.06413
2595.59036	0.06456
2593.66198	0.06491
2591.73361	0.06525
2589.80524	0.06556
2587.87686	0.06587
2585.94849	0.06630
2584.02012	0.06688
2582.09174	0.06742
2580.16337	0.06785
2578.23500	0.06829
2576.30662	0.06879
2574.37825	0.06934
2572.44988	0.06995
2570.52150	0.07064
2568.59313	0.07149
2566.66476	0.07246
2564.73638	0.07341
2562.80801	0.07428
2560.87964	0.07522
2558.95126	0.07620
2557.02289	0.07711
2555.09452	0.07799
2553.16614	0.07890
2551.23777	0.07971
2549.30940	0.08038
2547.38103	0.08099
2545.45265	0.08161
2543.52428	0.08221
2541.59591	0.08273
2539.66753	0.08316
2537.73916	0.08351
2535.81079	0.08380
2533.88241	0.08407
2531.95404	0.08445
2530.02567	0.08493
2528.09729	0.08539
2526.16892	0.08591
2524.24055	0.08651
2522.31217	0.08712
2520.38380	0.08767
2518.45543	0.08817
2516.52705	0.08871
2514.59868	0.08935
2512.67031	0.08996
2510.74193	0.09052
2508.81356	0.09111
2506.88519	0.09168
2504.95681	0.09220
2503.02844	0.09280
2501.10007	0.09354
2499.17169	0.09420
2497.24332	0.09478
2495.31495	0.09548
2493.38657	0.09627
2491.45820	0.09703
2489.52983	0.09774
2487.60146	0.09843
2485.67308	0.09917
2483.74471	0.09993
2481.81634	0.10061
2479.88796	0.10133
2477.95959	0.10218
2476.03122	0.10302
2474.10284	0.10373
2472.17447	0.10435
2470.24610	0.10500
2468.31772	0.10572
2466.38935	0.10651
2464.46098	0.10735
2462.53260	0.10810
2460.60423	0.10868
2458.67586	0.10930
2456.74748	0.11009
2454.81911	0.11095
2452.89074	0.11172
2450.96236	0.11238
2449.03399	0.11306
2447.10562	0.11381
2445.17724	0.11460
2443.24887	0.11539
2441.32050	0.11611
2439.39212	0.11677
2437.46375	0.11743
2435.53538	0.11814
2433.60700	0.11896
2431.67863	0.11980
2429.75026	0.12061
2427.82189	0.12142
2425.89351	0.12217
2423.96514	0.12280
2422.03677	0.12335
2420.10839	0.12389
2418.18002	0.12444
2416.25165	0.12501
2414.32327	0.12559
2412.39490	0.12622
2410.46653	0.12691
2408.53815	0.12762
2406.60978	0.12839
2404.68141	0.12925
2402.75303	0.13012
2400.82466	0.13095
2398.89629	0.13168
2396.96791	0.13247
2395.03954	0.13339
2393.11117	0.13428
2391.18279	0.13508
2389.25442	0.13583
2387.32605	0.13644
2385.39767	0.13687
2383.46930	0.13718
2381.54093	0.13743
2379.61255	0.13762
2377.68418	0.13782
2375.75581	0.13813
2373.82744	0.13858
2371.89906	0.13898
2369.97069	0.13914
2368.04232	0.13909
2366.11394	0.13907
2364.18557	0.13913
2362.25720	0.13932
2360.32882	0.13947
2358.40045	0.13962
2356.47208	0.14030
2354.54370	0.14140
2352.61533	0.14233
2350.68696	0.14299
2348.75858	0.14355
2346.83021	0.14394
2344.90184	0.14391
2342.97346	0.14365
2341.04509	0.14378
2339.11672	0.14418
2337.18834	0.14444
2335.25997	0.14464
2333.33160	0.14501
2331.40322	0.14555
2329.47485	0.14609
2327.54648	0.14654
2325.61810	0.14709
2323.68973	0.14784
2321.76136	0.14868
2319.83298	0.14961
2317.90461	0.15078
2315.97624	0.15207
2314.04787	0.15329
2312.11949	0.15449
2310.19112	0.15574
2308.26275	0.15704
2306.33437	0.15839
2304.40600	0.15974
2302.47763	0.16101
2300.54925	0.16216
2298.62088	0.16315
2296.69251	0.16399
2294.76413	0.16478
2292.83576	0.16551
2290.90739	0.16623
2288.97901	0.16700
2287.05064	0.16776
2285.12227	0.16833
2283.19389	0.16875
2281.26552	0.16917
2279.33715	0.16955
2277.40877	0.16985
2275.48040	0.17019
2273.55203	0.17058
2271.62365	0.17091
2269.69528	0.17118
2267.76691	0.17150
2265.83853	0.17187
2263.91016	0.17229
2261.98179	0.17270
2260.05342	0.17312
2258.12504	0.17362
2256.19667	0.17426
2254.26830	0.17497
2252.33992	0.17569
2250.41155	0.17645
2248.48318	0.17727
2246.55480	0.17811
2244.62643	0.17887
2242.69806	0.17952
2240.76968	0.18015
2238.84131	0.18085
2236.91294	0.18147
2234.98456	0.18191
2233.05619	0.18234
2231.12782	0.18279
2229.19944	0.18313
2227.27107	0.18336
2225.34270	0.18354
2223.41432	0.18369
2221.48595	0.18386
2219.55758	0.18401
2217.62920	0.18412
2215.70083	0.18422
2213.77246	0.18433
2211.84408	0.18438
2209.91571	0.18436
2207.98734	0.18435
2206.05896	0.18428
2204.13059	0.18412
2202.20222	0.18402
2200.27385	0.18400
2198.34547	0.18391
2196.41710	0.18374
2194.48873	0.18356
2192.56035	0.18338
2190.63198	0.18321
2188.70361	0.18309
2186.77523	0.18306
2184.84686	0.18308
2182.91849	0.18317
2180.99011	0.18327
2179.06174	0.18329
2177.13337	0.18321
2175.20499	0.18312
2173.27662	0.18308
2171.34825	0.18302
2169.41987	0.18286
2167.49150	0.18267
2165.56313	0.18260
2163.63475	0.18266
2161.70638	0.18275
2159.77801	0.18281
2157.84963	0.18293
2155.92126	0.18311
2153.99289	0.18334
2152.06451	0.18363
2150.13614	0.18391
2148.20777	0.18412
2146.27940	0.18434
2144.35102	0.18457
2142.42265	0.18480
2140.49428	0.18500
2138.56590	0.18521
2136.63753	0.18547
2134.70916	0.18580
2132.78078	0.18613
2130.85241	0.18643
2128.92404	0.18672
2126.99566	0.18702
2125.06729	0.18733
2123.13892	0.18770
2121.21054	0.18823
2119.28217	0.18887
2117.35380	0.18948
2115.42542	0.19005
2113.49705	0.19056
2111.56868	0.19110
2109.64030	0.19177
2107.71193	0.19245
2105.78356	0.19299
2103.85518	0.19342
2101.92681	0.19377
2099.99844	0.19409
2098.07006	0.19439
2096.14169	0.19467
2094.21332	0.19496
2092.28494	0.19516
2090.35657	0.19527
2088.42820	0.19545
2086.49983	0.19569
2084.57145	0.19584
2082.64308	0.19589
2080.71471	0.19597
2078.78633	0.19607
2076.85796	0.19615
2074.92959	0.19624
2073.00121	0.19641
2071.07284	0.19668
2069.14447	0.19698
2067.21609	0.19726
2065.28772	0.19760
2063.35935	0.19820
2061.43097	0.19909
2059.50260	0.20012
2057.57423	0.20112
2055.64585	0.20206
2053.71748	0.20305
2051.78911	0.20407
2049.86073	0.20506
2047.93236	0.20605
2046.00399	0.20700
2044.07561	0.20778
2042.14724	0.20843
2040.21887	0.20917
2038.29049	0.21000
2036.36212	0.21067
2034.43375	0.21119
2032.50538	0.21167
2030.57700	0.21208
2028.64863	0.21236
2026.72026	0.21263
2024.79188	0.21298
2022.86351	0.21337
2020.93514	0.21358
2019.00676	0.21355
2017.07839	0.21374
2015.15002	0.21457
2013.22164	0.21568
2011.29327	0.21656
2009.36490	0.21725
2007.43652	0.21800
2005.50815	0.21885
2003.57978	0.21965
2001.65140	0.22028
1999.72303	0.22084
1997.79466	0.22142
1995.86628	0.22172
1993.93791	0.22141
1992.00954	0.22117
1990.08116	0.22179
1988.15279	0.22283
1986.22442	0.22370
1984.29604	0.22432
1982.36767	0.22472
1980.43930	0.22504
1978.51092	0.22532
1976.58255	0.22561
1974.65418	0.22601
1972.72581	0.22640
1970.79743	0.22657
1968.86906	0.22637
1966.94069	0.22636
1965.01231	0.22716
1963.08394	0.22818
1961.15557	0.22883
1959.22719	0.22935
1957.29882	0.22989
1955.37045	0.23045
1953.44207	0.23123
1951.51370	0.23212
1949.58533	0.23283
1947.65695	0.23317
1945.72858	0.23296
1943.80021	0.23240
1941.87183	0.23286
1939.94346	0.23480
1938.01509	0.23652
1936.08671	0.23721
1934.15834	0.23745
1932.22997	0.23773
1930.30159	0.23811
1928.37322	0.23837
1926.44485	0.23806
1924.51647	0.23702
1922.58810	0.23627
1920.65973	0.23620
1918.73135	0.23605
1916.80298	0.23660
1914.87461	0.23806
1912.94624	0.23875
1911.01786	0.23831
1909.08949	0.23792
1907.16112	0.23833
1905.23274	0.23895
1903.30437	0.23908
1901.37600	0.23881
1899.44762	0.23829
1897.51925	0.23733
1895.59088	0.23633
1893.66250	0.23591
1891.73413	0.23522
1889.80576	0.23424
1887.87738	0.23464
1885.94901	0.23587
1884.02064	0.23661
1882.09226	0.23713
1880.16389	0.23764
1878.23552	0.23808
1876.30714	0.23852
1874.37877	0.23872
1872.45040	0.23773
1870.52202	0.23494
1868.59365	0.23277
1866.66528	0.23431
1864.73690	0.23737
1862.80853	0.23889
1860.88016	0.23892
1858.95179	0.23857
1857.02341	0.23839
1855.09504	0.23824
1853.16667	0.23784
1851.23829	0.23694
1849.30992	0.23524
1847.38155	0.23262
1845.45317	0.22962
1843.52480	0.22884
1841.59643	0.23106
1839.66805	0.23274
1837.73968	0.23259
1835.81131	0.23202
1833.88293	0.23105
1831.95456	0.22822
1830.02619	0.22487
1828.09781	0.22390
1826.16944	0.22409
1824.24107	0.22429
1822.31269	0.22514
1820.38432	0.22530
1818.45595	0.22412
1816.52757	0.22261
1814.59920	0.22083
1812.67083	0.21809
1810.74245	0.21527
1808.81408	0.21379
1806.88571	0.21284
1804.95733	0.21080
1803.02896	0.20723
1801.10059	0.20328
1799.17222	0.20069
1797.24384	0.19886
1795.31547	0.19564
1793.38710	0.19068
1791.45872	0.18716
1789.53035	0.18682
1787.60198	0.18605
1785.67360	0.18299
1783.74523	0.17899
1781.81686	0.17496
1779.88848	0.17122
1777.96011	0.16792
1776.03174	0.16372
1774.10336	0.15757
1772.17499	0.15122
1770.24662	0.14777
1768.31824	0.14614
1766.38987	0.14393
1764.46150	0.14010
1762.53312	0.13417
1760.60475	0.12778
1758.67638	0.12189
1756.74800	0.11505
1754.81963	0.10750
1752.89126	0.09884
1750.96288	0.08763
1749.03451	0.07556
1747.10614	0.06487
1745.17777	0.05473
1743.24939	0.04449
1741.32102	0.03450
1739.39265	0.02528
1737.46427	0.01833
1735.53590	0.01309
1733.60753	0.00811
1731.67915	0.00485
1729.75078	0.00326
1727.82241	0.00213
1725.89403	0.00129
1723.96566	0.00083
1722.03729	0.00058
1720.10891	0.00034
1718.18054	0.00023
1716.25217	0.00030
1714.32379	0.00021
1712.39542	0.00017
1710.46705	0.00013
1708.53867	0.00027
1706.61030	0.00031
1704.68193	0.00011
1702.75355	0.00026
1700.82518	0.00033
1698.89681	0.00043
1696.96843	0.00054
1695.04006	0.00048
1693.11169	0.00035
1691.18331	0.00030
1689.25494	0.00039
1687.32657	0.00032
1685.39820	0.00021
1683.46982	0.00025
1681.54145	0.00034
1679.61308	0.00033
1677.68470	0.00018
1675.75633	0.00021
1673.82796	0.00040
1671.89958	0.00041
1669.97121	0.00035
1668.04284	0.00035
1666.11446	0.00033
1664.18609	0.00024
1662.25772	0.00020
1660.32934	0.00022
1658.40097	0.00027
1656.47260	0.00028
1654.54422	0.00036
1652.61585	0.00035
1650.68748	0.00027
1648.75910	0.00031
1646.83073	0.00037
1644.90236	0.00034
1642.97398	0.00025
1641.04561	0.00022
1639.11724	0.00014
1637.18886	0.00024
1635.26049	0.00037
1633.33212	0.00029
1631.40375	0.00019
1629.47537	0.00016
1627.54700	0.00013
1625.61863	0.00007
1623.69025	0.00016
1621.76188	0.00029
1619.83351	0.00021
1617.90513	0.00027
1615.97676	0.00028
1614.04839	0.00022
1612.12001	0.00017
1610.19164	0.00007
1608.26327	0.00010
1606.33489	0.00012
1604.40652	0.00008
1602.47815	0.00016
1600.54977	0.00015
1598.62140	0.00022
1596.69303	0.00024
1594.76465	0.00018
1592.83628	0.00010
1590.90791	0.00009
1588.97953	0.00013
1587.05116	0.00010
1585.12279	0.00014
1583.19441	0.00020
1581.26604	0.00020
1579.33767	0.00023
1577.40929	0.00032
1575.48092	0.00033
1573.55255	0.00028
1571.62418	0.00028
1569.69580	0.00031
1567.76743	0.00022
1565.83906	0.00016
1563.91068	0.00016
1561.98231	0.00015
1560.05394	0.00028
1558.12556	0.00034
1556.19719	0.00027
1554.26882	0.00022
1552.34044	0.00019
1550.41207	0.00017
1548.48370	0.00016
1546.55532	0.00024
1544.62695	0.00030
1542.69858	0.00027
1540.77020	0.00033
1538.84183	0.00043
1536.91346	0.00029
1534.98508	0.00013
1533.05671	0.00018
1531.12834	0.00023
1529.19996	0.00027
1527.27159	0.00024
1525.34322	0.00019
1523.41484	0.00020
1521.48647	0.00032
1519.55810	0.00035
1517.62972	0.00025
1515.70135	0.00026
1513.77298	0.00025
1511.84461	0.00025
1509.91623	0.00028
1507.98786	0.00020
1506.05949	0.00019
1504.13111	0.00029
1502.20274	0.00041
1500.27437	0.00039
1498.34599	0.00032
1496.41762	0.00026
1494.48925	0.00025
1492.56087	0.00031
1490.63250	0.00046
1488.70413	0.00059
1486.77575	0.00062
1484.84738	0.00062
1482.91901	0.00057
1480.99063	0.00055
1479.06226	0.00059
1477.13389	0.00052
1475.20551	0.00031
1473.27714	0.00014
1471.34877	0.00023
1469.42039	0.00036
1467.49202	0.00037
1465.56365	0.00024
1463.63527	0.00017
1461.70690	0.00020
1459.77853	0.00034
1457.85016	0.00037
1455.92178	0.00024
1453.99341	0.00030
1452.06504	0.00035
1450.13666	0.00037
1448.20829	0.00030
1446.27992	0.00020
1444.35154	0.00012
1442.42317	0.00014
1440.49480	0.00020
1438.56642	0.00019
1436.63805	0.00008
1434.70968	0.00024
1432.78130	0.00027
1430.85293	0.00020
1428.92456	0.00019
1426.99618	0.00016
1425.06781	0.00021
1423.13944	0.00017
1421.21106	0.00017
1419.28269	0.00032
1417.35432	0.00040
1415.42594	0.00041
1413.49757	0.00034
1411.56920	0.00026
1409.64082	0.00016
1407.71245	0.00012
1405.78408	0.00020
1403.85570	0.00029
1401.92733	0.00018
1399.99896	0.00004
1398.07059	0.00019
1396.14221	0.00030
1394.21384	0.00031
1392.28547	0.00023
1390.35709	0.00024
1388.42872	0.00026
1386.50035	0.00023
1384.57197	0.00030
1382.64360	0.00034
1380.71523	0.00029
1378.78685	0.00018
1376.85848	0.00019
1374.93011	0.00024
1373.00173	0.00020
1371.07336	0.00023
1369.14499	0.00021
1367.21661	0.00020
1365.28824	0.00022
1363.35987	0.00029
1361.43149	0.00040
1359.50312	0.00051
1357.57475	0.00069
1355.64637	0.00069
1353.71800	0.00056
1351.78963	0.00054
1349.86125	0.00060
1347.93288	0.00059
1346.00451	0.00055
1344.07614	0.00055
1342.14776	0.00051
1340.21939	0.00038
1338.29102	0.00020
1336.36264	0.00019
1334.43427	0.00021
1332.50590	0.00008
1330.57752	0.00019
1328.64915	0.00031
1326.72078	0.00025
1324.79240	0.00019
1322.86403	0.00010
1320.93566	0.00011
1319.00728	0.00012
1317.07891	0.00012
1315.15054	0.00014
1313.22216	0.00018
1311.29379	0.00016
1309.36542	0.00019
1307.43704	0.00023
1305.50867	0.00022
1303.58030	0.00031
1301.65192	0.00036
1299.72355	0.00024
1297.79518	0.00007
1295.86680	0.00019
1293.93843	0.00020
1292.01006	0.00031
1290.08168	0.00035
1288.15331	0.00033
1286.22494	0.00039
1284.29657	0.00031
1282.36819	0.00031
1280.43982	0.00027
1278.51145	0.00040
1276.58307	0.00047
1274.65470	0.00034
1272.72633	0.00015
1270.79795	0.00018
1268.86958	0.00031
1266.94121	0.00035
1265.01283	0.00039
1263.08446	0.00040
1261.15609	0.00035
1259.22771	0.00043
1257.29934	0.00030
1255.37097	0.00029
1253.44259	0.00043
1251.51422	0.00043
1249.58585	0.00042
1247.65747	0.00043
1245.72910	0.00038
1243.80073	0.00034
1241.87235	0.00040
1239.94398	0.00046
1238.01561	0.00050
1236.08723	0.00042
1234.15886	0.00031
1232.23049	0.00039
1230.30212	0.00050
1228.37374	0.00048
1226.44537	0.00034
1224.51700	0.00033
1222.58862	0.00051
1220.66025	0.00045
1218.73188	0.00062
1216.80350	0.00094
1214.87513	0.00102
1212.94676	0.00086
1211.01838	0.00053
1209.09001	0.00042
1207.16164	0.00050
1205.23326	0.00046
1203.30489	0.00046
1201.37652	0.00053
1199.44814	0.00056
1197.51977	0.00094
1195.59140	0.00142
1193.66302	0.00168
1191.73465	0.00151
1189.80628	0.00099
1187.87790	0.00068
1185.94953	0.00087
1184.02116	0.00085
1182.09278	0.00053
1180.16441	0.00041
1178.23604	0.00041
1176.30766	0.00040
1174.37929	0.00033
1172.45092	0.00045
1170.52255	0.00047
1168.59417	0.00043
1166.66580	0.00026
1164.73743	0.00023
1162.80905	0.00052
1160.88068	0.00060
1158.95231	0.00042
1157.02393	0.00022
1155.09556	0.00027
1153.16719	0.00045
1151.23881	0.00028
1149.31044	0.00019
1147.38207	0.00031
1145.45369	0.00035
1143.52532	0.00029
1141.59695	0.00009
1139.66857	0.00028
1137.74020	0.00036
1135.81183	0.00022
1133.88345	0.00025
1131.95508	0.00036
1130.02671	0.00052
1128.09833	0.00042
1126.16996	0.00024
1124.24159	0.00036
1122.31321	0.00056
1120.38484	0.00058
1118.45647	0.00039
1116.52809	0.00039
1114.59972	0.00052
1112.67135	0.00060
1110.74298	0.00054
1108.81460	0.00015
1106.88623	0.00040
1104.95786	0.00049
1103.02948	0.00042
1101.10111	0.00058
1099.17274	0.00077
1097.24436	0.00084
1095.31599	0.00080
1093.38762	0.00074
1091.45924	0.00043
1089.53087	0.00027
1087.60250	0.00031
1085.67412	0.00060
1083.74575	0.00087
1081.81738	0.00074
1079.88900	0.00037
1077.96063	0.00031
1076.03226	0.00041
1074.10388	0.00025
1072.17551	0.00049
1070.24714	0.00082
1068.31876	0.00085
1066.39039	0.00065
1064.46202	0.00041
1062.53364	0.00037
1060.60527	0.00058
1058.67690	0.00036
1056.74853	0.00013
1054.82015	0.00039
1052.89178	0.00034
1050.96341	0.00040
1049.03503	0.00054
1047.10666	0.00052
1045.17829	0.00049
1043.24991	0.00047
1041.32154	0.00037
1039.39317	0.00027
1037.46479	0.00024
1035.53642	0.00017
1033.60805	0.00046
1031.67967	0.00066
1029.75130	0.00058
1027.82293	0.00036
1025.89455	0.00033
1023.96618	0.00049
1022.03781	0.00052
1020.10943	0.00035
1018.18106	0.00029
1016.25269	0.00022
1014.32431	0.00034
1012.39594	0.00034
1010.46757	0.00024
1008.53919	0.00035
1006.61082	0.00052
1004.68245	0.00042
1002.75407	0.00027
1000.82570	0.00041
998.89733	0.00049
996.96896	0.00048
995.04058	0.00052
993.11221	0.00076
991.18384	0.00113
989.25546	0.00157
987.32709	0.00224
985.39872	0.00294
983.47034	0.00335
981.54197	0.00339
979.61360	0.00316
977.68522	0.00280
975.75685	0.00279
973.82848	0.00353
971.90010	0.00479
969.97173	0.00622
968.04336	0.00779
966.11498	0.00937
964.18661	0.01049
962.25824	0.01031
960.32986	0.00838
958.40149	0.00547
956.47312	0.00307
954.54474	0.00196
952.61637	0.00196
950.68800	0.00265
948.75962	0.00360
946.83125	0.00436
944.90288	0.00498
942.97451	0.00590
941.04613	0.00768
939.11776	0.01023
937.18939	0.01306
935.26101	0.01600
933.33264	0.01878
931.40427	0.02090
929.47589	0.02229
927.54752	0.02306
925.61915	0.02305
923.69077	0.02257
921.76240	0.02246
919.83403	0.02326
917.90565	0.02489
915.97728	0.02689
914.04891	0.02864
912.12053	0.02953
910.19216	0.02900
908.26379	0.02687
906.33541	0.02365
904.40704	0.02031
902.47867	0.01769
900.55029	0.01620
898.62192	0.01568
896.69355	0.01589
894.76517	0.01688
892.83680	0.01843
890.90843	0.02003
888.98005	0.02133
887.05168	0.02192
885.12331	0.02185
883.19494	0.02249
881.26656	0.02517
879.33819	0.02913
877.40982	0.03242
875.48144	0.03422
873.55307	0.03490
871.62470	0.03516
869.69632	0.03547
867.76795	0.03574
865.83958	0.03555
863.91120	0.03477
861.98283	0.03364
860.05446	0.03223
858.12608	0.03059
856.19771	0.02910
854.26934	0.02795
852.34096	0.02701
850.41259	0.02630
848.48422	0.02583
846.55584	0.02522
844.62747	0.02448
842.69910	0.02417
840.77072	0.02424
838.84235	0.02423
836.91398	0.02412
834.98560	0.02413
833.05723	0.02445
831.12886	0.02494
829.20049	0.02512
827.27211	0.02499
825.34374	0.02484
823.41537	0.02454
821.48699	0.02430
819.55862	0.02448
817.63025	0.02480
815.70187	0.02486
813.77350	0.02448
811.84513	0.02356
809.91675	0.02238
807.98838	0.02119
806.06001	0.02002
804.13163	0.01882
802.20326	0.01752
800.27489	0.01605
798.34651	0.01460
796.41814	0.01329
794.48977	0.01200
792.56139	0.01068
790.63302	0.00935
788.70465	0.00812
786.77627	0.00721
784.84790	0.00654
782.91953	0.00597
780.99115	0.00525
779.06278	0.00420
777.13441	0.00306
775.20603	0.00227
773.27766	0.00191
771.34929	0.00177
769.42092	0.00146
767.49254	0.00119
765.56417	0.00123
763.63580	0.00159
761.70742	0.00156
759.77905	0.00100
757.85068	0.00070
755.92230	0.00067
753.99393	0.00033
752.06556	0.00034
750.13718	0.00064
748.20881	0.00081
746.28044	0.00083
744.35206	0.00096
742.42369	0.00089
740.49532	0.00076
738.56694	0.00088
736.63857	0.00128
734.71020	0.00180
732.78182	0.00210
730.85345	0.00223
728.92508	0.00216
726.99670	0.00187
725.06833	0.00175
723.13996	0.00175
721.21158	0.00167
719.28321	0.00141
717.35484	0.00136
715.42647	0.00123
713.49809	0.00130
711.56972	0.00135
709.64135	0.00132
707.71297	0.00132
705.78460	0.00115
703.85623	0.00112
701.92785	0.00097
699.99948	0.00065
698.07111	0.00158
696.14273	0.00214
694.21436	0.00188
692.28599	0.00105
690.35761	0.00065
688.42924	0.00134
686.50087	0.00151
684.57249	0.00160
682.64412	0.00179
680.71575	0.00208
678.78737	0.00223
676.85900	0.00221
674.93063	0.00210
673.00225	0.00192
671.07388	0.00183
669.14551	0.00203
667.21713	0.00224
665.28876	0.00242
663.36039	0.00252
661.43201	0.00239
659.50364	0.00260
657.57527	0.00288
655.64690	0.00260
653.71852	0.00173
651.79015	0.00120
649.86178	0.00199
647.93340	0.00234
646.00503	0.00168
644.07666	0.00163
642.14828	0.00122
640.21991	0.00123
638.29154	0.00144
636.36316	0.00109
634.43479	0.00127
632.50642	0.00162
630.57804	0.00162
628.64967	0.00161
626.72130	0.00206
624.79292	0.00170
622.86455	0.00107
620.93618	0.00230
619.00780	0.00156
617.07943	0.00166
615.15106	0.00235
613.22268	0.00368
611.29431	0.00400
609.36594	0.00471
607.43756	0.00585
605.50919	0.00616
603.58082	0.00519
601.65244	0.00366
599.72407	0.00249
