3997.51769	0.20760
3995.58931	0.20772
3993.66094	0.20808
3991.73257	0.20851
3989.80419	0.20909
3987.87582	0.20994
3985.94745	0.21081
3984.01907	0.21141
3982.09070	0.21182
3980.16233	0.21229
3978.23396	0.21272
3976.30558	0.21294
3974.37721	0.21321
3972.44884	0.21389
3970.52046	0.21474
3968.59209	0.21542
3966.66372	0.21584
3964.73534	0.21600
3962.80697	0.21598
3960.87860	0.21609
3958.95022	0.21657
3957.02185	0.21723
3955.09348	0.21766
3953.16510	0.21757
3951.23673	0.21704
3949.30836	0.21654
3947.37998	0.21677
3945.45161	0.21721
3943.52324	0.21714
3941.59486	0.21781
3939.66649	0.21954
3937.73812	0.22068
3935.80974	0.22050
3933.88137	0.21939
3931.95300	0.21854
3930.02462	0.21918
3928.09625	0.22041
3926.16788	0.22059
3924.23950	0.22020
3922.31113	0.22041
3920.38276	0.22053
3918.45439	0.22011
3916.52601	0.22051
3914.59764	0.22244
3912.66927	0.22442
3910.74089	0.22539
3908.81252	0.22524
3906.88415	0.22326
3904.95577	0.21967
3903.02740	0.21704
3901.09903	0.21710
3899.17065	0.21947
3897.24228	0.22308
3895.31391	0.22549
3893.38553	0.22518
3891.45716	0.22412
3889.52879	0.22478
3887.60041	0.22512
3885.67204	0.22396
3883.74367	0.22349
3881.81529	0.22362
3879.88692	0.22457
3877.95855	0.22712
3876.03017	0.22785
3874.10180	0.22592
3872.17343	0.22408
3870.24505	0.22337
3868.31668	0.22436
3866.38831	0.22566
3864.45994	0.22572
3862.53156	0.22681
3860.60319	0.22937
3858.67482	0.23035
3856.74644	0.22859
3854.81807	0.22438
3852.88970	0.22102
3850.96132	0.22457
3849.03295	0.23023
3847.10458	0.23306
3845.17620	0.23241
3843.24783	0.22971
3841.31946	0.22667
3839.39108	0.22440
3837.46271	0.22439
3835.53434	0.22662
3833.60596	0.22887
3831.67759	0.23060
3829.74922	0.23204
3827.82084	0.23250
3825.89247	0.23218
3823.96410	0.23081
3822.03572	0.22722
3820.10735	0.22510
3818.17898	0.22700
3816.25060	0.22931
3814.32223	0.23246
3812.39386	0.23608
3810.46548	0.23722
3808.53711	0.23524
3806.60874	0.23264
3804.68037	0.23134
3802.75199	0.22922
3800.82362	0.22774
3798.89525	0.22963
3796.96687	0.23208
3795.03850	0.23478
3793.11013	0.23781
3791.18175	0.23939
3789.25338	0.23933
3787.32501	0.23830
3785.39663	0.23700
3783.46826	0.23656
3781.53989	0.23603
3779.61151	0.23489
3777.68314	0.23572
3775.75477	0.23805
3773.82639	0.23853
3771.89802	0.23624
3769.96965	0.23328
3768.04127	0.23242
3766.11290	0.23318
3764.18453	0.23429
3762.25615	0.23449
3760.32778	0.23242
3758.39941	0.23017
3756.47103	0.22991
3754.54266	0.22898
3752.61429	0.22482
3750.68591	0.22010
3748.75754	0.22008
3746.82917	0.22162
3744.90080	0.22157
3742.97242	0.22272
3741.04405	0.22519
3739.11568	0.22533
3737.18730	0.22162
3735.25893	0.21712
3733.33056	0.21780
3731.40218	0.22283
3729.47381	0.22671
3727.54544	0.22698
3725.61706	0.22508
3723.68869	0.22368
3721.76032	0.22352
3719.83194	0.22419
3717.90357	0.22498
3715.97520	0.22450
3714.04682	0.22126
3712.11845	0.21593
3710.19008	0.21367
3708.26170	0.21637
3706.33333	0.21908
3704.40496	0.21877
3702.47658	0.21619
3700.54821	0.21440
3698.61984	0.21413
3696.69146	0.21308
3694.76309	0.21017
3692.83472	0.20508
3690.90635	0.19819
3688.97797	0.19290
3687.04960	0.19200
3685.12123	0.19217
3683.19285	0.19007
3681.26448	0.18509
3679.33611	0.17817
3677.40773	0.16997
3675.47936	0.16147
3673.55099	0.15667
3671.62261	0.15357
3669.69424	0.14855
3667.76587	0.14460
3665.83749	0.14228
3663.90912	0.13863
3661.98075	0.13344
3660.05237	0.12769
3658.12400	0.12142
3656.19563	0.11457
3654.26725	0.10848
3652.33888	0.10266
3650.41051	0.09513
3648.48213	0.08793
3646.55376	0.08442
3644.62539	0.08245
3642.69701	0.07966
3640.76864	0.07596
3638.84027	0.07199
3636.91189	0.06790
3634.98352	0.06374
3633.05515	0.05978
3631.12678	0.05583
3629.19840	0.05122
3627.27003	0.04750
3625.34166	0.04566
3623.41328	0.04381
3621.48491	0.04115
3619.55654	0.03797
3617.62816	0.03510
3615.69979	0.03293
3613.77142	0.03090
3611.84304	0.02885
3609.91467	0.02695
3607.98630	0.02515
3606.05792	0.02351
3604.12955	0.02215
3602.20118	0.02077
3600.27280	0.01926
3598.34443	0.01777
3596.41606	0.01632
3594.48768	0.01506
3592.55931	0.01417
3590.63094	0.01339
3588.70256	0.01240
3586.77419	0.01135
3584.84582	0.01054
3582.91744	0.00983
3580.98907	0.00905
3579.06070	0.00826
3577.13233	0.00767
3575.20395	0.00725
3573.27558	0.00680
3571.34721	0.00626
3569.41883	0.00562
3567.49046	0.00493
3565.56209	0.00445
3563.63371	0.00424
3561.70534	0.00397
3559.77697	0.00365
3557.84859	0.00341
3555.92022	0.00317
3553.99185	0.00295
3552.06347	0.00284
3550.13510	0.00273
3548.20673	0.00231
3546.27835	0.00173
3544.34998	0.00145
3542.42161	0.00131
3540.49323	0.00110
3538.56486	0.00109
3536.63649	0.00131
3534.70811	0.00126
3532.77974	0.00101
3530.85137	0.00080
3528.92299	0.00061
3526.99462	0.00032
3525.06625	0.00012
3523.13787	0.00015
3521.20950	0.00015
3519.28113	0.00046
3517.35276	0.00061
3515.42438	0.00052
3513.49601	0.00042
3511.56764	0.00045
3509.63926	0.00050
3507.71089	0.00055
3505.78252	0.00064
3503.85414	0.00061
3501.92577	0.00047
3499.99740	0.00042
3498.06902	0.00036
3496.14065	0.00023
3494.21228	0.00017
3492.28390	0.00030
3490.35553	0.00033
3488.42716	0.00036
3486.49878	0.00023
3484.57041	0.00022
3482.64204	0.00046
3480.71366	0.00059
3478.78529	0.00057
3476.85692	0.00045
3474.92854	0.00031
3473.00017	0.00018
3471.07180	0.00033
3469.14342	0.00031
3467.21505	0.00030
3465.28668	0.00023
3463.35831	0.00024
3461.42993	0.00032
3459.50156	0.00036
3457.57319	0.00042
3455.64481	0.00059
3453.71644	0.00049
3451.78807	0.00022
3449.85969	0.00039
3447.93132	0.00031
3446.00295	0.00025
3444.07457	0.00033
3442.14620	0.00033
3440.21783	0.00028
3438.28945	0.00024
3436.36108	0.00047
3434.43271	0.00060
3432.50433	0.00055
3430.57596	0.00050
3428.64759	0.00058
3426.71921	0.00067
3424.79084	0.00054
3422.86247	0.00024
3420.93409	0.00035
3419.00572	0.00050
3417.07735	0.00040
3415.14897	0.00027
3413.22060	0.00020
3411.29223	0.00011
3409.36385	0.00038
3407.43548	0.00049
3405.50711	0.00036
3403.57874	0.00027
3401.65036	0.00035
3399.72199	0.00045
3397.79362	0.00036
3395.86524	0.00020
3393.93687	0.00038
3392.00850	0.00035
3390.08012	0.00025
3388.15175	0.00019
3386.22338	0.00027
3384.29500	0.00040
3382.36663	0.00044
3380.43826	0.00030
3378.50988	0.00036
3376.58151	0.00050
3374.65314	0.00034
3372.72476	0.00031
3370.79639	0.00036
3368.86802	0.00033
3366.93964	0.00023
3365.01127	0.00038
3363.08290	0.00021
3361.15452	0.00020
3359.22615	0.00022
3357.29778	0.00012
3355.36940	0.00013
3353.44103	0.00030
3351.51266	0.00040
3349.58428	0.00051
3347.65591	0.00054
3345.72754	0.00043
3343.79917	0.00035
3341.87079	0.00020
3339.94242	0.00018
3338.01405	0.00027
3336.08567	0.00046
3334.15730	0.00063
3332.22893	0.00059
3330.30055	0.00048
3328.37218	0.00027
3326.44381	0.00012
3324.51543	0.00019
3322.58706	0.00020
3320.65869	0.00024
3318.73031	0.00052
3316.80194	0.00067
3314.87357	0.00061
3312.94519	0.00042
3311.01682	0.00034
3309.08845	0.00040
3307.16007	0.00047
3305.23170	0.00038
3303.30333	0.00042
3301.37495	0.00051
3299.44658	0.00048
3297.51821	0.00038
3295.58983	0.00017
3293.66146	0.00026
3291.73309	0.00038
3289.80472	0.00031
3287.87634	0.00022
3285.94797	0.00007
3284.01960	0.00030
3282.09122	0.00044
3280.16285	0.00038
3278.23448	0.00020
3276.30610	0.00028
3274.37773	0.00037
3272.44936	0.00044
3270.52098	0.00050
3268.59261	0.00055
3266.66424	0.00048
3264.73586	0.00044
3262.80749	0.00051
3260.87912	0.00047
3258.95074	0.00039
3257.02237	0.00048
3255.09400	0.00046
3253.16562	0.00026
3251.23725	0.00022
3249.30888	0.00028
3247.38050	0.00023
3245.45213	0.00019
3243.52376	0.00034
3241.59538	0.00028
3239.66701	0.00007
3237.73864	0.00030
3235.81026	0.00035
3233.88189	0.00031
3231.95352	0.00024
3230.02515	0.00035
3228.09677	0.00022
3226.16840	0.00021
3224.24003	0.00022
3222.31165	0.00015
3220.38328	0.00022
3218.45491	0.00025
3216.52653	0.00016
3214.59816	0.00027
3212.66979	0.00028
3210.74141	0.00028
3208.81304	0.00035
3206.88467	0.00031
3204.95629	0.00032
3203.02792	0.00033
3201.09955	0.00034
3199.17117	0.00023
3197.24280	0.00016
3195.31443	0.00032
3193.38605	0.00044
3191.45768	0.00037
3189.52931	0.00016
3187.60093	0.00021
3185.67256	0.00025
3183.74419	0.00024
3181.81581	0.00032
3179.88744	0.00033
3177.95907	0.00024
3176.03070	0.00036
3174.10232	0.00049
3172.17395	0.00050
3170.24558	0.00048
3168.31720	0.00049
3166.38883	0.00044
3164.46046	0.00040
3162.53208	0.00039
3160.60371	0.00030
3158.67534	0.00030
3156.74696	0.00048
3154.81859	0.00066
3152.89022	0.00065
3150.96184	0.00060
3149.03347	0.00044
3147.10510	0.00023
3145.17672	0.00018
3143.24835	0.00012
3141.31998	0.00024
3139.39160	0.00033
3137.46323	0.00041
3135.53486	0.00043
3133.60648	0.00045
3131.67811	0.00050
3129.74974	0.00059
3127.82136	0.00057
3125.89299	0.00044
3123.96462	0.00045
3122.03624	0.00058
3120.10787	0.00050
3118.17950	0.00028
3116.25113	0.00021
3114.32275	0.00026
3112.39438	0.00037
3110.46601	0.00036
3108.53763	0.00027
3106.60926	0.00043
3104.68089	0.00061
3102.75251	0.00076
3100.82414	0.00076
3098.89577	0.00055
3096.96739	0.00025
3095.03902	0.00023
3093.11065	0.00044
3091.18227	0.00059
3089.25390	0.00056
3087.32553	0.00050
3085.39715	0.00042
3083.46878	0.00041
3081.54041	0.00048
3079.61203	0.00074
3077.68366	0.00083
3075.75529	0.00076
3073.82691	0.00063
3071.89854	0.00059
3069.97017	0.00062
3068.04179	0.00068
3066.11342	0.00075
3064.18505	0.00084
3062.25668	0.00096
3060.32830	0.00099
3058.39993	0.00098
3056.47156	0.00104
3054.54318	0.00121
3052.61481	0.00145
3050.68644	0.00156
3048.75806	0.00146
3046.82969	0.00138
3044.90132	0.00145
3042.97294	0.00155
3041.04457	0.00163
3039.11620	0.00180
3037.18782	0.00201
3035.25945	0.00207
3033.33108	0.00206
3031.40270	0.00217
3029.47433	0.00228
3027.54596	0.00229
3025.61758	0.00228
3023.68921	0.00233
3021.76084	0.00253
3019.83246	0.00277
3017.90409	0.00279
3015.97572	0.00270
3014.04734	0.00275
3012.11897	0.00288
3010.19060	0.00293
3008.26222	0.00282
3006.33385	0.00265
3004.40548	0.00252
3002.47711	0.00236
3000.54873	0.00216
2998.62036	0.00210
2996.69199	0.00212
2994.76361	0.00212
2992.83524	0.00206
2990.90687	0.00189
2988.97849	0.00163
2987.05012	0.00142
2985.12175	0.00129
2983.19337	0.00121
2981.26500	0.00104
2979.33663	0.00083
2977.40825	0.00079
2975.47988	0.00078
2973.55151	0.00071
2971.62313	0.00060
2969.69476	0.00049
2967.76639	0.00029
2965.83801	0.00022
2963.90964	0.00040
2961.98127	0.00038
2960.05289	0.00049
2958.12452	0.00056
2956.19615	0.00042
2954.26777	0.00050
2952.33940	0.00067
2950.41103	0.00063
2948.48266	0.00059
2946.55428	0.00053
2944.62591	0.00058
2942.69754	0.00057
2940.76916	0.00040
2938.84079	0.00022
2936.91242	0.00034
2934.98404	0.00036
2933.05567	0.00045
2931.12730	0.00066
2929.19892	0.00072
2927.27055	0.00064
2925.34218	0.00038
2923.41380	0.00033
2921.48543	0.00060
2919.55706	0.00087
2917.62868	0.00089
2915.70031	0.00062
2913.77194	0.00030
2911.84356	0.00029
2909.91519	0.00048
2907.98682	0.00062
2906.05844	0.00068
2904.13007	0.00068
2902.20170	0.00071
2900.27332	0.00075
2898.34495	0.00080
2896.41658	0.00074
2894.48820	0.00072
2892.55983	0.00068
2890.63146	0.00056
2888.70309	0.00054
2886.77471	0.00063
2884.84634	0.00069
2882.91797	0.00071
2880.98959	0.00077
2879.06122	0.00084
2877.13285	0.00077
2875.20447	0.00071
2873.27610	0.00069
2871.34773	0.00072
2869.41935	0.00078
2867.49098	0.00084
2865.56261	0.00101
2863.63423	0.00127
2861.70586	0.00151
2859.77749	0.00172
2857.84911	0.00185
2855.92074	0.00198
2853.99237	0.00221
2852.06399	0.00247
2850.13562	0.00269
2848.20725	0.00302
2846.27887	0.00348
2844.35050	0.00393
2842.42213	0.00448
2840.49375	0.00513
2838.56538	0.00568
2836.63701	0.00604
2834.70863	0.00629
2832.78026	0.00651
2830.85189	0.00677
2828.92352	0.00702
2826.99514	0.00730
2825.06677	0.00765
2823.13840	0.00803
2821.21002	0.00837
2819.28165	0.00873
2817.35328	0.00911
2815.42490	0.00956
2813.49653	0.01001
2811.56816	0.01036
2809.63978	0.01068
2807.71141	0.01112
2805.78304	0.01169
2803.85466	0.01217
2801.92629	0.01251
2799.99792	0.01287
2798.06954	0.01341
2796.14117	0.01394
2794.21280	0.01435
2792.28442	0.01476
2790.35605	0.01512
2788.42768	0.01536
2786.49930	0.01562
2784.57093	0.01600
2782.64256	0.01643
2780.71418	0.01677
2778.78581	0.01704
2776.85744	0.01729
2774.92907	0.01755
2773.00069	0.01784
2771.07232	0.01819
2769.14395	0.01848
2767.21557	0.01869
2765.28720	0.01903
2763.35883	0.01947
2761.43045	0.01985
2759.50208	0.02017
2757.57371	0.02049
2755.64533	0.02082
2753.71696	0.02118
2751.78859	0.02155
2749.86021	0.02191
2747.93184	0.02226
2746.00347	0.02262
2744.07509	0.02290
2742.14672	0.02311
2740.21835	0.02331
2738.28997	0.02352
2736.36160	0.02374
2734.43323	0.02405
2732.50485	0.02451
2730.57648	0.02492
2728.64811	0.02520
2726.71973	0.02539
2724.79136	0.02554
2722.86299	0.02575
2720.93461	0.02617
2719.00624	0.02669
2717.07787	0.02711
2715.14950	0.02737
2713.22112	0.02761
2711.29275	0.02792
2709.36438	0.02832
2707.43600	0.02886
2705.50763	0.02949
2703.57926	0.03004
2701.65088	0.03043
2699.72251	0.03076
2697.79414	0.03116
2695.86576	0.03170
2693.93739	0.03223
2692.00902	0.03263
2690.08064	0.03295
2688.15227	0.03340
2686.22390	0.03398
2684.29552	0.03448
2682.36715	0.03480
2680.43878	0.03508
2678.51040	0.03546
2676.58203	0.03591
2674.65366	0.03637
2672.72528	0.03682
2670.79691	0.03721
2668.86854	0.03757
2666.94016	0.03787
2665.01179	0.03818
2663.08342	0.03855
2661.15505	0.03891
2659.22667	0.03922
2657.29830	0.03952
2655.36993	0.03978
2653.44155	0.04000
2651.51318	0.04031
2649.58481	0.04068
2647.65643	0.04094
2645.72806	0.04110
2643.79969	0.04129
2641.87131	0.04148
2639.94294	0.04164
2638.01457	0.04181
2636.08619	0.04200
2634.15782	0.04232
2632.22945	0.04269
2630.30107	0.04293
2628.37270	0.04317
2626.44433	0.04356
2624.51595	0.04392
2622.58758	0.04418
2620.65921	0.04440
2618.73083	0.04464
2616.80246	0.04496
2614.87409	0.04535
2612.94571	0.04569
2611.01734	0.04601
2609.08897	0.04634
2607.16059	0.04669
2605.23222	0.04708
2603.30385	0.04746
2601.37548	0.04773
2599.44710	0.04786
2597.51873	0.04800
2595.59036	0.04827
2593.66198	0.04857
2591.73361	0.04884
2589.80524	0.04913
2587.87686	0.04943
2585.94849	0.04960
2584.02012	0.04972
2582.09174	0.04992
2580.16337	0.05021
2578.23500	0.05056
2576.30662	0.05092
2574.37825	0.05129
2572.44988	0.05170
2570.52150	0.05215
2568.59313	0.05260
2566.66476	0.05301
2564.73638	0.05352
2562.80801	0.05416
2560.87964	0.05474
2558.95126	0.05526
2557.02289	0.05582
2555.09452	0.05645
2553.16614	0.05706
2551.23777	0.05766
2549.30940	0.05822
2547.38103	0.05866
2545.45265	0.05904
2543.52428	0.05936
2541.59591	0.05959
2539.66753	0.05978
2537.73916	0.06001
2535.81079	0.06029
2533.88241	0.06060
2531.95404	0.06092
2530.02567	0.06124
2528.09729	0.06154
2526.16892	0.06186
2524.24055	0.06230
2522.31217	0.06278
2520.38380	0.06321
2518.45543	0.06358
2516.52705	0.06392
2514.59868	0.06428
2512.67031	0.06467
2510.74193	0.06509
2508.81356	0.06552
2506.88519	0.06599
2504.95681	0.06647
2503.02844	0.06683
2501.10007	0.06716
2499.17169	0.06766
2497.24332	0.06825
2495.31495	0.06874
2493.38657	0.06919
2491.45820	0.06967
2489.52983	0.07014
2487.60146	0.07067
2485.67308	0.07120
2483.74471	0.07154
2481.81634	0.07181
2479.88796	0.07221
2477.95959	0.07268
2476.03122	0.07317
2474.10284	0.07373
2472.17447	0.07428
2470.24610	0.07473
2468.31772	0.07512
2466.38935	0.07548
2464.46098	0.07587
2462.53260	0.07629
2460.60423	0.07669
2458.67586	0.07714
2456.74748	0.07761
2454.81911	0.07801
2452.89074	0.07840
2450.96236	0.07875
2449.03399	0.07910
2447.10562	0.07950
2445.17724	0.07988
2443.24887	0.08023
2441.32050	0.08067
2439.39212	0.08121
2437.46375	0.08175
2435.53538	0.08220
2433.60700	0.08254
2431.67863	0.08290
2429.75026	0.08335
2427.82189	0.08378
2425.89351	0.08417
2423.96514	0.08458
2422.03677	0.08493
2420.10839	0.08516
2418.18002	0.08536
2416.25165	0.08566
2414.32327	0.08606
2412.39490	0.08647
2410.46653	0.08684
2408.53815	0.08718
2406.60978	0.08751
2404.68141	0.08788
2402.75303	0.08833
2400.82466	0.08884
2398.89629	0.08937
2396.96791	0.08988
2395.03954	0.09035
2393.11117	0.09074
2391.18279	0.09106
2389.25442	0.09140
2387.32605	0.09179
2385.39767	0.09206
2383.46930	0.09212
2381.54093	0.09207
2379.61255	0.09206
2377.68418	0.09204
2375.75581	0.09196
2373.82744	0.09196
2371.89906	0.09203
2369.97069	0.09194
2368.04232	0.09165
2366.11394	0.09142
2364.18557	0.09172
2362.25720	0.09264
2360.32882	0.09344
2358.40045	0.09358
2356.47208	0.09355
2354.54370	0.09383
2352.61533	0.09427
2350.68696	0.09475
2348.75858	0.09513
2346.83021	0.09526
2344.90184	0.09518
2342.97346	0.09516
2341.04509	0.09525
2339.11672	0.09559
2337.18834	0.09628
2335.25997	0.09694
2333.33160	0.09708
2331.40322	0.09686
2329.47485	0.09690
2327.54648	0.09738
2325.61810	0.09794
2323.68973	0.09854
2321.76136	0.09929
2319.83298	0.10009
2317.90461	0.10079
2315.97624	0.10141
2314.04787	0.10205
2312.11949	0.10292
2310.19112	0.10408
2308.26275	0.10531
2306.33437	0.10637
2304.40600	0.10728
2302.47763	0.10810
2300.54925	0.10886
2298.62088	0.10964
2296.69251	0.11039
2294.76413	0.11106
2292.83576	0.11168
2290.90739	0.11232
2288.97901	0.11293
2287.05064	0.11350
2285.12227	0.11404
2283.19389	0.11460
2281.26552	0.11509
2279.33715	0.11541
2277.40877	0.11567
2275.48040	0.11601
2273.55203	0.11635
2271.62365	0.11664
2269.69528	0.11698
2267.76691	0.11741
2265.83853	0.11781
2263.91016	0.11813
2261.98179	0.11844
2260.05342	0.11886
2258.12504	0.11940
2256.19667	0.11997
2254.26830	0.12059
2252.33992	0.12125
2250.41155	0.12188
2248.48318	0.12247
2246.55480	0.12299
2244.62643	0.12350
2242.69806	0.12408
2240.76968	0.12463
2238.84131	0.12509
2236.91294	0.12554
2234.98456	0.12598
2233.05619	0.12640
2231.12782	0.12680
2229.19944	0.12716
2227.27107	0.12746
2225.34270	0.12771
2223.41432	0.12795
2221.48595	0.12823
2219.55758	0.12853
2217.62920	0.12875
2215.70083	0.12882
2213.77246	0.12882
2211.84408	0.12889
2209.91571	0.12903
2207.98734	0.12913
2206.05896	0.12920
2204.13059	0.12930
2202.20222	0.12938
2200.27385	0.12936
2198.34547	0.12931
2196.41710	0.12924
2194.48873	0.12911
2192.56035	0.12896
2190.63198	0.12887
2188.70361	0.12888
2186.77523	0.12901
2184.84686	0.12916
2182.91849	0.12923
2180.99011	0.12922
2179.06174	0.12919
2177.13337	0.12922
2175.20499	0.12927
2173.27662	0.12931
2171.34825	0.12939
2169.41987	0.12944
2167.49150	0.12940
2165.56313	0.12940
2163.63475	0.12947
2161.70638	0.12953
2159.77801	0.12958
2157.84963	0.12966
2155.92126	0.12978
2153.99289	0.12995
2152.06451	0.13014
2150.13614	0.13027
2148.20777	0.13035
2146.27940	0.13051
2144.35102	0.13074
2142.42265	0.13095
2140.49428	0.13109
2138.56590	0.13119
2136.63753	0.13127
2134.70916	0.13142
2132.78078	0.13165
2130.85241	0.13193
2128.92404	0.13216
2126.99566	0.13231
2125.06729	0.13249
2123.13892	0.13279
2121.21054	0.13314
2119.28217	0.13351
2117.35380	0.13394
2115.42542	0.13440
2113.49705	0.13483
2111.56868	0.13520
2109.64030	0.13556
2107.71193	0.13594
2105.78356	0.13628
2103.85518	0.13651
2101.92681	0.13667
2099.99844	0.13681
2098.07006	0.13699
2096.14169	0.13717
2094.21332	0.13734
2092.28494	0.13745
2090.35657	0.13751
2088.42820	0.13759
2086.49983	0.13767
2084.57145	0.13771
2082.64308	0.13771
2080.71471	0.13767
2078.78633	0.13763
2076.85796	0.13766
2074.92959	0.13772
2073.00121	0.13779
2071.07284	0.13787
2069.14447	0.13795
2067.21609	0.13803
2065.28772	0.13821
2063.35935	0.13860
2061.43097	0.13915
2059.50260	0.13975
2057.57423	0.14035
2055.64585	0.14093
2053.71748	0.14158
2051.78911	0.14225
2049.86073	0.14281
2047.93236	0.14331
2046.00399	0.14375
2044.07561	0.14411
2042.14724	0.14446
2040.21887	0.14498
2038.29049	0.14558
2036.36212	0.14607
2034.43375	0.14649
2032.50538	0.14682
2030.57700	0.14703
2028.64863	0.14714
2026.72026	0.14726
2024.79188	0.14752
2022.86351	0.14780
2020.93514	0.14793
2019.00676	0.14789
2017.07839	0.14796
2015.15002	0.14843
2013.22164	0.14914
2011.29327	0.14972
2009.36490	0.15013
2007.43652	0.15058
2005.50815	0.15110
2003.57978	0.15157
2001.65140	0.15203
1999.72303	0.15251
1997.79466	0.15296
1995.86628	0.15316
1993.93791	0.15290
1992.00954	0.15266
1990.08116	0.15303
1988.15279	0.15367
1986.22442	0.15420
1984.29604	0.15461
1982.36767	0.15490
1980.43930	0.15510
1978.51092	0.15528
1976.58255	0.15543
1974.65418	0.15559
1972.72581	0.15580
1970.79743	0.15585
1968.86906	0.15560
1966.94069	0.15553
1965.01231	0.15603
1963.08394	0.15664
1961.15557	0.15699
1959.22719	0.15731
1957.29882	0.15766
1955.37045	0.15799
1953.44207	0.15849
1951.51370	0.15910
1949.58533	0.15954
1947.65695	0.15966
1945.72858	0.15936
1943.80021	0.15891
1941.87183	0.15924
1939.94346	0.16053
1938.01509	0.16164
1936.08671	0.16220
1934.15834	0.16257
1932.22997	0.16286
1930.30159	0.16302
1928.37322	0.16305
1926.44485	0.16280
1924.51647	0.16213
1922.58810	0.16171
1920.65973	0.16180
1918.73135	0.16181
1916.80298	0.16222
1914.87461	0.16319
1912.94624	0.16364
1911.01786	0.16337
1909.08949	0.16318
1907.16112	0.16348
1905.23274	0.16376
1903.30437	0.16376
1901.37600	0.16369
1899.44762	0.16354
1897.51925	0.16306
1895.59088	0.16245
1893.66250	0.16209
1891.73413	0.16148
1889.80576	0.16066
1887.87738	0.16074
1885.94901	0.16145
1884.02064	0.16189
1882.09226	0.16212
1880.16389	0.16228
1878.23552	0.16235
1876.30714	0.16244
1874.37877	0.16239
1872.45040	0.16149
1870.52202	0.15925
1868.59365	0.15740
1866.66528	0.15826
1864.73690	0.16037
1862.80853	0.16148
1860.88016	0.16155
1858.95179	0.16132
1857.02341	0.16116
1855.09504	0.16096
1853.16667	0.16055
1851.23829	0.15984
1849.30992	0.15865
1847.38155	0.15678
1845.45317	0.15462
1843.52480	0.15399
1841.59643	0.15540
1839.66805	0.15637
1837.73968	0.15610
1835.81131	0.15561
1833.88293	0.15492
1831.95456	0.15304
1830.02619	0.15081
1828.09781	0.15010
1826.16944	0.15008
1824.24107	0.15007
1822.31269	0.15055
1820.38432	0.15068
1818.45595	0.14994
1816.52757	0.14888
1814.59920	0.14758
1812.67083	0.14572
1810.74245	0.14390
1808.81408	0.14304
1806.88571	0.14256
1804.95733	0.14129
1803.02896	0.13890
1801.10059	0.13630
1799.17222	0.13477
1797.24384	0.13376
1795.31547	0.13176
1793.38710	0.12854
1791.45872	0.12618
1789.53035	0.12598
1787.60198	0.12562
1785.67360	0.12378
1783.74523	0.12123
1781.81686	0.11858
1779.88848	0.11620
1777.96011	0.11420
1776.03174	0.11157
1774.10336	0.10752
1772.17499	0.10330
1770.24662	0.10113
1768.31824	0.10031
1766.38987	0.09917
1764.46150	0.09695
1762.53312	0.09333
1760.60475	0.08946
1758.67638	0.08596
1756.74800	0.08192
1754.81963	0.07748
1752.89126	0.07217
1750.96288	0.06510
1749.03451	0.05772
1747.10614	0.05132
1745.17777	0.04498
1743.24939	0.03827
1741.32102	0.03139
1739.39265	0.02472
1737.46427	0.01949
1735.53590	0.01532
1733.60753	0.01098
1731.67915	0.00764
1729.75078	0.00566
1727.82241	0.00421
1725.89403	0.00303
1723.96566	0.00206
1722.03729	0.00133
1720.10891	0.00086
1718.18054	0.00054
1716.25217	0.00036
1714.32379	0.00034
1712.39542	0.00031
1710.46705	0.00028
1708.53867	0.00023
1706.61030	0.00016
1704.68193	0.00015
1702.75355	0.00027
1700.82518	0.00037
1698.89681	0.00036
1696.96843	0.00034
1695.04006	0.00019
1693.11169	0.00007
1691.18331	0.00017
1689.25494	0.00010
1687.32657	0.00006
1685.39820	0.00015
1683.46982	0.00023
1681.54145	0.00016
1679.61308	0.00006
1677.68470	0.00018
1675.75633	0.00021
1673.82796	0.00022
1671.89958	0.00025
1669.97121	0.00019
1668.04284	0.00019
1666.11446	0.00029
1664.18609	0.00040
1662.25772	0.00036
1660.32934	0.00011
1658.40097	0.00005
1656.47260	0.00012
1654.54422	0.00040
1652.61585	0.00052
1650.68748	0.00028
1648.75910	0.00020
1646.83073	0.00024
1644.90236	0.00017
1642.97398	0.00012
1641.04561	0.00016
1639.11724	0.00020
1637.18886	0.00015
1635.26049	0.00011
1633.33212	0.00009
1631.40375	0.00008
1629.47537	0.00010
1627.54700	0.00013
1625.61863	0.00023
1623.69025	0.00028
1621.76188	0.00020
1619.83351	0.00018
1617.90513	0.00017
1615.97676	0.00006
1614.04839	0.00004
1612.12001	0.00012
1610.19164	0.00024
1608.26327	0.00018
1606.33489	0.00014
1604.40652	0.00024
1602.47815	0.00020
1600.54977	0.00014
1598.62140	0.00013
1596.69303	0.00013
1594.76465	0.00011
1592.83628	0.00012
1590.90791	0.00018
1588.97953	0.00016
1587.05116	0.00008
1585.12279	0.00011
1583.19441	0.00015
1581.26604	0.00013
1579.33767	0.00011
1577.40929	0.00019
1575.48092	0.00016
1573.55255	0.00019
1571.62418	0.00029
1569.69580	0.00032
1567.76743	0.00021
1565.83906	0.00010
1563.91068	0.00010
1561.98231	0.00013
1560.05394	0.00033
1558.12556	0.00056
1556.19719	0.00056
1554.26882	0.00044
1552.34044	0.00029
1550.41207	0.00022
1548.48370	0.00021
1546.55532	0.00021
1544.62695	0.00027
1542.69858	0.00034
1540.77020	0.00035
1538.84183	0.00042
1536.91346	0.00041
1534.98508	0.00034
1533.05671	0.00022
1531.12834	0.00010
1529.19996	0.00007
1527.27159	0.00005
1525.34322	0.00015
1523.41484	0.00026
1521.48647	0.00025
1519.55810	0.00018
1517.62972	0.00015
1515.70135	0.00016
1513.77298	0.00018
1511.84461	0.00020
1509.91623	0.00025
1507.98786	0.00027
1506.05949	0.00017
1504.13111	0.00026
1502.20274	0.00021
1500.27437	0.00011
1498.34599	0.00028
1496.41762	0.00027
1494.48925	0.00018
1492.56087	0.00017
1490.63250	0.00022
1488.70413	0.00027
1486.77575	0.00047
1484.84738	0.00086
1482.91901	0.00105
1480.99063	0.00101
1479.06226	0.00081
1477.13389	0.00067
1475.20551	0.00064
1473.27714	0.00061
1471.34877	0.00055
1469.42039	0.00052
1467.49202	0.00039
1465.56365	0.00015
1463.63527	0.00018
1461.70690	0.00014
1459.77853	0.00020
1457.85016	0.00024
1455.92178	0.00015
1453.99341	0.00018
1452.06504	0.00020
1450.13666	0.00016
1448.20829	0.00006
1446.27992	0.00010
1444.35154	0.00011
1442.42317	0.00017
1440.49480	0.00024
1438.56642	0.00022
1436.63805	0.00017
1434.70968	0.00017
1432.78130	0.00015
1430.85293	0.00025
1428.92456	0.00042
1426.99618	0.00044
1425.06781	0.00034
1423.13944	0.00023
1421.21106	0.00031
1419.28269	0.00035
1417.35432	0.00033
1415.42594	0.00041
1413.49757	0.00045
1411.56920	0.00038
1409.64082	0.00034
1407.71245	0.00030
1405.78408	0.00020
1403.85570	0.00021
1401.92733	0.00032
1399.99896	0.00023
1398.07059	0.00023
1396.14221	0.00020
1394.21384	0.00008
1392.28547	0.00006
1390.35709	0.00017
1388.42872	0.00024
1386.50035	0.00024
1384.57197	0.00027
1382.64360	0.00037
1380.71523	0.00034
1378.78685	0.00036
1376.85848	0.00030
1374.93011	0.00025
1373.00173	0.00028
1371.07336	0.00036
1369.14499	0.00035
1367.21661	0.00025
1365.28824	0.00022
1363.35987	0.00032
1361.43149	0.00040
1359.50312	0.00040
1357.57475	0.00046
1355.64637	0.00054
1353.71800	0.00056
1351.78963	0.00061
1349.86125	0.00071
1347.93288	0.00080
1346.00451	0.00089
1344.07614	0.00087
1342.14776	0.00076
1340.21939	0.00059
1338.29102	0.00044
1336.36264	0.00033
1334.43427	0.00029
1332.50590	0.00032
1330.57752	0.00024
1328.64915	0.00022
1326.72078	0.00020
1324.79240	0.00027
1322.86403	0.00022
1320.93566	0.00021
1319.00728	0.00035
1317.07891	0.00028
1315.15054	0.00024
1313.22216	0.00029
1311.29379	0.00026
1309.36542	0.00016
1307.43704	0.00020
1305.50867	0.00035
1303.58030	0.00040
1301.65192	0.00023
1299.72355	0.00009
1297.79518	0.00026
1295.86680	0.00028
1293.93843	0.00013
1292.01006	0.00008
1290.08168	0.00013
1288.15331	0.00031
1286.22494	0.00043
1284.29657	0.00052
1282.36819	0.00080
1280.43982	0.00088
1278.51145	0.00083
1276.58307	0.00075
1274.65470	0.00060
1272.72633	0.00050
1270.79795	0.00049
1268.86958	0.00038
1266.94121	0.00025
1265.01283	0.00030
1263.08446	0.00031
1261.15609	0.00043
1259.22771	0.00048
1257.29934	0.00044
1255.37097	0.00044
1253.44259	0.00046
1251.51422	0.00044
1249.58585	0.00042
1247.65747	0.00061
1245.72910	0.00079
1243.80073	0.00072
1241.87235	0.00054
1239.94398	0.00068
1238.01561	0.00076
1236.08723	0.00073
1234.15886	0.00081
1232.23049	0.00098
1230.30212	0.00097
1228.37374	0.00073
1226.44537	0.00064
1224.51700	0.00074
1222.58862	0.00076
1220.66025	0.00085
1218.73188	0.00110
1216.80350	0.00123
1214.87513	0.00136
1212.94676	0.00137
1211.01838	0.00132
1209.09001	0.00114
1207.16164	0.00080
1205.23326	0.00049
1203.30489	0.00034
1201.37652	0.00066
1199.44814	0.00101
1197.51977	0.00122
1195.59140	0.00129
1193.66302	0.00122
1191.73465	0.00109
1189.80628	0.00093
1187.87790	0.00084
1185.94953	0.00083
1184.02116	0.00077
1182.09278	0.00064
1180.16441	0.00046
1178.23604	0.00036
1176.30766	0.00036
1174.37929	0.00033
1172.45092	0.00034
1170.52255	0.00039
1168.59417	0.00023
1166.66580	0.00040
1164.73743	0.00063
1162.80905	0.00042
1160.88068	0.00011
1158.95231	0.00024
1157.02393	0.00055
1155.09556	0.00070
1153.16719	0.00064
1151.23881	0.00054
1149.31044	0.00053
1147.38207	0.00051
1145.45369	0.00036
1143.52532	0.00029
1141.59695	0.00042
1139.66857	0.00040
1137.74020	0.00044
1135.81183	0.00054
1133.88345	0.00078
1131.95508	0.00078
1130.02671	0.00053
1128.09833	0.00041
1126.16996	0.00038
1124.24159	0.00065
1122.31321	0.00074
1120.38484	0.00061
1118.45647	0.00045
1116.52809	0.00057
1114.59972	0.00059
1112.67135	0.00030
1110.74298	0.00020
1108.81460	0.00035
1106.88623	0.00041
1104.95786	0.00055
1103.02948	0.00061
1101.10111	0.00065
1099.17274	0.00060
1097.24436	0.00039
1095.31599	0.00037
1093.38762	0.00037
1091.45924	0.00037
1089.53087	0.00036
1087.60250	0.00036
1085.67412	0.00034
1083.74575	0.00042
1081.81738	0.00047
1079.88900	0.00025
1077.96063	0.00027
1076.03226	0.00062
1074.10388	0.00069
1072.17551	0.00045
1070.24714	0.00041
1068.31876	0.00016
1066.39039	0.00020
1064.46202	0.00031
1062.53364	0.00032
1060.60527	0.00028
1058.67690	0.00029
1056.74853	0.00062
1054.82015	0.00080
1052.89178	0.00058
1050.96341	0.00036
1049.03503	0.00061
1047.10666	0.00062
1045.17829	0.00040
1043.24991	0.00023
1041.32154	0.00024
1039.39317	0.00019
1037.46479	0.00028
1035.53642	0.00039
1033.60805	0.00049
1031.67967	0.00060
1029.75130	0.00068
1027.82293	0.00056
1025.89455	0.00068
1023.96618	0.00080
1022.03781	0.00070
1020.10943	0.00048
1018.18106	0.00039
1016.25269	0.00026
1014.32431	0.00019
1012.39594	0.00033
1010.46757	0.00026
1008.53919	0.00048
1006.61082	0.00045
1004.68245	0.00018
1002.75407	0.00030
1000.82570	0.00047
998.89733	0.00049
996.96896	0.00053
995.04058	0.00061
993.11221	0.00082
991.18384	0.00112
989.25546	0.00141
987.32709	0.00174
985.39872	0.00203
983.47034	0.00221
981.54197	0.00234
979.61360	0.00247
977.68522	0.00252
975.75685	0.00253
973.82848	0.00263
971.90010	0.00312
969.97173	0.00413
968.04336	0.00538
966.11498	0.00646
964.18661	0.00706
962.25824	0.00690
960.32986	0.00591
958.40149	0.00435
956.47312	0.00299
954.54474	0.00238
952.61637	0.00242
950.68800	0.00290
948.75962	0.00361
946.83125	0.00424
944.90288	0.00494
942.97451	0.00593
941.04613	0.00715
939.11776	0.00875
937.18939	0.01077
935.26101	0.01276
933.33264	0.01440
931.40427	0.01567
929.47589	0.01645
927.54752	0.01677
925.61915	0.01683
923.69077	0.01672
921.76240	0.01659
919.83403	0.01692
917.90565	0.01786
915.97728	0.01902
914.04891	0.01995
912.12053	0.02044
910.19216	0.02034
908.26379	0.01949
906.33541	0.01792
904.40704	0.01595
902.47867	0.01416
900.55029	0.01312
898.62192	0.01279
896.69355	0.01274
894.76517	0.01305
892.83680	0.01394
890.90843	0.01516
888.98005	0.01622
887.05168	0.01675
885.12331	0.01678
883.19494	0.01715
881.26656	0.01868
879.33819	0.02099
877.40982	0.02294
875.48144	0.02399
873.55307	0.02451
871.62470	0.02488
869.69632	0.02506
867.76795	0.02507
865.83958	0.02512
863.91120	0.02510
861.98283	0.02457
860.05446	0.02359
858.12608	0.02282
856.19771	0.02249
854.26934	0.02215
852.34096	0.02171
850.41259	0.02157
848.48422	0.02171
846.55584	0.02192
844.62747	0.02225
842.69910	0.02265
840.77072	0.02319
838.84235	0.02384
836.91398	0.02428
834.98560	0.02433
833.05723	0.02418
831.12886	0.02386
829.20049	0.02334
827.27211	0.02275
825.34374	0.02217
823.41537	0.02154
821.48699	0.02106
819.55862	0.02097
817.63025	0.02093
815.70187	0.02053
813.77350	0.01983
811.84513	0.01889
809.91675	0.01785
807.98838	0.01689
806.06001	0.01600
804.13163	0.01526
802.20326	0.01464
800.27489	0.01396
798.34651	0.01324
796.41814	0.01257
794.48977	0.01178
792.56139	0.01064
790.63302	0.00927
788.70465	0.00810
786.77627	0.00732
784.84790	0.00673
782.91953	0.00639
780.99115	0.00599
779.06278	0.00506
777.13441	0.00393
775.20603	0.00311
773.27766	0.00261
771.34929	0.00219
769.42092	0.00180
767.49254	0.00143
765.56417	0.00113
763.63580	0.00104
761.70742	0.00115
759.77905	0.00121
757.85068	0.00117
755.92230	0.00124
753.99393	0.00127
752.06556	0.00108
750.13718	0.00092
748.20881	0.00090
746.28044	0.00102
744.35206	0.00121
742.42369	0.00146
740.49532	0.00200
738.56694	0.00277
736.63857	0.00325
734.71020	0.00299
732.78182	0.00233
730.85345	0.00213
728.92508	0.00242
726.99670	0.00271
725.06833	0.00295
723.13996	0.00288
721.21158	0.00244
719.28321	0.00216
717.35484	0.00231
715.42647	0.00238
713.49809	0.00212
711.56972	0.00167
709.64135	0.00114
707.71297	0.00104
705.78460	0.00122
703.85623	0.00113
701.92785	0.00105
699.99948	0.00141
698.07111	0.00202
696.14273	0.00212
694.21436	0.00169
692.28599	0.00146
690.35761	0.00177
688.42924	0.00234
686.50087	0.00264
684.57249	0.00226
682.64412	0.00220
680.71575	0.00250
678.78737	0.00254
676.85900	0.00230
674.93063	0.00241
673.00225	0.00292
671.07388	0.00339
669.14551	0.00391
667.21713	0.00300
665.28876	0.00116
663.36039	0.00075
661.43201	0.00141
659.50364	0.00196
657.57527	0.00176
655.64690	0.00152
653.71852	0.00207
651.79015	0.00271
649.86178	0.00319
647.93340	0.00335
646.00503	0.00292
644.07666	0.00164
642.14828	0.00114
640.21991	0.00099
638.29154	0.00152
636.36316	0.00238
634.43479	0.00215
632.50642	0.00142
630.57804	0.00121
628.64967	0.00138
626.72130	0.00167
624.79292	0.00165
622.86455	0.00162
620.93618	0.00207
619.00780	0.00286
617.07943	0.00344
615.15106	0.00334
613.22268	0.00277
611.29431	0.00253
609.36594	0.00248
607.43756	0.00218
605.50919	0.00187
603.58082	0.00252
601.65244	0.00461
599.72407	0.00575
