3997.51769	0.20127
3995.58931	0.20148
3993.66094	0.20193
3991.73257	0.20251
3989.80419	0.20311
3987.87582	0.20394
3985.94745	0.20505
3984.01907	0.20610
3982.09070	0.20696
3980.16233	0.20773
3978.23396	0.20841
3976.30558	0.20892
3974.37721	0.20941
3972.44884	0.21004
3970.52046	0.21063
3968.59209	0.21113
3966.66372	0.21163
3964.73534	0.21207
3962.80697	0.21246
3960.87860	0.21289
3958.95022	0.21333
3957.02185	0.21389
3955.09348	0.21455
3953.16510	0.21499
3951.23673	0.21508
3949.30836	0.21512
3947.37998	0.21538
3945.45161	0.21569
3943.52324	0.21580
3941.59486	0.21617
3939.66649	0.21701
3937.73812	0.21780
3935.80974	0.21815
3933.88137	0.21809
3931.95300	0.21815
3930.02462	0.21864
3928.09625	0.21909
3926.16788	0.21920
3924.23950	0.21950
3922.31113	0.22020
3920.38276	0.22069
3918.45439	0.22080
3916.52601	0.22113
3914.59764	0.22201
3912.66927	0.22302
3910.74089	0.22371
3908.81252	0.22391
3906.88415	0.22344
3904.95577	0.22255
3903.02740	0.22208
3901.09903	0.22259
3899.17065	0.22393
3897.24228	0.22570
3895.31391	0.22696
3893.38553	0.22716
3891.45716	0.22702
3889.52879	0.22736
3887.60041	0.22761
3885.67204	0.22758
3883.74367	0.22780
3881.81529	0.22808
3879.88692	0.22888
3877.95855	0.23029
3876.03017	0.23080
3874.10180	0.23026
3872.17343	0.22980
3870.24505	0.22999
3868.31668	0.23096
3866.38831	0.23167
3864.45994	0.23172
3862.53156	0.23233
3860.60319	0.23369
3858.67482	0.23438
3856.74644	0.23383
3854.81807	0.23255
3852.88970	0.23195
3850.96132	0.23347
3849.03295	0.23544
3847.10458	0.23654
3845.17620	0.23650
3843.24783	0.23553
3841.31946	0.23449
3839.39108	0.23421
3837.46271	0.23475
3835.53434	0.23557
3833.60596	0.23634
3831.67759	0.23702
3829.74922	0.23737
3827.82084	0.23729
3825.89247	0.23721
3823.96410	0.23697
3822.03572	0.23607
3820.10735	0.23571
3818.17898	0.23656
3816.25060	0.23745
3814.32223	0.23873
3812.39386	0.24011
3810.46548	0.24043
3808.53711	0.23956
3806.60874	0.23855
3804.68037	0.23822
3802.75199	0.23794
3800.82362	0.23806
3798.89525	0.23879
3796.96687	0.23935
3795.03850	0.24014
3793.11013	0.24122
3791.18175	0.24185
3789.25338	0.24187
3787.32501	0.24147
3785.39663	0.24084
3783.46826	0.24046
3781.53989	0.24030
3779.61151	0.24017
3777.68314	0.24053
3775.75477	0.24124
3773.82639	0.24141
3771.89802	0.24056
3769.96965	0.23931
3768.04127	0.23876
3766.11290	0.23883
3764.18453	0.23902
3762.25615	0.23871
3760.32778	0.23762
3758.39941	0.23685
3756.47103	0.23696
3754.54266	0.23664
3752.61429	0.23534
3750.68591	0.23418
3748.75754	0.23420
3746.82917	0.23432
3744.90080	0.23412
3742.97242	0.23420
3741.04405	0.23423
3739.11568	0.23344
3737.18730	0.23149
3735.25893	0.22957
3733.33056	0.22981
3731.40218	0.23142
3729.47381	0.23224
3727.54544	0.23172
3725.61706	0.23071
3723.68869	0.23003
3721.76032	0.22964
3719.83194	0.22946
3717.90357	0.22939
3715.97520	0.22894
3714.04682	0.22737
3712.11845	0.22480
3710.19008	0.22301
3708.26170	0.22306
3706.33333	0.22333
3704.40496	0.22226
3702.47658	0.22002
3700.54821	0.21809
3698.61984	0.21683
3696.69146	0.21505
3694.76309	0.21233
3692.83472	0.20875
3690.90635	0.20437
3688.97797	0.20022
3687.04960	0.19706
3685.12123	0.19392
3683.19285	0.18991
3681.26448	0.18489
3679.33611	0.17920
3677.40773	0.17291
3675.47936	0.16575
3673.55099	0.15966
3671.62261	0.15469
3669.69424	0.14875
3667.76587	0.14336
3665.83749	0.13914
3663.90912	0.13421
3661.98075	0.12848
3660.05237	0.12265
3658.12400	0.11662
3656.19563	0.11021
3654.26725	0.10444
3652.33888	0.09921
3650.41051	0.09290
3648.48213	0.08612
3646.55376	0.08123
3644.62539	0.07775
3642.69701	0.07412
3640.76864	0.06995
3638.84027	0.06569
3636.91189	0.06168
3634.98352	0.05786
3633.05515	0.05422
3631.12678	0.05068
3629.19840	0.04667
3627.27003	0.04296
3625.34166	0.04053
3623.41328	0.03838
3621.48491	0.03598
3619.55654	0.03327
3617.62816	0.03059
3615.69979	0.02838
3613.77142	0.02641
3611.84304	0.02446
3609.91467	0.02249
3607.98630	0.02056
3606.05792	0.01896
3604.12955	0.01767
3602.20118	0.01634
3600.27280	0.01497
3598.34443	0.01374
3596.41606	0.01269
3594.48768	0.01174
3592.55931	0.01079
3590.63094	0.00988
3588.70256	0.00903
3586.77419	0.00822
3584.84582	0.00757
3582.91744	0.00707
3580.98907	0.00658
3579.06070	0.00595
3577.13233	0.00529
3575.20395	0.00475
3573.27558	0.00429
3571.34721	0.00379
3569.41883	0.00336
3567.49046	0.00312
3565.56209	0.00293
3563.63371	0.00276
3561.70534	0.00251
3559.77697	0.00213
3557.84859	0.00181
3555.92022	0.00175
3553.99185	0.00175
3552.06347	0.00158
3550.13510	0.00121
3548.20673	0.00083
3546.27835	0.00058
3544.34998	0.00057
3542.42161	0.00061
3540.49323	0.00070
3538.56486	0.00072
3536.63649	0.00060
3534.70811	0.00047
3532.77974	0.00041
3530.85137	0.00045
3528.92299	0.00042
3526.99462	0.00031
3525.06625	0.00041
3523.13787	0.00059
3521.20950	0.00047
3519.28113	0.00061
3517.35276	0.00059
3515.42438	0.00040
3513.49601	0.00011
3511.56764	0.00020
3509.63926	0.00010
3507.71089	0.00029
3505.78252	0.00053
3503.85414	0.00055
3501.92577	0.00042
3499.99740	0.00032
3498.06902	0.00048
3496.14065	0.00042
3494.21228	0.00022
3492.28390	0.00023
3490.35553	0.00021
3488.42716	0.00025
3486.49878	0.00048
3484.57041	0.00055
3482.64204	0.00037
3480.71366	0.00017
3478.78529	0.00029
3476.85692	0.00046
3474.92854	0.00044
3473.00017	0.00034
3471.07180	0.00042
3469.14342	0.00042
3467.21505	0.00035
3465.28668	0.00041
3463.35831	0.00047
3461.42993	0.00060
3459.50156	0.00054
3457.57319	0.00034
3455.64481	0.00030
3453.71644	0.00045
3451.78807	0.00064
3449.85969	0.00072
3447.93132	0.00063
3446.00295	0.00053
3444.07457	0.00035
3442.14620	0.00029
3440.21783	0.00035
3438.28945	0.00058
3436.36108	0.00065
3434.43271	0.00049
3432.50433	0.00033
3430.57596	0.00024
3428.64759	0.00015
3426.71921	0.00025
3424.79084	0.00027
3422.86247	0.00014
3420.93409	0.00031
3419.00572	0.00049
3417.07735	0.00038
3415.14897	0.00018
3413.22060	0.00013
3411.29223	0.00013
3409.36385	0.00028
3407.43548	0.00042
3405.50711	0.00033
3403.57874	0.00015
3401.65036	0.00022
3399.72199	0.00035
3397.79362	0.00036
3395.86524	0.00022
3393.93687	0.00044
3392.00850	0.00044
3390.08012	0.00031
3388.15175	0.00032
3386.22338	0.00037
3384.29500	0.00027
3382.36663	0.00028
3380.43826	0.00044
3378.50988	0.00040
3376.58151	0.00027
3374.65314	0.00028
3372.72476	0.00034
3370.79639	0.00040
3368.86802	0.00039
3366.93964	0.00030
3365.01127	0.00030
3363.08290	0.00034
3361.15452	0.00039
3359.22615	0.00032
3357.29778	0.00021
3355.36940	0.00039
3353.44103	0.00047
3351.51266	0.00036
3349.58428	0.00028
3347.65591	0.00044
3345.72754	0.00035
3343.79917	0.00034
3341.87079	0.00023
3339.94242	0.00019
3338.01405	0.00032
3336.08567	0.00018
3334.15730	0.00025
3332.22893	0.00045
3330.30055	0.00048
3328.37218	0.00033
3326.44381	0.00013
3324.51543	0.00009
3322.58706	0.00022
3320.65869	0.00022
3318.73031	0.00021
3316.80194	0.00020
3314.87357	0.00019
3312.94519	0.00030
3311.01682	0.00056
3309.08845	0.00051
3307.16007	0.00021
3305.23170	0.00018
3303.30333	0.00018
3301.37495	0.00012
3299.44658	0.00037
3297.51821	0.00049
3295.58983	0.00039
3293.66146	0.00020
3291.73309	0.00022
3289.80472	0.00020
3287.87634	0.00015
3285.94797	0.00017
3284.01960	0.00013
3282.09122	0.00039
3280.16285	0.00051
3278.23448	0.00040
3276.30610	0.00035
3274.37773	0.00021
3272.44936	0.00012
3270.52098	0.00020
3268.59261	0.00010
3266.66424	0.00025
3264.73586	0.00032
3262.80749	0.00042
3260.87912	0.00059
3258.95074	0.00059
3257.02237	0.00064
3255.09400	0.00063
3253.16562	0.00054
3251.23725	0.00041
3249.30888	0.00033
3247.38050	0.00040
3245.45213	0.00052
3243.52376	0.00060
3241.59538	0.00059
3239.66701	0.00057
3237.73864	0.00053
3235.81026	0.00036
3233.88189	0.00015
3231.95352	0.00022
3230.02515	0.00019
3228.09677	0.00044
3226.16840	0.00050
3224.24003	0.00032
3222.31165	0.00040
3220.38328	0.00056
3218.45491	0.00038
3216.52653	0.00020
3214.59816	0.00042
3212.66979	0.00040
3210.74141	0.00040
3208.81304	0.00035
3206.88467	0.00043
3204.95629	0.00044
3203.02792	0.00038
3201.09955	0.00058
3199.17117	0.00039
3197.24280	0.00012
3195.31443	0.00029
3193.38605	0.00030
3191.45768	0.00030
3189.52931	0.00033
3187.60093	0.00033
3185.67256	0.00030
3183.74419	0.00009
3181.81581	0.00027
3179.88744	0.00041
3177.95907	0.00023
3176.03070	0.00022
3174.10232	0.00020
3172.17395	0.00036
3170.24558	0.00055
3168.31720	0.00046
3166.38883	0.00038
3164.46046	0.00055
3162.53208	0.00063
3160.60371	0.00054
3158.67534	0.00044
3156.74696	0.00042
3154.81859	0.00032
3152.89022	0.00028
3150.96184	0.00030
3149.03347	0.00028
3147.10510	0.00038
3145.17672	0.00044
3143.24835	0.00035
3141.31998	0.00023
3139.39160	0.00019
3137.46323	0.00023
3135.53486	0.00019
3133.60648	0.00028
3131.67811	0.00032
3129.74974	0.00024
3127.82136	0.00021
3125.89299	0.00032
3123.96462	0.00035
3122.03624	0.00027
3120.10787	0.00028
3118.17950	0.00038
3116.25113	0.00041
3114.32275	0.00033
3112.39438	0.00018
3110.46601	0.00015
3108.53763	0.00029
3106.60926	0.00026
3104.68089	0.00013
3102.75251	0.00008
3100.82414	0.00015
3098.89577	0.00016
3096.96739	0.00018
3095.03902	0.00037
3093.11065	0.00033
3091.18227	0.00020
3089.25390	0.00031
3087.32553	0.00024
3085.39715	0.00018
3083.46878	0.00023
3081.54041	0.00022
3079.61203	0.00022
3077.68366	0.00028
3075.75529	0.00029
3073.82691	0.00022
3071.89854	0.00024
3069.97017	0.00022
3068.04179	0.00033
3066.11342	0.00033
3064.18505	0.00028
3062.25668	0.00029
3060.32830	0.00036
3058.39993	0.00056
3056.47156	0.00072
3054.54318	0.00065
3052.61481	0.00056
3050.68644	0.00068
3048.75806	0.00085
3046.82969	0.00093
3044.90132	0.00100
3042.97294	0.00118
3041.04457	0.00137
3039.11620	0.00138
3037.18782	0.00127
3035.25945	0.00117
3033.33108	0.00108
3031.40270	0.00110
3029.47433	0.00114
3027.54596	0.00119
3025.61758	0.00129
3023.68921	0.00145
3021.76084	0.00165
3019.83246	0.00173
3017.90409	0.00169
3015.97572	0.00159
3014.04734	0.00149
3012.11897	0.00154
3010.19060	0.00169
3008.26222	0.00166
3006.33385	0.00144
3004.40548	0.00131
3002.47711	0.00130
3000.54873	0.00122
2998.62036	0.00107
2996.69199	0.00098
2994.76361	0.00098
2992.83524	0.00111
2990.90687	0.00116
2988.97849	0.00093
2987.05012	0.00072
2985.12175	0.00061
2983.19337	0.00046
2981.26500	0.00030
2979.33663	0.00024
2977.40825	0.00018
2975.47988	0.00024
2973.55151	0.00046
2971.62313	0.00042
2969.69476	0.00026
2967.76639	0.00027
2965.83801	0.00022
2963.90964	0.00016
2961.98127	0.00018
2960.05289	0.00029
2958.12452	0.00033
2956.19615	0.00028
2954.26777	0.00021
2952.33940	0.00039
2950.41103	0.00032
2948.48266	0.00035
2946.55428	0.00032
2944.62591	0.00026
2942.69754	0.00022
2940.76916	0.00018
2938.84079	0.00045
2936.91242	0.00060
2934.98404	0.00066
2933.05567	0.00051
2931.12730	0.00030
2929.19892	0.00025
2927.27055	0.00023
2925.34218	0.00028
2923.41380	0.00018
2921.48543	0.00018
2919.55706	0.00037
2917.62868	0.00034
2915.70031	0.00026
2913.77194	0.00028
2911.84356	0.00036
2909.91519	0.00038
2907.98682	0.00032
2906.05844	0.00028
2904.13007	0.00023
2902.20170	0.00018
2900.27332	0.00016
2898.34495	0.00027
2896.41658	0.00035
2894.48820	0.00035
2892.55983	0.00032
2890.63146	0.00026
2888.70309	0.00032
2886.77471	0.00046
2884.84634	0.00037
2882.91797	0.00025
2880.98959	0.00028
2879.06122	0.00033
2877.13285	0.00027
2875.20447	0.00027
2873.27610	0.00032
2871.34773	0.00046
2869.41935	0.00075
2867.49098	0.00081
2865.56261	0.00082
2863.63423	0.00080
2861.70586	0.00071
2859.77749	0.00066
2857.84911	0.00079
2855.92074	0.00106
2853.99237	0.00134
2852.06399	0.00147
2850.13562	0.00158
2848.20725	0.00180
2846.27887	0.00207
2844.35050	0.00239
2842.42213	0.00279
2840.49375	0.00324
2838.56538	0.00363
2836.63701	0.00389
2834.70863	0.00403
2832.78026	0.00412
2830.85189	0.00419
2828.92352	0.00432
2826.99514	0.00460
2825.06677	0.00499
2823.13840	0.00534
2821.21002	0.00560
2819.28165	0.00580
2817.35328	0.00598
2815.42490	0.00619
2813.49653	0.00640
2811.56816	0.00661
2809.63978	0.00691
2807.71141	0.00727
2805.78304	0.00767
2803.85466	0.00811
2801.92629	0.00843
2799.99792	0.00862
2798.06954	0.00887
2796.14117	0.00922
2794.21280	0.00960
2792.28442	0.00996
2790.35605	0.01033
2788.42768	0.01067
2786.49930	0.01094
2784.57093	0.01121
2782.64256	0.01152
2780.71418	0.01189
2778.78581	0.01222
2776.85744	0.01242
2774.92907	0.01248
2773.00069	0.01263
2771.07232	0.01298
2769.14395	0.01335
2767.21557	0.01358
2765.28720	0.01375
2763.35883	0.01393
2761.43045	0.01417
2759.50208	0.01450
2757.57371	0.01499
2755.64533	0.01559
2753.71696	0.01602
2751.78859	0.01608
2749.86021	0.01606
2747.93184	0.01624
2746.00347	0.01660
2744.07509	0.01702
2742.14672	0.01741
2740.21835	0.01769
2738.28997	0.01783
2736.36160	0.01796
2734.43323	0.01820
2732.50485	0.01845
2730.57648	0.01872
2728.64811	0.01908
2726.71973	0.01944
2724.79136	0.01970
2722.86299	0.01991
2720.93461	0.02013
2719.00624	0.02036
2717.07787	0.02068
2715.14950	0.02106
2713.22112	0.02137
2711.29275	0.02163
2709.36438	0.02193
2707.43600	0.02228
2705.50763	0.02262
2703.57926	0.02295
2701.65088	0.02334
2699.72251	0.02382
2697.79414	0.02428
2695.86576	0.02461
2693.93739	0.02486
2692.00902	0.02511
2690.08064	0.02541
2688.15227	0.02573
2686.22390	0.02601
2684.29552	0.02629
2682.36715	0.02667
2680.43878	0.02706
2678.51040	0.02736
2676.58203	0.02769
2674.65366	0.02818
2672.72528	0.02869
2670.79691	0.02913
2668.86854	0.02958
2666.94016	0.03006
2665.01179	0.03044
2663.08342	0.03074
2661.15505	0.03106
2659.22667	0.03139
2657.29830	0.03167
2655.36993	0.03203
2653.44155	0.03246
2651.51318	0.03279
2649.58481	0.03296
2647.65643	0.03313
2645.72806	0.03333
2643.79969	0.03357
2641.87131	0.03378
2639.94294	0.03389
2638.01457	0.03403
2636.08619	0.03438
2634.15782	0.03482
2632.22945	0.03508
2630.30107	0.03523
2628.37270	0.03550
2626.44433	0.03589
2624.51595	0.03626
2622.58758	0.03660
2620.65921	0.03697
2618.73083	0.03734
2616.80246	0.03764
2614.87409	0.03783
2612.94571	0.03808
2611.01734	0.03847
2609.08897	0.03894
2607.16059	0.03937
2605.23222	0.03971
2603.30385	0.04002
2601.37548	0.04038
2599.44710	0.04076
2597.51873	0.04104
2595.59036	0.04129
2593.66198	0.04164
2591.73361	0.04197
2589.80524	0.04212
2587.87686	0.04220
2585.94849	0.04238
2584.02012	0.04269
2582.09174	0.04305
2580.16337	0.04342
2578.23500	0.04384
2576.30662	0.04431
2574.37825	0.04480
2572.44988	0.04529
2570.52150	0.04577
2568.59313	0.04626
2566.66476	0.04679
2564.73638	0.04739
2562.80801	0.04805
2560.87964	0.04879
2558.95126	0.04958
2557.02289	0.05030
2555.09452	0.05095
2553.16614	0.05162
2551.23777	0.05226
2549.30940	0.05280
2547.38103	0.05328
2545.45265	0.05368
2543.52428	0.05399
2541.59591	0.05428
2539.66753	0.05462
2537.73916	0.05499
2535.81079	0.05535
2533.88241	0.05569
2531.95404	0.05597
2530.02567	0.05618
2528.09729	0.05641
2526.16892	0.05677
2524.24055	0.05726
2522.31217	0.05776
2520.38380	0.05821
2518.45543	0.05860
2516.52705	0.05899
2514.59868	0.05939
2512.67031	0.05978
2510.74193	0.06013
2508.81356	0.06054
2506.88519	0.06107
2504.95681	0.06167
2503.02844	0.06229
2501.10007	0.06279
2499.17169	0.06313
2497.24332	0.06346
2495.31495	0.06394
2493.38657	0.06450
2491.45820	0.06502
2489.52983	0.06558
2487.60146	0.06624
2485.67308	0.06688
2483.74471	0.06738
2481.81634	0.06774
2479.88796	0.06816
2477.95959	0.06874
2476.03122	0.06931
2474.10284	0.06977
2472.17447	0.07028
2470.24610	0.07095
2468.31772	0.07166
2466.38935	0.07232
2464.46098	0.07289
2462.53260	0.07344
2460.60423	0.07402
2458.67586	0.07461
2456.74748	0.07518
2454.81911	0.07572
2452.89074	0.07625
2450.96236	0.07684
2449.03399	0.07742
2447.10562	0.07787
2445.17724	0.07827
2443.24887	0.07875
2441.32050	0.07926
2439.39212	0.07977
2437.46375	0.08030
2435.53538	0.08085
2433.60700	0.08143
2431.67863	0.08210
2429.75026	0.08283
2427.82189	0.08350
2425.89351	0.08404
2423.96514	0.08450
2422.03677	0.08498
2420.10839	0.08550
2418.18002	0.08597
2416.25165	0.08633
2414.32327	0.08671
2412.39490	0.08721
2410.46653	0.08780
2408.53815	0.08836
2406.60978	0.08891
2404.68141	0.08954
2402.75303	0.09023
2400.82466	0.09094
2398.89629	0.09166
2396.96791	0.09232
2395.03954	0.09294
2393.11117	0.09362
2391.18279	0.09429
2389.25442	0.09485
2387.32605	0.09535
2385.39767	0.09573
2383.46930	0.09594
2381.54093	0.09607
2379.61255	0.09620
2377.68418	0.09628
2375.75581	0.09628
2373.82744	0.09629
2371.89906	0.09617
2369.97069	0.09585
2368.04232	0.09565
2366.11394	0.09575
2364.18557	0.09588
2362.25720	0.09596
2360.32882	0.09636
2358.40045	0.09704
2356.47208	0.09767
2354.54370	0.09829
2352.61533	0.09901
2350.68696	0.09983
2348.75858	0.10040
2346.83021	0.10058
2344.90184	0.10063
2342.97346	0.10073
2341.04509	0.10066
2339.11672	0.10066
2337.18834	0.10113
2335.25997	0.10167
2333.33160	0.10175
2331.40322	0.10182
2329.47485	0.10238
2327.54648	0.10308
2325.61810	0.10360
2323.68973	0.10411
2321.76136	0.10480
2319.83298	0.10562
2317.90461	0.10650
2315.97624	0.10740
2314.04787	0.10830
2312.11949	0.10927
2310.19112	0.11034
2308.26275	0.11141
2306.33437	0.11245
2304.40600	0.11350
2302.47763	0.11450
2300.54925	0.11546
2298.62088	0.11634
2296.69251	0.11703
2294.76413	0.11754
2292.83576	0.11805
2290.90739	0.11864
2288.97901	0.11921
2287.05064	0.11975
2285.12227	0.12030
2283.19389	0.12083
2281.26552	0.12116
2279.33715	0.12132
2277.40877	0.12145
2275.48040	0.12165
2273.55203	0.12185
2271.62365	0.12201
2269.69528	0.12216
2267.76691	0.12240
2265.83853	0.12269
2263.91016	0.12295
2261.98179	0.12321
2260.05342	0.12361
2258.12504	0.12410
2256.19667	0.12457
2254.26830	0.12503
2252.33992	0.12556
2250.41155	0.12622
2248.48318	0.12692
2246.55480	0.12752
2244.62643	0.12800
2242.69806	0.12846
2240.76968	0.12893
2238.84131	0.12937
2236.91294	0.12977
2234.98456	0.13015
2233.05619	0.13049
2231.12782	0.13074
2229.19944	0.13092
2227.27107	0.13110
2225.34270	0.13133
2223.41432	0.13156
2221.48595	0.13172
2219.55758	0.13180
2217.62920	0.13182
2215.70083	0.13185
2213.77246	0.13192
2211.84408	0.13203
2209.91571	0.13214
2207.98734	0.13219
2206.05896	0.13215
2204.13059	0.13208
2202.20222	0.13198
2200.27385	0.13185
2198.34547	0.13175
2196.41710	0.13176
2194.48873	0.13183
2192.56035	0.13182
2190.63198	0.13172
2188.70361	0.13164
2186.77523	0.13168
2184.84686	0.13179
2182.91849	0.13184
2180.99011	0.13179
2179.06174	0.13174
2177.13337	0.13178
2175.20499	0.13185
2173.27662	0.13182
2171.34825	0.13175
2169.41987	0.13176
2167.49150	0.13177
2165.56313	0.13172
2163.63475	0.13172
2161.70638	0.13179
2159.77801	0.13186
2157.84963	0.13195
2155.92126	0.13212
2153.99289	0.13231
2152.06451	0.13249
2150.13614	0.13265
2148.20777	0.13282
2146.27940	0.13303
2144.35102	0.13332
2142.42265	0.13366
2140.49428	0.13393
2138.56590	0.13415
2136.63753	0.13447
2134.70916	0.13486
2132.78078	0.13514
2130.85241	0.13531
2128.92404	0.13549
2126.99566	0.13577
2125.06729	0.13617
2123.13892	0.13666
2121.21054	0.13724
2119.28217	0.13780
2117.35380	0.13829
2115.42542	0.13878
2113.49705	0.13930
2111.56868	0.13987
2109.64030	0.14051
2107.71193	0.14110
2105.78356	0.14158
2103.85518	0.14205
2101.92681	0.14249
2099.99844	0.14285
2098.07006	0.14317
2096.14169	0.14350
2094.21332	0.14380
2092.28494	0.14401
2090.35657	0.14417
2088.42820	0.14433
2086.49983	0.14451
2084.57145	0.14467
2082.64308	0.14479
2080.71471	0.14490
2078.78633	0.14501
2076.85796	0.14516
2074.92959	0.14534
2073.00121	0.14553
2071.07284	0.14576
2069.14447	0.14603
2067.21609	0.14628
2065.28772	0.14662
2063.35935	0.14718
2061.43097	0.14790
2059.50260	0.14863
2057.57423	0.14936
2055.64585	0.15015
2053.71748	0.15101
2051.78911	0.15186
2049.86073	0.15269
2047.93236	0.15358
2046.00399	0.15444
2044.07561	0.15518
2042.14724	0.15581
2040.21887	0.15640
2038.29049	0.15701
2036.36212	0.15762
2034.43375	0.15816
2032.50538	0.15854
2030.57700	0.15887
2028.64863	0.15922
2026.72026	0.15952
2024.79188	0.15976
2022.86351	0.16001
2020.93514	0.16031
2019.00676	0.16059
2017.07839	0.16095
2015.15002	0.16151
2013.22164	0.16220
2011.29327	0.16284
2009.36490	0.16342
2007.43652	0.16397
2005.50815	0.16451
2003.57978	0.16509
2001.65140	0.16570
1999.72303	0.16628
1997.79466	0.16682
1995.86628	0.16724
1993.93791	0.16738
1992.00954	0.16752
1990.08116	0.16804
1988.15279	0.16875
1986.22442	0.16932
1984.29604	0.16964
1982.36767	0.16986
1980.43930	0.17015
1978.51092	0.17048
1976.58255	0.17078
1974.65418	0.17116
1972.72581	0.17158
1970.79743	0.17189
1968.86906	0.17203
1966.94069	0.17226
1965.01231	0.17281
1963.08394	0.17341
1961.15557	0.17386
1959.22719	0.17429
1957.29882	0.17480
1955.37045	0.17541
1953.44207	0.17613
1951.51370	0.17686
1949.58533	0.17744
1947.65695	0.17783
1945.72858	0.17802
1943.80021	0.17815
1941.87183	0.17871
1939.94346	0.17975
1938.01509	0.18060
1936.08671	0.18105
1934.15834	0.18136
1932.22997	0.18168
1930.30159	0.18199
1928.37322	0.18224
1926.44485	0.18227
1924.51647	0.18199
1922.58810	0.18175
1920.65973	0.18176
1918.73135	0.18190
1916.80298	0.18240
1914.87461	0.18314
1912.94624	0.18352
1911.01786	0.18349
1909.08949	0.18344
1907.16112	0.18355
1905.23274	0.18360
1903.30437	0.18351
1901.37600	0.18347
1899.44762	0.18345
1897.51925	0.18319
1895.59088	0.18278
1893.66250	0.18248
1891.73413	0.18208
1889.80576	0.18171
1887.87738	0.18201
1885.94901	0.18262
1884.02064	0.18301
1882.09226	0.18329
1880.16389	0.18353
1878.23552	0.18377
1876.30714	0.18411
1874.37877	0.18445
1872.45040	0.18435
1870.52202	0.18350
1868.59365	0.18281
1866.66528	0.18339
1864.73690	0.18445
1862.80853	0.18496
1860.88016	0.18498
1858.95179	0.18490
1857.02341	0.18482
1855.09504	0.18464
1853.16667	0.18433
1851.23829	0.18387
1849.30992	0.18317
1847.38155	0.18210
1845.45317	0.18087
1843.52480	0.18058
1841.59643	0.18142
1839.66805	0.18192
1837.73968	0.18172
1835.81131	0.18146
1833.88293	0.18106
1831.95456	0.17993
1830.02619	0.17860
1828.09781	0.17813
1826.16944	0.17798
1824.24107	0.17776
1822.31269	0.17779
1820.38432	0.17749
1818.45595	0.17661
1816.52757	0.17558
1814.59920	0.17440
1812.67083	0.17273
1810.74245	0.17092
1808.81408	0.16956
1806.88571	0.16843
1804.95733	0.16689
1803.02896	0.16470
1801.10059	0.16225
1799.17222	0.16025
1797.24384	0.15854
1795.31547	0.15633
1793.38710	0.15336
1791.45872	0.15074
1789.53035	0.14933
1787.60198	0.14783
1785.67360	0.14543
1783.74523	0.14259
1781.81686	0.13968
1779.88848	0.13684
1777.96011	0.13415
1776.03174	0.13120
1774.10336	0.12742
1772.17499	0.12320
1770.24662	0.11992
1768.31824	0.11744
1766.38987	0.11463
1764.46150	0.11100
1762.53312	0.10628
1760.60475	0.10109
1758.67638	0.09586
1756.74800	0.08967
1754.81963	0.08279
1752.89126	0.07529
1750.96288	0.06610
1749.03451	0.05596
1747.10614	0.04658
1745.17777	0.03792
1743.24939	0.02979
1741.32102	0.02240
1739.39265	0.01590
1737.46427	0.01114
1735.53590	0.00776
1733.60753	0.00472
1731.67915	0.00266
1729.75078	0.00161
1727.82241	0.00095
1725.89403	0.00055
1723.96566	0.00037
1722.03729	0.00025
1720.10891	0.00025
1718.18054	0.00039
1716.25217	0.00045
1714.32379	0.00034
1712.39542	0.00022
1710.46705	0.00025
1708.53867	0.00022
1706.61030	0.00019
1704.68193	0.00016
1702.75355	0.00024
1700.82518	0.00037
1698.89681	0.00035
1696.96843	0.00017
1695.04006	0.00018
1693.11169	0.00029
1691.18331	0.00025
1689.25494	0.00016
1687.32657	0.00025
1685.39820	0.00028
1683.46982	0.00047
1681.54145	0.00034
1679.61308	0.00016
1677.68470	0.00011
1675.75633	0.00024
1673.82796	0.00027
1671.89958	0.00012
1669.97121	0.00016
1668.04284	0.00011
1666.11446	0.00016
1664.18609	0.00032
1662.25772	0.00039
1660.32934	0.00026
1658.40097	0.00017
1656.47260	0.00019
1654.54422	0.00037
1652.61585	0.00037
1650.68748	0.00022
1648.75910	0.00020
1646.83073	0.00019
1644.90236	0.00023
1642.97398	0.00023
1641.04561	0.00017
1639.11724	0.00018
1637.18886	0.00018
1635.26049	0.00017
1633.33212	0.00010
1631.40375	0.00019
1629.47537	0.00020
1627.54700	0.00012
1625.61863	0.00016
1623.69025	0.00018
1621.76188	0.00022
1619.83351	0.00026
1617.90513	0.00011
1615.97676	0.00020
1614.04839	0.00025
1612.12001	0.00014
1610.19164	0.00009
1608.26327	0.00009
1606.33489	0.00018
1604.40652	0.00029
1602.47815	0.00038
1600.54977	0.00037
1598.62140	0.00031
1596.69303	0.00031
1594.76465	0.00030
1592.83628	0.00027
1590.90791	0.00017
1588.97953	0.00003
1587.05116	0.00008
1585.12279	0.00011
1583.19441	0.00028
1581.26604	0.00030
1579.33767	0.00024
1577.40929	0.00030
1575.48092	0.00036
1573.55255	0.00025
1571.62418	0.00015
1569.69580	0.00024
1567.76743	0.00032
1565.83906	0.00032
1563.91068	0.00031
1561.98231	0.00036
1560.05394	0.00044
1558.12556	0.00063
1556.19719	0.00043
1554.26882	0.00019
1552.34044	0.00013
1550.41207	0.00014
1548.48370	0.00011
1546.55532	0.00009
1544.62695	0.00007
1542.69858	0.00019
1540.77020	0.00032
1538.84183	0.00030
1536.91346	0.00023
1534.98508	0.00022
1533.05671	0.00019
1531.12834	0.00007
1529.19996	0.00014
1527.27159	0.00022
1525.34322	0.00012
1523.41484	0.00014
1521.48647	0.00026
1519.55810	0.00025
1517.62972	0.00021
1515.70135	0.00016
1513.77298	0.00013
1511.84461	0.00011
1509.91623	0.00020
1507.98786	0.00020
1506.05949	0.00019
1504.13111	0.00022
1502.20274	0.00023
1500.27437	0.00028
1498.34599	0.00031
1496.41762	0.00025
1494.48925	0.00021
1492.56087	0.00036
1490.63250	0.00052
1488.70413	0.00049
1486.77575	0.00038
1484.84738	0.00030
1482.91901	0.00028
1480.99063	0.00025
1479.06226	0.00015
1477.13389	0.00010
1475.20551	0.00020
1473.27714	0.00030
1471.34877	0.00030
1469.42039	0.00025
1467.49202	0.00022
1465.56365	0.00025
1463.63527	0.00023
1461.70690	0.00019
1459.77853	0.00019
1457.85016	0.00016
1455.92178	0.00007
1453.99341	0.00013
1452.06504	0.00015
1450.13666	0.00014
1448.20829	0.00025
1446.27992	0.00024
1444.35154	0.00016
1442.42317	0.00014
1440.49480	0.00018
1438.56642	0.00024
1436.63805	0.00043
1434.70968	0.00040
1432.78130	0.00025
1430.85293	0.00013
1428.92456	0.00010
1426.99618	0.00012
1425.06781	0.00027
1423.13944	0.00044
1421.21106	0.00054
1419.28269	0.00041
1417.35432	0.00024
1415.42594	0.00021
1413.49757	0.00026
1411.56920	0.00033
1409.64082	0.00034
1407.71245	0.00027
1405.78408	0.00019
1403.85570	0.00017
1401.92733	0.00016
1399.99896	0.00015
1398.07059	0.00019
1396.14221	0.00022
1394.21384	0.00018
1392.28547	0.00020
1390.35709	0.00020
1388.42872	0.00018
1386.50035	0.00022
1384.57197	0.00029
1382.64360	0.00026
1380.71523	0.00015
1378.78685	0.00011
1376.85848	0.00021
1374.93011	0.00032
1373.00173	0.00035
1371.07336	0.00025
1369.14499	0.00018
1367.21661	0.00021
1365.28824	0.00019
1363.35987	0.00018
1361.43149	0.00026
1359.50312	0.00043
1357.57475	0.00046
1355.64637	0.00036
1353.71800	0.00039
1351.78963	0.00041
1349.86125	0.00038
1347.93288	0.00032
1346.00451	0.00028
1344.07614	0.00021
1342.14776	0.00024
1340.21939	0.00029
1338.29102	0.00039
1336.36264	0.00043
1334.43427	0.00035
1332.50590	0.00030
1330.57752	0.00027
1328.64915	0.00017
1326.72078	0.00021
1324.79240	0.00022
1322.86403	0.00016
1320.93566	0.00031
1319.00728	0.00032
1317.07891	0.00029
1315.15054	0.00036
1313.22216	0.00032
1311.29379	0.00015
1309.36542	0.00019
1307.43704	0.00038
1305.50867	0.00040
1303.58030	0.00031
1301.65192	0.00011
1299.72355	0.00020
1297.79518	0.00030
1295.86680	0.00042
1293.93843	0.00033
1292.01006	0.00016
1290.08168	0.00017
1288.15331	0.00020
1286.22494	0.00021
1284.29657	0.00031
1282.36819	0.00041
1280.43982	0.00044
1278.51145	0.00037
1276.58307	0.00034
1274.65470	0.00044
1272.72633	0.00048
1270.79795	0.00061
1268.86958	0.00055
1266.94121	0.00040
1265.01283	0.00028
1263.08446	0.00012
1261.15609	0.00044
1259.22771	0.00045
1257.29934	0.00025
1255.37097	0.00026
1253.44259	0.00020
1251.51422	0.00013
1249.58585	0.00015
1247.65747	0.00027
1245.72910	0.00023
1243.80073	0.00032
1241.87235	0.00041
1239.94398	0.00045
1238.01561	0.00044
1236.08723	0.00052
1234.15886	0.00067
1232.23049	0.00067
1230.30212	0.00067
1228.37374	0.00061
1226.44537	0.00046
1224.51700	0.00064
1222.58862	0.00077
1220.66025	0.00073
1218.73188	0.00067
1216.80350	0.00068
1214.87513	0.00070
1212.94676	0.00079
1211.01838	0.00094
1209.09001	0.00100
1207.16164	0.00092
1205.23326	0.00071
1203.30489	0.00053
1201.37652	0.00036
1199.44814	0.00049
1197.51977	0.00086
1195.59140	0.00104
1193.66302	0.00094
1191.73465	0.00082
1189.80628	0.00069
1187.87790	0.00048
1185.94953	0.00033
1184.02116	0.00030
1182.09278	0.00036
1180.16441	0.00036
1178.23604	0.00030
1176.30766	0.00022
1174.37929	0.00036
1172.45092	0.00041
1170.52255	0.00035
1168.59417	0.00033
1166.66580	0.00046
1164.73743	0.00035
1162.80905	0.00009
1160.88068	0.00025
1158.95231	0.00015
1157.02393	0.00021
1155.09556	0.00023
1153.16719	0.00037
1151.23881	0.00048
1149.31044	0.00037
1147.38207	0.00060
1145.45369	0.00101
1143.52532	0.00123
1141.59695	0.00105
1139.66857	0.00061
1137.74020	0.00040
1135.81183	0.00052
1133.88345	0.00038
1131.95508	0.00024
1130.02671	0.00039
1128.09833	0.00038
1126.16996	0.00025
1124.24159	0.00038
1122.31321	0.00057
1120.38484	0.00053
1118.45647	0.00034
1116.52809	0.00031
1114.59972	0.00054
1112.67135	0.00048
1110.74298	0.00045
1108.81460	0.00048
1106.88623	0.00047
1104.95786	0.00042
1103.02948	0.00039
1101.10111	0.00059
1099.17274	0.00076
1097.24436	0.00085
1095.31599	0.00069
1093.38762	0.00042
1091.45924	0.00034
1089.53087	0.00046
1087.60250	0.00037
1085.67412	0.00033
1083.74575	0.00030
1081.81738	0.00038
1079.88900	0.00036
1077.96063	0.00037
1076.03226	0.00047
1074.10388	0.00054
1072.17551	0.00041
1070.24714	0.00048
1068.31876	0.00036
1066.39039	0.00053
1064.46202	0.00067
1062.53364	0.00053
1060.60527	0.00078
1058.67690	0.00069
1056.74853	0.00058
1054.82015	0.00069
1052.89178	0.00059
1050.96341	0.00038
1049.03503	0.00031
1047.10666	0.00029
1045.17829	0.00031
1043.24991	0.00062
1041.32154	0.00082
1039.39317	0.00074
1037.46479	0.00058
1035.53642	0.00045
1033.60805	0.00034
1031.67967	0.00036
1029.75130	0.00008
1027.82293	0.00047
1025.89455	0.00062
1023.96618	0.00051
1022.03781	0.00030
1020.10943	0.00044
1018.18106	0.00047
1016.25269	0.00025
1014.32431	0.00021
1012.39594	0.00027
1010.46757	0.00037
1008.53919	0.00030
1006.61082	0.00026
1004.68245	0.00028
1002.75407	0.00023
1000.82570	0.00037
998.89733	0.00050
996.96896	0.00074
995.04058	0.00090
993.11221	0.00098
991.18384	0.00117
989.25546	0.00142
987.32709	0.00161
985.39872	0.00182
983.47034	0.00214
981.54197	0.00243
979.61360	0.00253
977.68522	0.00250
975.75685	0.00261
973.82848	0.00307
971.90010	0.00391
969.97173	0.00509
968.04336	0.00652
966.11498	0.00777
964.18661	0.00831
962.25824	0.00785
960.32986	0.00633
958.40149	0.00428
956.47312	0.00260
954.54474	0.00171
952.61637	0.00153
950.68800	0.00178
948.75962	0.00233
946.83125	0.00320
944.90288	0.00423
942.97451	0.00524
941.04613	0.00645
939.11776	0.00822
937.18939	0.01047
935.26101	0.01273
933.33264	0.01465
931.40427	0.01624
929.47589	0.01745
927.54752	0.01796
925.61915	0.01785
923.69077	0.01764
921.76240	0.01772
919.83403	0.01838
917.90565	0.01966
915.97728	0.02112
914.04891	0.02221
912.12053	0.02263
910.19216	0.02222
908.26379	0.02078
906.33541	0.01847
904.40704	0.01590
902.47867	0.01372
900.55029	0.01250
898.62192	0.01215
896.69355	0.01210
894.76517	0.01244
892.83680	0.01350
890.90843	0.01477
888.98005	0.01568
887.05168	0.01584
885.12331	0.01538
883.19494	0.01558
881.26656	0.01758
879.33819	0.02051
877.40982	0.02276
875.48144	0.02403
873.55307	0.02499
871.62470	0.02577
869.69632	0.02618
867.76795	0.02628
865.83958	0.02619
863.91120	0.02581
861.98283	0.02505
860.05446	0.02401
858.12608	0.02285
856.19771	0.02180
854.26934	0.02095
852.34096	0.02009
850.41259	0.01920
848.48422	0.01875
846.55584	0.01867
844.62747	0.01851
842.69910	0.01836
840.77072	0.01830
838.84235	0.01806
836.91398	0.01774
834.98560	0.01783
833.05723	0.01840
831.12886	0.01898
829.20049	0.01900
827.27211	0.01846
825.34374	0.01789
823.41537	0.01751
821.48699	0.01737
819.55862	0.01744
817.63025	0.01743
815.70187	0.01735
813.77350	0.01711
811.84513	0.01656
809.91675	0.01576
807.98838	0.01477
806.06001	0.01386
804.13163	0.01319
802.20326	0.01250
800.27489	0.01152
798.34651	0.01025
796.41814	0.00893
794.48977	0.00786
792.56139	0.00683
790.63302	0.00584
788.70465	0.00531
786.77627	0.00512
784.84790	0.00469
782.91953	0.00394
780.99115	0.00329
779.06278	0.00286
777.13441	0.00219
775.20603	0.00127
773.27766	0.00063
771.34929	0.00051
769.42092	0.00064
767.49254	0.00063
765.56417	0.00022
763.63580	0.00017
761.70742	0.00041
759.77905	0.00074
757.85068	0.00086
755.92230	0.00077
753.99393	0.00072
752.06556	0.00083
750.13718	0.00082
748.20881	0.00065
746.28044	0.00097
744.35206	0.00073
742.42369	0.00074
740.49532	0.00122
738.56694	0.00117
736.63857	0.00083
734.71020	0.00099
732.78182	0.00134
730.85345	0.00117
728.92508	0.00086
726.99670	0.00109
725.06833	0.00160
723.13996	0.00176
721.21158	0.00168
719.28321	0.00173
717.35484	0.00175
715.42647	0.00163
713.49809	0.00115
711.56972	0.00050
709.64135	0.00047
707.71297	0.00084
705.78460	0.00108
703.85623	0.00120
701.92785	0.00142
699.99948	0.00157
698.07111	0.00139
696.14273	0.00114
694.21436	0.00108
692.28599	0.00125
690.35761	0.00158
688.42924	0.00197
686.50087	0.00265
684.57249	0.00325
682.64412	0.00269
680.71575	0.00167
678.78737	0.00176
676.85900	0.00204
674.93063	0.00141
673.00225	0.00067
671.07388	0.00098
669.14551	0.00144
667.21713	0.00146
665.28876	0.00091
663.36039	0.00065
661.43201	0.00103
659.50364	0.00172
657.57527	0.00191
655.64690	0.00149
653.71852	0.00086
651.79015	0.00100
649.86178	0.00173
647.93340	0.00180
646.00503	0.00116
644.07666	0.00058
642.14828	0.00106
640.21991	0.00173
638.29154	0.00160
636.36316	0.00188
634.43479	0.00220
632.50642	0.00194
630.57804	0.00064
628.64967	0.00146
626.72130	0.00244
624.79292	0.00303
622.86455	0.00299
620.93618	0.00147
619.00780	0.00104
617.07943	0.00185
615.15106	0.00316
613.22268	0.00403
611.29431	0.00402
609.36594	0.00307
607.43756	0.00237
605.50919	0.00281
603.58082	0.00357
601.65244	0.00330
599.72407	0.00292
