3997.51769	0.61804
3995.58931	0.61776
3993.66094	0.61739
3991.73257	0.61767
3989.80419	0.61827
3987.87582	0.61826
3985.94745	0.61813
3984.01907	0.61824
3982.09070	0.61807
3980.16233	0.61774
3978.23396	0.61771
3976.30558	0.61819
3974.37721	0.61885
3972.44884	0.61869
3970.52046	0.61752
3968.59209	0.61637
3966.66372	0.61617
3964.73534	0.61680
3962.80697	0.61757
3960.87860	0.61798
3958.95022	0.61828
3957.02185	0.61905
3955.09348	0.62029
3953.16510	0.62147
3951.23673	0.62211
3949.30836	0.62212
3947.37998	0.62191
3945.45161	0.62202
3943.52324	0.62252
3941.59486	0.62294
3939.66649	0.62275
3937.73812	0.62220
3935.80974	0.62213
3933.88137	0.62306
3931.95300	0.62432
3930.02462	0.62490
3928.09625	0.62519
3926.16788	0.62587
3924.23950	0.62603
3922.31113	0.62539
3920.38276	0.62568
3918.45439	0.62698
3916.52601	0.62727
3914.59764	0.62636
3912.66927	0.62590
3910.74089	0.62629
3908.81252	0.62709
3906.88415	0.62908
3904.95577	0.63244
3903.02740	0.63467
3901.09903	0.63439
3899.17065	0.63276
3897.24228	0.63082
3895.31391	0.63023
3893.38553	0.63172
3891.45716	0.63321
3889.52879	0.63319
3887.60041	0.63390
3885.67204	0.63529
3883.74367	0.63574
3881.81529	0.63629
3879.88692	0.63602
3877.95855	0.63429
3876.03017	0.63392
3874.10180	0.63553
3872.17343	0.63794
3870.24505	0.63965
3868.31668	0.63940
3866.38831	0.63970
3864.45994	0.64125
3862.53156	0.64033
3860.60319	0.63748
3858.67482	0.63617
3856.74644	0.63719
3854.81807	0.64075
3852.88970	0.64380
3850.96132	0.64124
3849.03295	0.63760
3847.10458	0.63596
3845.17620	0.63667
3843.24783	0.63859
3841.31946	0.64022
3839.39108	0.64133
3837.46271	0.64140
3835.53434	0.63995
3833.60596	0.63817
3831.67759	0.63665
3829.74922	0.63574
3827.82084	0.63606
3825.89247	0.63701
3823.96410	0.63866
3822.03572	0.64173
3820.10735	0.64286
3818.17898	0.64069
3816.25060	0.63813
3814.32223	0.63550
3812.39386	0.63386
3810.46548	0.63407
3808.53711	0.63575
3806.60874	0.63700
3804.68037	0.63720
3802.75199	0.63838
3800.82362	0.63881
3798.89525	0.63712
3796.96687	0.63577
3795.03850	0.63400
3793.11013	0.63168
3791.18175	0.63048
3789.25338	0.63055
3787.32501	0.63114
3785.39663	0.63143
3783.46826	0.63104
3781.53989	0.63088
3779.61151	0.63093
3777.68314	0.62943
3775.75477	0.62738
3773.82639	0.62698
3771.89802	0.62811
3769.96965	0.62926
3768.04127	0.62893
3766.11290	0.62760
3764.18453	0.62638
3762.25615	0.62631
3760.32778	0.62762
3758.39941	0.62819
3756.47103	0.62734
3754.54266	0.62763
3752.61429	0.63036
3750.68591	0.63218
3748.75754	0.63004
3746.82917	0.62878
3744.90080	0.62831
3742.97242	0.62493
3741.04405	0.62180
3739.11568	0.62188
3737.18730	0.62457
3735.25893	0.62645
3733.33056	0.62370
3731.40218	0.61882
3729.47381	0.61583
3727.54544	0.61490
3725.61706	0.61432
3723.68869	0.61287
3721.76032	0.61069
3719.83194	0.60781
3717.90357	0.60477
3715.97520	0.60340
3714.04682	0.60442
3712.11845	0.60594
3710.19008	0.60359
3708.26170	0.59813
3706.33333	0.59380
3704.40496	0.59147
3702.47658	0.58973
3700.54821	0.58645
3698.61984	0.58238
3696.69146	0.57868
3694.76309	0.57547
3692.83472	0.57330
3690.90635	0.57122
3688.97797	0.56528
3687.04960	0.55504
3685.12123	0.54581
3683.19285	0.53861
3681.26448	0.53193
3679.33611	0.52543
3677.40773	0.51935
3675.47936	0.51016
3673.55099	0.49798
3671.62261	0.48765
3669.69424	0.47436
3667.76587	0.45842
3665.83749	0.44553
3663.90912	0.43404
3661.98075	0.42231
3660.05237	0.41100
3658.12400	0.40002
3656.19563	0.38691
3654.26725	0.37414
3652.33888	0.36495
3650.41051	0.35507
3648.48213	0.33977
3646.55376	0.32310
3644.62539	0.30933
3642.69701	0.29730
3640.76864	0.28547
3638.84027	0.27332
3636.91189	0.26175
3634.98352	0.25136
3633.05515	0.24174
3631.12678	0.23307
3629.19840	0.22296
3627.27003	0.21059
3625.34166	0.20054
3623.41328	0.19231
3621.48491	0.18453
3619.55654	0.17628
3617.62816	0.16783
3615.69979	0.16026
3613.77142	0.15261
3611.84304	0.14455
3609.91467	0.13717
3607.98630	0.13043
3606.05792	0.12404
3604.12955	0.11841
3602.20118	0.11281
3600.27280	0.10667
3598.34443	0.10073
3596.41606	0.09556
3594.48768	0.09060
3592.55931	0.08563
3590.63094	0.08139
3588.70256	0.07721
3586.77419	0.07255
3584.84582	0.06827
3582.91744	0.06432
3580.98907	0.06054
3579.06070	0.05730
3577.13233	0.05434
3575.20395	0.05112
3573.27558	0.04794
3571.34721	0.04516
3569.41883	0.04257
3567.49046	0.03950
3565.56209	0.03615
3563.63371	0.03395
3561.70534	0.03253
3559.77697	0.03102
3557.84859	0.02910
3555.92022	0.02710
3553.99185	0.02558
3552.06347	0.02425
3550.13510	0.02248
3548.20673	0.02029
3546.27835	0.01844
3544.34998	0.01749
3542.42161	0.01697
3540.49323	0.01599
3538.56486	0.01438
3536.63649	0.01264
3534.70811	0.01124
3532.77974	0.01055
3530.85137	0.01051
3528.92299	0.01074
3526.99462	0.01066
3525.06625	0.00969
3523.13787	0.00814
3521.20950	0.00679
3519.28113	0.00598
3517.35276	0.00547
3515.42438	0.00481
3513.49601	0.00375
3511.56764	0.00280
3509.63926	0.00247
3507.71089	0.00224
3505.78252	0.00198
3503.85414	0.00212
3501.92577	0.00239
3499.99740	0.00234
3498.06902	0.00188
3496.14065	0.00158
3494.21228	0.00163
3492.28390	0.00153
3490.35553	0.00129
3488.42716	0.00101
3486.49878	0.00086
3484.57041	0.00047
3482.64204	0.00056
3480.71366	0.00039
3478.78529	0.00052
3476.85692	0.00105
3474.92854	0.00150
3473.00017	0.00153
3471.07180	0.00141
3469.14342	0.00133
3467.21505	0.00089
3465.28668	0.00076
3463.35831	0.00085
3461.42993	0.00073
3459.50156	0.00056
3457.57319	0.00031
3455.64481	0.00061
3453.71644	0.00062
3451.78807	0.00055
3449.85969	0.00078
3447.93132	0.00096
3446.00295	0.00091
3444.07457	0.00070
3442.14620	0.00102
3440.21783	0.00091
3438.28945	0.00106
3436.36108	0.00154
3434.43271	0.00185
3432.50433	0.00159
3430.57596	0.00075
3428.64759	0.00081
3426.71921	0.00088
3424.79084	0.00027
3422.86247	0.00083
3420.93409	0.00120
3419.00572	0.00107
3417.07735	0.00095
3415.14897	0.00134
3413.22060	0.00138
3411.29223	0.00089
3409.36385	0.00055
3407.43548	0.00095
3405.50711	0.00105
3403.57874	0.00037
3401.65036	0.00097
3399.72199	0.00110
3397.79362	0.00068
3395.86524	0.00099
3393.93687	0.00106
3392.00850	0.00106
3390.08012	0.00121
3388.15175	0.00124
3386.22338	0.00080
3384.29500	0.00040
3382.36663	0.00049
3380.43826	0.00086
3378.50988	0.00075
3376.58151	0.00052
3374.65314	0.00050
3372.72476	0.00060
3370.79639	0.00087
3368.86802	0.00079
3366.93964	0.00041
3365.01127	0.00068
3363.08290	0.00102
3361.15452	0.00120
3359.22615	0.00136
3357.29778	0.00111
3355.36940	0.00088
3353.44103	0.00067
3351.51266	0.00055
3349.58428	0.00042
3347.65591	0.00049
3345.72754	0.00090
3343.79917	0.00116
3341.87079	0.00072
3339.94242	0.00050
3338.01405	0.00085
3336.08567	0.00123
3334.15730	0.00125
3332.22893	0.00097
3330.30055	0.00058
3328.37218	0.00036
3326.44381	0.00056
3324.51543	0.00110
3322.58706	0.00139
3320.65869	0.00163
3318.73031	0.00141
3316.80194	0.00068
3314.87357	0.00042
3312.94519	0.00037
3311.01682	0.00064
3309.08845	0.00084
3307.16007	0.00111
3305.23170	0.00120
3303.30333	0.00079
3301.37495	0.00060
3299.44658	0.00023
3297.51821	0.00067
3295.58983	0.00098
3293.66146	0.00103
3291.73309	0.00064
3289.80472	0.00069
3287.87634	0.00111
3285.94797	0.00126
3284.01960	0.00127
3282.09122	0.00117
3280.16285	0.00087
3278.23448	0.00094
3276.30610	0.00127
3274.37773	0.00160
3272.44936	0.00130
3270.52098	0.00098
3268.59261	0.00089
3266.66424	0.00104
3264.73586	0.00116
3262.80749	0.00103
3260.87912	0.00077
3258.95074	0.00116
3257.02237	0.00141
3255.09400	0.00165
3253.16562	0.00190
3251.23725	0.00171
3249.30888	0.00091
3247.38050	0.00086
3245.45213	0.00111
3243.52376	0.00121
3241.59538	0.00154
3239.66701	0.00150
3237.73864	0.00119
3235.81026	0.00117
3233.88189	0.00101
3231.95352	0.00088
3230.02515	0.00076
3228.09677	0.00058
3226.16840	0.00054
3224.24003	0.00053
3222.31165	0.00057
3220.38328	0.00055
3218.45491	0.00073
3216.52653	0.00118
3214.59816	0.00127
3212.66979	0.00119
3210.74141	0.00086
3208.81304	0.00096
3206.88467	0.00108
3204.95629	0.00088
3203.02792	0.00078
3201.09955	0.00105
3199.17117	0.00081
3197.24280	0.00121
3195.31443	0.00129
3193.38605	0.00110
3191.45768	0.00061
3189.52931	0.00099
3187.60093	0.00106
3185.67256	0.00083
3183.74419	0.00116
3181.81581	0.00131
3179.88744	0.00122
3177.95907	0.00107
3176.03070	0.00069
3174.10232	0.00056
3172.17395	0.00068
3170.24558	0.00107
3168.31720	0.00180
3166.38883	0.00222
3164.46046	0.00201
3162.53208	0.00143
3160.60371	0.00093
3158.67534	0.00107
3156.74696	0.00176
3154.81859	0.00210
3152.89022	0.00192
3150.96184	0.00173
3149.03347	0.00185
3147.10510	0.00194
3145.17672	0.00197
3143.24835	0.00226
3141.31998	0.00251
3139.39160	0.00224
3137.46323	0.00202
3135.53486	0.00228
3133.60648	0.00258
3131.67811	0.00249
3129.74974	0.00206
3127.82136	0.00156
3125.89299	0.00115
3123.96462	0.00122
3122.03624	0.00158
3120.10787	0.00159
3118.17950	0.00147
3116.25113	0.00177
3114.32275	0.00249
3112.39438	0.00308
3110.46601	0.00275
3108.53763	0.00208
3106.60926	0.00187
3104.68089	0.00202
3102.75251	0.00217
3100.82414	0.00232
3098.89577	0.00257
3096.96739	0.00243
3095.03902	0.00205
3093.11065	0.00184
3091.18227	0.00204
3089.25390	0.00248
3087.32553	0.00291
3085.39715	0.00302
3083.46878	0.00284
3081.54041	0.00288
3079.61203	0.00324
3077.68366	0.00352
3075.75529	0.00328
3073.82691	0.00289
3071.89854	0.00318
3069.97017	0.00369
3068.04179	0.00360
3066.11342	0.00314
3064.18505	0.00322
3062.25668	0.00333
3060.32830	0.00360
3058.39993	0.00439
3056.47156	0.00516
3054.54318	0.00568
3052.61481	0.00612
3050.68644	0.00617
3048.75806	0.00562
3046.82969	0.00524
3044.90132	0.00572
3042.97294	0.00666
3041.04457	0.00735
3039.11620	0.00757
3037.18782	0.00748
3035.25945	0.00754
3033.33108	0.00792
3031.40270	0.00834
3029.47433	0.00873
3027.54596	0.00916
3025.61758	0.00944
3023.68921	0.00949
3021.76084	0.00961
3019.83246	0.01013
3017.90409	0.01073
3015.97572	0.01108
3014.04734	0.01144
3012.11897	0.01192
3010.19060	0.01223
3008.26222	0.01248
3006.33385	0.01258
3004.40548	0.01224
3002.47711	0.01217
3000.54873	0.01263
2998.62036	0.01288
2996.69199	0.01273
2994.76361	0.01238
2992.83524	0.01196
2990.90687	0.01142
2988.97849	0.01070
2987.05012	0.01017
2985.12175	0.00974
2983.19337	0.00900
2981.26500	0.00833
2979.33663	0.00801
2977.40825	0.00789
2975.47988	0.00773
2973.55151	0.00733
2971.62313	0.00673
2969.69476	0.00603
2967.76639	0.00530
2965.83801	0.00482
2963.90964	0.00474
2961.98127	0.00483
2960.05289	0.00539
2958.12452	0.00610
2956.19615	0.00630
2954.26777	0.00661
2952.33940	0.00749
2950.41103	0.00773
2948.48266	0.00734
2946.55428	0.00732
2944.62591	0.00734
2942.69754	0.00687
2940.76916	0.00631
2938.84079	0.00633
2936.91242	0.00646
2934.98404	0.00613
2933.05567	0.00577
2931.12730	0.00578
2929.19892	0.00615
2927.27055	0.00694
2925.34218	0.00810
2923.41380	0.00904
2921.48543	0.00934
2919.55706	0.00963
2917.62868	0.01080
2915.70031	0.01220
2913.77194	0.01268
2911.84356	0.01258
2909.91519	0.01298
2907.98682	0.01387
2906.05844	0.01455
2904.13007	0.01487
2902.20170	0.01491
2900.27332	0.01484
2898.34495	0.01502
2896.41658	0.01521
2894.48820	0.01492
2892.55983	0.01453
2890.63146	0.01461
2888.70309	0.01484
2886.77471	0.01471
2884.84634	0.01455
2882.91797	0.01484
2880.98959	0.01533
2879.06122	0.01559
2877.13285	0.01570
2875.20447	0.01604
2873.27610	0.01668
2871.34773	0.01741
2869.41935	0.01858
2867.49098	0.02034
2865.56261	0.02193
2863.63423	0.02318
2861.70586	0.02459
2859.77749	0.02618
2857.84911	0.02773
2855.92074	0.02928
2853.99237	0.03076
2852.06399	0.03191
2850.13562	0.03292
2848.20725	0.03430
2846.27887	0.03605
2844.35050	0.03779
2842.42213	0.03950
2840.49375	0.04095
2838.56538	0.04151
2836.63701	0.04150
2834.70863	0.04198
2832.78026	0.04310
2830.85189	0.04428
2828.92352	0.04501
2826.99514	0.04525
2825.06677	0.04544
2823.13840	0.04601
2821.21002	0.04684
2819.28165	0.04756
2817.35328	0.04815
2815.42490	0.04880
2813.49653	0.04954
2811.56816	0.05028
2809.63978	0.05103
2807.71141	0.05186
2805.78304	0.05277
2803.85466	0.05370
2801.92629	0.05462
2799.99792	0.05550
2798.06954	0.05645
2796.14117	0.05762
2794.21280	0.05896
2792.28442	0.06020
2790.35605	0.06131
2788.42768	0.06221
2786.49930	0.06280
2784.57093	0.06356
2782.64256	0.06487
2780.71418	0.06622
2778.78581	0.06707
2776.85744	0.06770
2774.92907	0.06849
2773.00069	0.06929
2771.07232	0.07011
2769.14395	0.07110
2767.21557	0.07213
2765.28720	0.07315
2763.35883	0.07425
2761.43045	0.07539
2759.50208	0.07646
2757.57371	0.07748
2755.64533	0.07857
2753.71696	0.07978
2751.78859	0.08105
2749.86021	0.08228
2747.93184	0.08356
2746.00347	0.08502
2744.07509	0.08657
2742.14672	0.08816
2740.21835	0.08975
2738.28997	0.09111
2736.36160	0.09238
2734.43323	0.09375
2732.50485	0.09516
2730.57648	0.09642
2728.64811	0.09742
2726.71973	0.09849
2724.79136	0.09994
2722.86299	0.10147
2720.93461	0.10279
2719.00624	0.10401
2717.07787	0.10537
2715.14950	0.10691
2713.22112	0.10842
2711.29275	0.10966
2709.36438	0.11061
2707.43600	0.11146
2705.50763	0.11239
2703.57926	0.11325
2701.65088	0.11391
2699.72251	0.11482
2697.79414	0.11635
2695.86576	0.11786
2693.93739	0.11856
2692.00902	0.11873
2690.08064	0.11927
2688.15227	0.12015
2686.22390	0.12097
2684.29552	0.12202
2682.36715	0.12340
2680.43878	0.12473
2678.51040	0.12579
2676.58203	0.12667
2674.65366	0.12763
2672.72528	0.12887
2670.79691	0.13034
2668.86854	0.13182
2666.94016	0.13300
2665.01179	0.13406
2663.08342	0.13531
2661.15505	0.13658
2659.22667	0.13768
2657.29830	0.13883
2655.36993	0.14020
2653.44155	0.14169
2651.51318	0.14297
2649.58481	0.14387
2647.65643	0.14465
2645.72806	0.14570
2643.79969	0.14700
2641.87131	0.14816
2639.94294	0.14912
2638.01457	0.15017
2636.08619	0.15144
2634.15782	0.15289
2632.22945	0.15432
2630.30107	0.15571
2628.37270	0.15718
2626.44433	0.15870
2624.51595	0.16018
2622.58758	0.16159
2620.65921	0.16297
2618.73083	0.16439
2616.80246	0.16591
2614.87409	0.16749
2612.94571	0.16900
2611.01734	0.17053
2609.08897	0.17226
2607.16059	0.17412
2605.23222	0.17592
2603.30385	0.17774
2601.37548	0.17956
2599.44710	0.18110
2597.51873	0.18239
2595.59036	0.18374
2593.66198	0.18520
2591.73361	0.18664
2589.80524	0.18812
2587.87686	0.18968
2585.94849	0.19134
2584.02012	0.19308
2582.09174	0.19466
2580.16337	0.19602
2578.23500	0.19748
2576.30662	0.19920
2574.37825	0.20100
2572.44988	0.20265
2570.52150	0.20439
2568.59313	0.20638
2566.66476	0.20834
2564.73638	0.21035
2562.80801	0.21255
2560.87964	0.21459
2558.95126	0.21621
2557.02289	0.21764
2555.09452	0.21935
2553.16614	0.22142
2551.23777	0.22342
2549.30940	0.22508
2547.38103	0.22669
2545.45265	0.22835
2543.52428	0.22972
2541.59591	0.23082
2539.66753	0.23207
2537.73916	0.23366
2535.81079	0.23522
2533.88241	0.23644
2531.95404	0.23760
2530.02567	0.23894
2528.09729	0.24011
2526.16892	0.24109
2524.24055	0.24233
2522.31217	0.24379
2520.38380	0.24515
2518.45543	0.24635
2516.52705	0.24755
2514.59868	0.24897
2512.67031	0.25053
2510.74193	0.25193
2508.81356	0.25307
2506.88519	0.25422
2504.95681	0.25566
2503.02844	0.25717
2501.10007	0.25844
2499.17169	0.25961
2497.24332	0.26091
2495.31495	0.26228
2493.38657	0.26360
2491.45820	0.26503
2489.52983	0.26663
2487.60146	0.26803
2485.67308	0.26921
2483.74471	0.27060
2481.81634	0.27228
2479.88796	0.27398
2477.95959	0.27547
2476.03122	0.27662
2474.10284	0.27778
2472.17447	0.27933
2470.24610	0.28117
2468.31772	0.28302
2466.38935	0.28472
2464.46098	0.28629
2462.53260	0.28800
2460.60423	0.29000
2458.67586	0.29205
2456.74748	0.29402
2454.81911	0.29605
2452.89074	0.29805
2450.96236	0.29998
2449.03399	0.30186
2447.10562	0.30355
2445.17724	0.30497
2443.24887	0.30639
2441.32050	0.30806
2439.39212	0.30979
2437.46375	0.31148
2435.53538	0.31320
2433.60700	0.31476
2431.67863	0.31615
2429.75026	0.31778
2427.82189	0.31978
2425.89351	0.32170
2423.96514	0.32319
2422.03677	0.32457
2420.10839	0.32595
2418.18002	0.32719
2416.25165	0.32848
2414.32327	0.32989
2412.39490	0.33125
2410.46653	0.33264
2408.53815	0.33415
2406.60978	0.33581
2404.68141	0.33753
2402.75303	0.33917
2400.82466	0.34087
2398.89629	0.34264
2396.96791	0.34428
2395.03954	0.34589
2393.11117	0.34763
2391.18279	0.34934
2389.25442	0.35092
2387.32605	0.35258
2385.39767	0.35440
2383.46930	0.35624
2381.54093	0.35830
2379.61255	0.36100
2377.68418	0.36432
2375.75581	0.36789
2373.82744	0.37153
2371.89906	0.37556
2369.97069	0.38015
2368.04232	0.38488
2366.11394	0.38937
2364.18557	0.39302
2362.25720	0.39656
2360.32882	0.40081
2358.40045	0.40212
2356.47208	0.39927
2354.54370	0.39575
2352.61533	0.39271
2350.68696	0.39059
2348.75858	0.39040
2346.83021	0.39245
2344.90184	0.39616
2342.97346	0.39956
2341.04509	0.40087
2339.11672	0.40075
2337.18834	0.40105
2335.25997	0.40192
2333.33160	0.40305
2331.40322	0.40461
2329.47485	0.40520
2327.54648	0.40387
2325.61810	0.40226
2323.68973	0.40172
2321.76136	0.40147
2319.83298	0.40098
2317.90461	0.40069
2315.97624	0.40056
2314.04787	0.40074
2312.11949	0.40149
2310.19112	0.40239
2308.26275	0.40305
2306.33437	0.40345
2304.40600	0.40368
2302.47763	0.40401
2300.54925	0.40467
2298.62088	0.40558
2296.69251	0.40652
2294.76413	0.40732
2292.83576	0.40786
2290.90739	0.40822
2288.97901	0.40855
2287.05064	0.40899
2285.12227	0.40949
2283.19389	0.41001
2281.26552	0.41072
2279.33715	0.41165
2277.40877	0.41240
2275.48040	0.41287
2273.55203	0.41341
2271.62365	0.41395
2269.69528	0.41421
2267.76691	0.41433
2265.83853	0.41463
2263.91016	0.41516
2261.98179	0.41565
2260.05342	0.41590
2258.12504	0.41614
2256.19667	0.41669
2254.26830	0.41742
2252.33992	0.41811
2250.41155	0.41873
2248.48318	0.41933
2246.55480	0.41999
2244.62643	0.42082
2242.69806	0.42168
2240.76968	0.42228
2238.84131	0.42262
2236.91294	0.42293
2234.98456	0.42338
2233.05619	0.42392
2231.12782	0.42431
2229.19944	0.42463
2227.27107	0.42506
2225.34270	0.42539
2223.41432	0.42549
2221.48595	0.42554
2219.55758	0.42568
2217.62920	0.42582
2215.70083	0.42602
2213.77246	0.42638
2211.84408	0.42660
2209.91571	0.42650
2207.98734	0.42642
2206.05896	0.42649
2204.13059	0.42652
2202.20222	0.42640
2200.27385	0.42633
2198.34547	0.42634
2196.41710	0.42632
2194.48873	0.42637
2192.56035	0.42662
2190.63198	0.42684
2188.70361	0.42695
2186.77523	0.42717
2184.84686	0.42754
2182.91849	0.42789
2180.99011	0.42799
2179.06174	0.42792
2177.13337	0.42794
2175.20499	0.42798
2173.27662	0.42783
2171.34825	0.42743
2169.41987	0.42711
2167.49150	0.42714
2165.56313	0.42723
2163.63475	0.42726
2161.70638	0.42739
2159.77801	0.42748
2157.84963	0.42729
2155.92126	0.42694
2153.99289	0.42674
2152.06451	0.42686
2150.13614	0.42727
2148.20777	0.42775
2146.27940	0.42806
2144.35102	0.42827
2142.42265	0.42856
2140.49428	0.42881
2138.56590	0.42896
2136.63753	0.42922
2134.70916	0.42978
2132.78078	0.43055
2130.85241	0.43143
2128.92404	0.43230
2126.99566	0.43290
2125.06729	0.43326
2123.13892	0.43373
2121.21054	0.43425
2119.28217	0.43462
2117.35380	0.43511
2115.42542	0.43585
2113.49705	0.43655
2111.56868	0.43707
2109.64030	0.43746
2107.71193	0.43769
2105.78356	0.43792
2103.85518	0.43837
2101.92681	0.43900
2099.99844	0.43957
2098.07006	0.43995
2096.14169	0.44029
2094.21332	0.44085
2092.28494	0.44164
2090.35657	0.44221
2088.42820	0.44230
2086.49983	0.44238
2084.57145	0.44266
2082.64308	0.44295
2080.71471	0.44311
2078.78633	0.44308
2076.85796	0.44321
2074.92959	0.44368
2073.00121	0.44399
2071.07284	0.44394
2069.14447	0.44380
2067.21609	0.44363
2065.28772	0.44339
2063.35935	0.44334
2061.43097	0.44372
2059.50260	0.44432
2057.57423	0.44483
2055.64585	0.44530
2053.71748	0.44588
2051.78911	0.44655
2049.86073	0.44722
2047.93236	0.44794
2046.00399	0.44884
2044.07561	0.44975
2042.14724	0.45065
2040.21887	0.45173
2038.29049	0.45281
2036.36212	0.45360
2034.43375	0.45405
2032.50538	0.45428
2030.57700	0.45465
2028.64863	0.45544
2026.72026	0.45634
2024.79188	0.45683
2022.86351	0.45693
2020.93514	0.45713
2019.00676	0.45757
2017.07839	0.45789
2015.15002	0.45803
2013.22164	0.45823
2011.29327	0.45843
2009.36490	0.45864
2007.43652	0.45911
2005.50815	0.45967
2003.57978	0.46016
2001.65140	0.46081
1999.72303	0.46161
1997.79466	0.46215
1995.86628	0.46250
1993.93791	0.46326
1992.00954	0.46430
1990.08116	0.46501
1988.15279	0.46544
1986.22442	0.46575
1984.29604	0.46589
1982.36767	0.46615
1980.43930	0.46666
1978.51092	0.46719
1976.58255	0.46783
1974.65418	0.46857
1972.72581	0.46925
1970.79743	0.46989
1968.86906	0.47056
1966.94069	0.47107
1965.01231	0.47105
1963.08394	0.47078
1961.15557	0.47080
1959.22719	0.47113
1957.29882	0.47153
1955.37045	0.47201
1953.44207	0.47261
1951.51370	0.47316
1949.58533	0.47369
1947.65695	0.47455
1945.72858	0.47574
1943.80021	0.47691
1941.87183	0.47766
1939.94346	0.47791
1938.01509	0.47805
1936.08671	0.47836
1934.15834	0.47882
1932.22997	0.47933
1930.30159	0.47995
1928.37322	0.48064
1926.44485	0.48139
1924.51647	0.48231
1922.58810	0.48305
1920.65973	0.48334
1918.73135	0.48355
1916.80298	0.48364
1914.87461	0.48356
1912.94624	0.48368
1911.01786	0.48402
1909.08949	0.48418
1907.16112	0.48407
1905.23274	0.48412
1903.30437	0.48449
1901.37600	0.48472
1899.44762	0.48459
1897.51925	0.48444
1895.59088	0.48453
1893.66250	0.48482
1891.73413	0.48546
1889.80576	0.48615
1887.87738	0.48603
1885.94901	0.48547
1884.02064	0.48518
1882.09226	0.48510
1880.16389	0.48523
1878.23552	0.48542
1876.30714	0.48539
1874.37877	0.48534
1872.45040	0.48580
1870.52202	0.48693
1868.59365	0.48752
1866.66528	0.48620
1864.73690	0.48410
1862.80853	0.48285
1860.88016	0.48255
1858.95179	0.48234
1857.02341	0.48182
1855.09504	0.48121
1853.16667	0.48078
1851.23829	0.48057
1849.30992	0.48068
1847.38155	0.48119
1845.45317	0.48176
1843.52480	0.48130
1841.59643	0.47981
1839.66805	0.47865
1837.73968	0.47792
1835.81131	0.47726
1833.88293	0.47705
1831.95456	0.47745
1830.02619	0.47726
1828.09781	0.47575
1826.16944	0.47412
1824.24107	0.47218
1822.31269	0.46968
1820.38432	0.46741
1818.45595	0.46524
1816.52757	0.46272
1814.59920	0.46024
1812.67083	0.45802
1810.74245	0.45518
1808.81408	0.45127
1806.88571	0.44703
1804.95733	0.44309
1803.02896	0.43930
1801.10059	0.43459
1799.17222	0.42820
1797.24384	0.42106
1795.31547	0.41458
1793.38710	0.40794
1791.45872	0.39899
1789.53035	0.38933
1787.60198	0.38099
1785.67360	0.37317
1783.74523	0.36556
1781.81686	0.35858
1779.88848	0.35163
1777.96011	0.34487
1776.03174	0.33934
1774.10336	0.33446
1772.17499	0.32797
1770.24662	0.31987
1768.31824	0.31184
1766.38987	0.30366
1764.46150	0.29555
1762.53312	0.28600
1760.60475	0.27402
1758.67638	0.26131
1756.74800	0.24650
1754.81963	0.23034
1752.89126	0.21418
1750.96288	0.19457
1749.03451	0.17084
1747.10614	0.14768
1745.17777	0.12629
1743.24939	0.10585
1741.32102	0.08617
1739.39265	0.06771
1737.46427	0.05395
1735.53590	0.04358
1733.60753	0.03202
1731.67915	0.02273
1729.75078	0.01748
1727.82241	0.01387
1725.89403	0.01108
1723.96566	0.00874
1722.03729	0.00671
1720.10891	0.00526
1718.18054	0.00410
1716.25217	0.00256
1714.32379	0.00142
1712.39542	0.00103
1710.46705	0.00104
1708.53867	0.00094
1706.61030	0.00074
1704.68193	0.00101
1702.75355	0.00107
1700.82518	0.00135
1698.89681	0.00144
1696.96843	0.00135
1695.04006	0.00078
1693.11169	0.00071
1691.18331	0.00070
1689.25494	0.00120
1687.32657	0.00117
1685.39820	0.00118
1683.46982	0.00146
1681.54145	0.00120
1679.61308	0.00076
1677.68470	0.00055
1675.75633	0.00086
1673.82796	0.00134
1671.89958	0.00136
1669.97121	0.00098
1668.04284	0.00085
1666.11446	0.00051
1664.18609	0.00046
1662.25772	0.00049
1660.32934	0.00045
1658.40097	0.00063
1656.47260	0.00089
1654.54422	0.00126
1652.61585	0.00148
1650.68748	0.00106
1648.75910	0.00072
1646.83073	0.00066
1644.90236	0.00091
1642.97398	0.00104
1641.04561	0.00102
1639.11724	0.00119
1637.18886	0.00114
1635.26049	0.00084
1633.33212	0.00079
1631.40375	0.00110
1629.47537	0.00108
1627.54700	0.00082
1625.61863	0.00077
1623.69025	0.00096
1621.76188	0.00103
1619.83351	0.00096
1617.90513	0.00119
1615.97676	0.00110
1614.04839	0.00061
1612.12001	0.00057
1610.19164	0.00062
1608.26327	0.00056
1606.33489	0.00042
1604.40652	0.00041
1602.47815	0.00067
1600.54977	0.00072
1598.62140	0.00061
1596.69303	0.00060
1594.76465	0.00044
1592.83628	0.00046
1590.90791	0.00048
1588.97953	0.00058
1587.05116	0.00064
1585.12279	0.00069
1583.19441	0.00051
1581.26604	0.00028
1579.33767	0.00073
1577.40929	0.00097
1575.48092	0.00064
1573.55255	0.00042
1571.62418	0.00044
1569.69580	0.00087
1567.76743	0.00093
1565.83906	0.00062
1563.91068	0.00058
1561.98231	0.00096
1560.05394	0.00148
1558.12556	0.00151
1556.19719	0.00106
1554.26882	0.00070
1552.34044	0.00071
1550.41207	0.00075
1548.48370	0.00054
1546.55532	0.00075
1544.62695	0.00086
1542.69858	0.00132
1540.77020	0.00181
1538.84183	0.00132
1536.91346	0.00079
1534.98508	0.00045
1533.05671	0.00007
1531.12834	0.00051
1529.19996	0.00093
1527.27159	0.00114
1525.34322	0.00122
1523.41484	0.00112
1521.48647	0.00127
1519.55810	0.00137
1517.62972	0.00130
1515.70135	0.00128
1513.77298	0.00098
1511.84461	0.00137
1509.91623	0.00158
1507.98786	0.00128
1506.05949	0.00108
1504.13111	0.00128
1502.20274	0.00156
1500.27437	0.00198
1498.34599	0.00258
1496.41762	0.00360
1494.48925	0.00509
1492.56087	0.00659
1490.63250	0.00805
1488.70413	0.00946
1486.77575	0.01057
1484.84738	0.01143
1482.91901	0.01222
1480.99063	0.01280
1479.06226	0.01293
1477.13389	0.01280
1475.20551	0.01255
1473.27714	0.01174
1471.34877	0.01025
1469.42039	0.00887
1467.49202	0.00780
1465.56365	0.00686
1463.63527	0.00609
1461.70690	0.00557
1459.77853	0.00510
1457.85016	0.00454
1455.92178	0.00382
1453.99341	0.00322
1452.06504	0.00282
1450.13666	0.00239
1448.20829	0.00210
1446.27992	0.00231
1444.35154	0.00270
1442.42317	0.00273
1440.49480	0.00267
1438.56642	0.00271
1436.63805	0.00230
1434.70968	0.00168
1432.78130	0.00181
1430.85293	0.00249
1428.92456	0.00327
1426.99618	0.00371
1425.06781	0.00381
1423.13944	0.00358
1421.21106	0.00296
1419.28269	0.00226
1417.35432	0.00213
1415.42594	0.00244
1413.49757	0.00265
1411.56920	0.00289
1409.64082	0.00320
1407.71245	0.00341
1405.78408	0.00343
1403.85570	0.00336
1401.92733	0.00323
1399.99896	0.00325
1398.07059	0.00342
1396.14221	0.00329
1394.21384	0.00275
1392.28547	0.00235
1390.35709	0.00221
1388.42872	0.00216
1386.50035	0.00205
1384.57197	0.00180
1382.64360	0.00167
1380.71523	0.00163
1378.78685	0.00170
1376.85848	0.00158
1374.93011	0.00128
1373.00173	0.00115
1371.07336	0.00163
1369.14499	0.00237
1367.21661	0.00316
1365.28824	0.00424
1363.35987	0.00555
1361.43149	0.00668
1359.50312	0.00753
1357.57475	0.00816
1355.64637	0.00852
1353.71800	0.00880
1351.78963	0.00923
1349.86125	0.00964
1347.93288	0.00983
1346.00451	0.00989
1344.07614	0.00984
1342.14776	0.00961
1340.21939	0.00913
1338.29102	0.00842
1336.36264	0.00770
1334.43427	0.00708
1332.50590	0.00658
1330.57752	0.00637
1328.64915	0.00631
1326.72078	0.00596
1324.79240	0.00551
1322.86403	0.00537
1320.93566	0.00526
1319.00728	0.00506
1317.07891	0.00522
1315.15054	0.00554
1313.22216	0.00565
1311.29379	0.00552
1309.36542	0.00531
1307.43704	0.00525
1305.50867	0.00536
1303.58030	0.00554
1301.65192	0.00570
1299.72355	0.00586
1297.79518	0.00615
1295.86680	0.00651
1293.93843	0.00663
1292.01006	0.00668
1290.08168	0.00698
1288.15331	0.00705
1286.22494	0.00675
1284.29657	0.00646
1282.36819	0.00650
1280.43982	0.00682
1278.51145	0.00700
1276.58307	0.00690
1274.65470	0.00662
1272.72633	0.00659
1270.79795	0.00718
1268.86958	0.00728
1266.94121	0.00600
1265.01283	0.00477
1263.08446	0.00495
1261.15609	0.00594
1259.22771	0.00643
1257.29934	0.00610
1255.37097	0.00561
1253.44259	0.00598
1251.51422	0.00704
1249.58585	0.00770
1247.65747	0.00772
1245.72910	0.00760
1243.80073	0.00766
1241.87235	0.00791
1239.94398	0.00843
1238.01561	0.00906
1236.08723	0.00953
1234.15886	0.00992
1232.23049	0.01070
1230.30212	0.01168
1228.37374	0.01230
1226.44537	0.01265
1224.51700	0.01321
1222.58862	0.01444
1220.66025	0.01615
1218.73188	0.01728
1216.80350	0.01777
1214.87513	0.01835
1212.94676	0.01870
1211.01838	0.01767
1209.09001	0.01545
1207.16164	0.01420
1205.23326	0.01549
1203.30489	0.01830
1201.37652	0.02084
1199.44814	0.02325
1197.51977	0.02614
1195.59140	0.02894
1193.66302	0.03141
1191.73465	0.03357
1189.80628	0.03448
1187.87790	0.03413
1185.94953	0.03366
1184.02116	0.03316
1182.09278	0.03232
1180.16441	0.03095
1178.23604	0.02851
1176.30766	0.02527
1174.37929	0.02223
1172.45092	0.01933
1170.52255	0.01588
1168.59417	0.01185
1166.66580	0.00794
1164.73743	0.00473
1162.80905	0.00256
1160.88068	0.00177
1158.95231	0.00247
1157.02393	0.00327
1155.09556	0.00352
1153.16719	0.00461
1151.23881	0.00764
1149.31044	0.01238
1147.38207	0.01831
1145.45369	0.02367
1143.52532	0.02689
1141.59695	0.02809
1139.66857	0.02799
1137.74020	0.02692
1135.81183	0.02536
1133.88345	0.02372
1131.95508	0.02075
1130.02671	0.01590
1128.09833	0.01098
1126.16996	0.00713
1124.24159	0.00449
1122.31321	0.00328
1120.38484	0.00303
1118.45647	0.00300
1116.52809	0.00347
1114.59972	0.00501
1112.67135	0.00666
1110.74298	0.00795
1108.81460	0.00935
1106.88623	0.01053
1104.95786	0.01114
1103.02948	0.01151
1101.10111	0.01210
1099.17274	0.01236
1097.24436	0.01134
1095.31599	0.00937
1093.38762	0.00758
1091.45924	0.00625
1089.53087	0.00480
1087.60250	0.00285
1085.67412	0.00123
1083.74575	0.00193
1081.81738	0.00171
1079.88900	0.00154
1077.96063	0.00114
1076.03226	0.00117
1074.10388	0.00210
1072.17551	0.00241
1070.24714	0.00210
1068.31876	0.00174
1066.39039	0.00293
1064.46202	0.00426
1062.53364	0.00489
1060.60527	0.00525
1058.67690	0.00624
1056.74853	0.00796
1054.82015	0.00963
1052.89178	0.01059
1050.96341	0.01119
1049.03503	0.01156
1047.10666	0.01075
1045.17829	0.00873
1043.24991	0.00690
1041.32154	0.00604
1039.39317	0.00532
1037.46479	0.00448
1035.53642	0.00379
1033.60805	0.00333
1031.67967	0.00297
1029.75130	0.00252
1027.82293	0.00247
1025.89455	0.00284
1023.96618	0.00326
1022.03781	0.00364
1020.10943	0.00401
1018.18106	0.00461
1016.25269	0.00601
1014.32431	0.00835
1012.39594	0.01053
1010.46757	0.01267
1008.53919	0.01658
1006.61082	0.02225
1004.68245	0.02853
1002.75407	0.03512
1000.82570	0.04190
998.89733	0.04835
996.96896	0.05421
995.04058	0.05964
993.11221	0.06499
991.18384	0.07037
989.25546	0.07540
987.32709	0.07936
985.39872	0.08162
983.47034	0.08187
981.54197	0.08011
979.61360	0.07709
977.68522	0.07465
975.75685	0.07498
973.82848	0.07938
971.90010	0.08748
969.97173	0.09752
968.04336	0.10763
966.11498	0.11601
964.18661	0.12029
962.25824	0.11783
960.32986	0.10692
958.40149	0.09017
956.47312	0.07573
954.54474	0.07060
952.61637	0.07459
950.68800	0.08393
948.75962	0.09621
946.83125	0.10955
944.90288	0.12181
942.97451	0.13232
941.04613	0.14156
939.11776	0.14928
937.18939	0.15527
935.26101	0.15980
933.33264	0.16245
931.40427	0.16277
929.47589	0.16150
927.54752	0.15967
925.61915	0.15770
923.69077	0.15573
921.76240	0.15401
919.83403	0.15293
917.90565	0.15286
915.97728	0.15378
914.04891	0.15426
912.12053	0.15221
910.19216	0.14744
908.26379	0.14093
906.33541	0.13319
904.40704	0.12517
902.47867	0.11799
900.55029	0.11190
898.62192	0.10718
896.69355	0.10464
894.76517	0.10463
892.83680	0.10629
890.90843	0.10854
888.98005	0.11094
887.05168	0.11315
885.12331	0.11497
883.19494	0.11657
881.26656	0.11787
879.33819	0.11830
877.40982	0.11794
875.48144	0.11804
873.55307	0.11902
871.62470	0.11968
869.69632	0.11938
867.76795	0.11879
865.83958	0.11852
863.91120	0.11858
861.98283	0.11848
860.05446	0.11740
858.12608	0.11503
856.19771	0.11219
854.26934	0.10992
852.34096	0.10831
850.41259	0.10694
848.48422	0.10549
846.55584	0.10387
844.62747	0.10280
842.69910	0.10211
840.77072	0.09973
838.84235	0.09561
836.91398	0.09230
834.98560	0.09051
833.05723	0.08867
831.12886	0.08615
829.20049	0.08368
827.27211	0.08148
825.34374	0.07940
823.41537	0.07767
821.48699	0.07640
819.55862	0.07533
817.63025	0.07417
815.70187	0.07307
813.77350	0.07234
811.84513	0.07162
809.91675	0.06965
807.98838	0.06692
806.06001	0.06518
804.13163	0.06366
802.20326	0.06136
800.27489	0.05909
798.34651	0.05638
796.41814	0.05255
794.48977	0.04906
792.56139	0.04706
790.63302	0.04574
788.70465	0.04446
786.77627	0.04365
784.84790	0.04313
782.91953	0.04233
780.99115	0.04143
779.06278	0.04064
777.13441	0.03976
775.20603	0.03843
773.27766	0.03677
771.34929	0.03579
769.42092	0.03595
767.49254	0.03640
765.56417	0.03669
763.63580	0.03685
761.70742	0.03568
759.77905	0.03244
757.85068	0.02848
755.92230	0.02496
753.99393	0.02221
752.06556	0.02081
750.13718	0.02081
748.20881	0.02173
746.28044	0.02296
744.35206	0.02373
742.42369	0.02405
740.49532	0.02458
738.56694	0.02531
736.63857	0.02563
734.71020	0.02522
732.78182	0.02468
730.85345	0.02458
728.92508	0.02456
726.99670	0.02436
725.06833	0.02448
723.13996	0.02458
721.21158	0.02426
719.28321	0.02305
717.35484	0.02066
715.42647	0.01833
713.49809	0.01721
711.56972	0.01676
709.64135	0.01640
707.71297	0.01584
705.78460	0.01455
703.85623	0.01361
701.92785	0.01381
699.99948	0.01454
698.07111	0.01538
696.14273	0.01643
694.21436	0.01801
692.28599	0.01969
690.35761	0.02029
688.42924	0.01990
686.50087	0.01995
684.57249	0.02091
682.64412	0.02164
680.71575	0.02136
678.78737	0.02201
676.85900	0.02333
674.93063	0.02400
673.00225	0.02491
671.07388	0.02701
669.14551	0.03058
667.21713	0.03196
665.28876	0.02882
663.36039	0.02707
661.43201	0.02720
659.50364	0.02631
657.57527	0.02457
655.64690	0.02350
653.71852	0.02395
651.79015	0.02515
649.86178	0.02527
647.93340	0.02508
646.00503	0.02530
644.07666	0.02503
642.14828	0.02339
640.21991	0.02176
638.29154	0.02100
636.36316	0.01988
634.43479	0.01715
632.50642	0.01487
630.57804	0.01454
628.64967	0.01512
626.72130	0.01707
624.79292	0.01948
622.86455	0.02138
620.93618	0.02284
619.00780	0.02201
617.07943	0.02022
615.15106	0.01837
613.22268	0.01651
611.29431	0.01649
609.36594	0.01816
607.43756	0.01877
605.50919	0.01990
603.58082	0.02023
601.65244	0.01719
599.72407	0.01842
