3997.51769	0.59726
3995.58931	0.59667
3993.66094	0.59630
3991.73257	0.59645
3989.80419	0.59701
3987.87582	0.59787
3985.94745	0.59850
3984.01907	0.59853
3982.09070	0.59843
3980.16233	0.59869
3978.23396	0.59885
3976.30558	0.59830
3974.37721	0.59762
3972.44884	0.59779
3970.52046	0.59894
3968.59209	0.60072
3966.66372	0.60236
3964.73534	0.60263
3962.80697	0.60166
3960.87860	0.60140
3958.95022	0.60228
3957.02185	0.60328
3955.09348	0.60425
3953.16510	0.60420
3951.23673	0.60178
3949.30836	0.59909
3947.37998	0.59980
3945.45161	0.60141
3943.52324	0.60068
3941.59486	0.60215
3939.66649	0.60736
3937.73812	0.61101
3935.80974	0.60998
3933.88137	0.60470
3931.95300	0.60016
3930.02462	0.60166
3928.09625	0.60533
3926.16788	0.60503
3924.23950	0.60373
3922.31113	0.60551
3920.38276	0.60622
3918.45439	0.60449
3916.52601	0.60654
3914.59764	0.61407
3912.66927	0.62089
3910.74089	0.62341
3908.81252	0.62080
3906.88415	0.61081
3904.95577	0.59618
3903.02740	0.58698
3901.09903	0.58798
3899.17065	0.59706
3897.24228	0.61033
3895.31391	0.61757
3893.38553	0.61390
3891.45716	0.60987
3889.52879	0.61386
3887.60041	0.61453
3885.67204	0.60915
3883.74367	0.60702
3881.81529	0.60617
3879.88692	0.60913
3877.95855	0.61852
3876.03017	0.61995
3874.10180	0.61176
3872.17343	0.60374
3870.24505	0.60047
3868.31668	0.60514
3866.38831	0.60908
3864.45994	0.60755
3862.53156	0.61208
3860.60319	0.62247
3858.67482	0.62520
3856.74644	0.61549
3854.81807	0.59686
3852.88970	0.58805
3850.96132	0.60605
3849.03295	0.62651
3847.10458	0.63490
3845.17620	0.63068
3843.24783	0.61940
3841.31946	0.60716
3839.39108	0.59801
3837.46271	0.59900
3835.53434	0.60923
3833.60596	0.61827
3831.67759	0.62488
3829.74922	0.62996
3827.82084	0.63081
3825.89247	0.62884
3823.96410	0.62255
3822.03572	0.60896
3820.10735	0.60355
3818.17898	0.61136
3816.25060	0.61955
3814.32223	0.63205
3812.39386	0.64456
3810.46548	0.64633
3808.53711	0.63710
3806.60874	0.62738
3804.68037	0.62252
3802.75199	0.61444
3800.82362	0.61132
3798.89525	0.61975
3796.96687	0.62796
3795.03850	0.63774
3793.11013	0.64874
3791.18175	0.65400
3789.25338	0.65381
3787.32501	0.65004
3785.39663	0.64535
3783.46826	0.64388
3781.53989	0.64151
3779.61151	0.63748
3777.68314	0.64140
3775.75477	0.64974
3773.82639	0.65067
3771.89802	0.64203
3769.96965	0.63231
3768.04127	0.63022
3766.11290	0.63277
3764.18453	0.63659
3762.25615	0.63666
3760.32778	0.62857
3758.39941	0.62164
3756.47103	0.62151
3754.54266	0.61657
3752.61429	0.60012
3750.68591	0.58558
3748.75754	0.58889
3746.82917	0.59374
3744.90080	0.59353
3742.97242	0.60150
3741.04405	0.61108
3739.11568	0.60834
3737.18730	0.59264
3735.25893	0.57793
3733.33056	0.58380
3731.40218	0.60430
3729.47381	0.61849
3727.54544	0.61859
3725.61706	0.61192
3723.68869	0.60830
3721.76032	0.60993
3719.83194	0.61517
3717.90357	0.62031
3715.97520	0.61926
3714.04682	0.60717
3712.11845	0.58891
3710.19008	0.58450
3708.26170	0.59795
3706.33333	0.60973
3704.40496	0.60922
3702.47658	0.60115
3700.54821	0.59825
3698.61984	0.60103
3696.69146	0.60006
3694.76309	0.59220
3692.83472	0.57644
3690.90635	0.55516
3688.97797	0.54346
3687.04960	0.54993
3685.12123	0.55781
3683.19285	0.55583
3681.26448	0.54367
3679.33611	0.52402
3677.40773	0.49889
3675.47936	0.47617
3673.55099	0.46940
3671.62261	0.46520
3669.69424	0.45562
3667.76587	0.45357
3665.83749	0.45469
3663.90912	0.44829
3661.98075	0.43558
3660.05237	0.42000
3658.12400	0.40187
3656.19563	0.38299
3654.26725	0.36710
3652.33888	0.34849
3650.41051	0.32155
3648.48213	0.29930
3646.55376	0.29487
3644.62539	0.29549
3642.69701	0.29051
3640.76864	0.28019
3638.84027	0.26814
3636.91189	0.25564
3634.98352	0.24251
3633.05515	0.22902
3631.12678	0.21451
3629.19840	0.19831
3627.27003	0.18772
3625.34166	0.18378
3623.41328	0.17781
3621.48491	0.16735
3619.55654	0.15480
3617.62816	0.14498
3615.69979	0.13814
3613.77142	0.13109
3611.84304	0.12406
3609.91467	0.11753
3607.98630	0.11112
3606.05792	0.10587
3604.12955	0.10142
3602.20118	0.09598
3600.27280	0.08987
3598.34443	0.08439
3596.41606	0.07935
3594.48768	0.07460
3592.55931	0.07045
3590.63094	0.06625
3588.70256	0.06094
3586.77419	0.05591
3584.84582	0.05289
3582.91744	0.05055
3580.98907	0.04772
3579.06070	0.04450
3577.13233	0.04157
3575.20395	0.03897
3573.27558	0.03632
3571.34721	0.03344
3569.41883	0.03034
3567.49046	0.02728
3565.56209	0.02505
3563.63371	0.02384
3561.70534	0.02275
3559.77697	0.02127
3557.84859	0.01949
3555.92022	0.01785
3553.99185	0.01655
3552.06347	0.01534
3550.13510	0.01421
3548.20673	0.01307
3546.27835	0.01195
3544.34998	0.01103
3542.42161	0.01027
3540.49323	0.00949
3538.56486	0.00859
3536.63649	0.00770
3534.70811	0.00690
3532.77974	0.00615
3530.85137	0.00528
3528.92299	0.00437
3526.99462	0.00375
3525.06625	0.00334
3523.13787	0.00293
3521.20950	0.00241
3519.28113	0.00199
3517.35276	0.00177
3515.42438	0.00160
3513.49601	0.00138
3511.56764	0.00113
3509.63926	0.00094
3507.71089	0.00070
3505.78252	0.00048
3503.85414	0.00032
3501.92577	0.00039
3499.99740	0.00048
3498.06902	0.00037
3496.14065	0.00039
3494.21228	0.00066
3492.28390	0.00079
3490.35553	0.00101
3488.42716	0.00120
3486.49878	0.00106
3484.57041	0.00078
3482.64204	0.00068
3480.71366	0.00070
3478.78529	0.00065
3476.85692	0.00081
3474.92854	0.00103
3473.00017	0.00113
3471.07180	0.00113
3469.14342	0.00091
3467.21505	0.00068
3465.28668	0.00064
3463.35831	0.00077
3461.42993	0.00078
3459.50156	0.00058
3457.57319	0.00035
3455.64481	0.00038
3453.71644	0.00061
3451.78807	0.00080
3449.85969	0.00074
3447.93132	0.00080
3446.00295	0.00082
3444.07457	0.00063
3442.14620	0.00068
3440.21783	0.00080
3438.28945	0.00068
3436.36108	0.00053
3434.43271	0.00053
3432.50433	0.00055
3430.57596	0.00045
3428.64759	0.00058
3426.71921	0.00053
3424.79084	0.00036
3422.86247	0.00052
3420.93409	0.00096
3419.00572	0.00108
3417.07735	0.00085
3415.14897	0.00068
3413.22060	0.00071
3411.29223	0.00086
3409.36385	0.00086
3407.43548	0.00065
3405.50711	0.00041
3403.57874	0.00041
3401.65036	0.00054
3399.72199	0.00062
3397.79362	0.00063
3395.86524	0.00056
3393.93687	0.00050
3392.00850	0.00051
3390.08012	0.00078
3388.15175	0.00095
3386.22338	0.00079
3384.29500	0.00066
3382.36663	0.00063
3380.43826	0.00069
3378.50988	0.00083
3376.58151	0.00082
3374.65314	0.00070
3372.72476	0.00075
3370.79639	0.00070
3368.86802	0.00047
3366.93964	0.00043
3365.01127	0.00056
3363.08290	0.00066
3361.15452	0.00086
3359.22615	0.00094
3357.29778	0.00070
3355.36940	0.00036
3353.44103	0.00037
3351.51266	0.00037
3349.58428	0.00052
3347.65591	0.00075
3345.72754	0.00079
3343.79917	0.00077
3341.87079	0.00073
3339.94242	0.00077
3338.01405	0.00088
3336.08567	0.00102
3334.15730	0.00100
3332.22893	0.00084
3330.30055	0.00069
3328.37218	0.00062
3326.44381	0.00061
3324.51543	0.00079
3322.58706	0.00098
3320.65869	0.00095
3318.73031	0.00088
3316.80194	0.00071
3314.87357	0.00065
3312.94519	0.00068
3311.01682	0.00058
3309.08845	0.00050
3307.16007	0.00061
3305.23170	0.00064
3303.30333	0.00057
3301.37495	0.00054
3299.44658	0.00058
3297.51821	0.00072
3295.58983	0.00077
3293.66146	0.00064
3291.73309	0.00053
3289.80472	0.00067
3287.87634	0.00074
3285.94797	0.00051
3284.01960	0.00031
3282.09122	0.00058
3280.16285	0.00082
3278.23448	0.00075
3276.30610	0.00061
3274.37773	0.00050
3272.44936	0.00038
3270.52098	0.00050
3268.59261	0.00056
3266.66424	0.00060
3264.73586	0.00071
3262.80749	0.00074
3260.87912	0.00071
3258.95074	0.00070
3257.02237	0.00069
3255.09400	0.00073
3253.16562	0.00074
3251.23725	0.00079
3249.30888	0.00073
3247.38050	0.00071
3245.45213	0.00080
3243.52376	0.00082
3241.59538	0.00075
3239.66701	0.00071
3237.73864	0.00067
3235.81026	0.00057
3233.88189	0.00057
3231.95352	0.00057
3230.02515	0.00071
3228.09677	0.00082
3226.16840	0.00085
3224.24003	0.00072
3222.31165	0.00042
3220.38328	0.00028
3218.45491	0.00054
3216.52653	0.00057
3214.59816	0.00060
3212.66979	0.00069
3210.74141	0.00072
3208.81304	0.00079
3206.88467	0.00077
3204.95629	0.00066
3203.02792	0.00050
3201.09955	0.00031
3199.17117	0.00038
3197.24280	0.00055
3195.31443	0.00055
3193.38605	0.00057
3191.45768	0.00050
3189.52931	0.00044
3187.60093	0.00044
3185.67256	0.00051
3183.74419	0.00057
3181.81581	0.00051
3179.88744	0.00053
3177.95907	0.00069
3176.03070	0.00093
3174.10232	0.00117
3172.17395	0.00110
3170.24558	0.00077
3168.31720	0.00056
3166.38883	0.00065
3164.46046	0.00081
3162.53208	0.00082
3160.60371	0.00065
3158.67534	0.00062
3156.74696	0.00076
3154.81859	0.00083
3152.89022	0.00081
3150.96184	0.00083
3149.03347	0.00088
3147.10510	0.00089
3145.17672	0.00088
3143.24835	0.00096
3141.31998	0.00100
3139.39160	0.00093
3137.46323	0.00088
3135.53486	0.00094
3133.60648	0.00103
3131.67811	0.00108
3129.74974	0.00096
3127.82136	0.00084
3125.89299	0.00090
3123.96462	0.00105
3122.03624	0.00126
3120.10787	0.00117
3118.17950	0.00099
3116.25113	0.00103
3114.32275	0.00092
3112.39438	0.00063
3110.46601	0.00058
3108.53763	0.00072
3106.60926	0.00089
3104.68089	0.00097
3102.75251	0.00080
3100.82414	0.00056
3098.89577	0.00056
3096.96739	0.00079
3095.03902	0.00082
3093.11065	0.00072
3091.18227	0.00064
3089.25390	0.00063
3087.32553	0.00071
3085.39715	0.00071
3083.46878	0.00068
3081.54041	0.00085
3079.61203	0.00106
3077.68366	0.00122
3075.75529	0.00134
3073.82691	0.00137
3071.89854	0.00129
3069.97017	0.00120
3068.04179	0.00125
3066.11342	0.00134
3064.18505	0.00149
3062.25668	0.00161
3060.32830	0.00156
3058.39993	0.00148
3056.47156	0.00148
3054.54318	0.00148
3052.61481	0.00157
3050.68644	0.00170
3048.75806	0.00180
3046.82969	0.00186
3044.90132	0.00185
3042.97294	0.00180
3041.04457	0.00192
3039.11620	0.00218
3037.18782	0.00236
3035.25945	0.00241
3033.33108	0.00244
3031.40270	0.00263
3029.47433	0.00301
3027.54596	0.00331
3025.61758	0.00346
3023.68921	0.00355
3021.76084	0.00355
3019.83246	0.00352
3017.90409	0.00363
3015.97572	0.00385
3014.04734	0.00392
3012.11897	0.00381
3010.19060	0.00376
3008.26222	0.00400
3006.33385	0.00436
3004.40548	0.00444
3002.47711	0.00429
3000.54873	0.00433
2998.62036	0.00449
2996.69199	0.00441
2994.76361	0.00411
2992.83524	0.00388
2990.90687	0.00379
2988.97849	0.00374
2987.05012	0.00364
2985.12175	0.00336
2983.19337	0.00288
2981.26500	0.00254
2979.33663	0.00248
2977.40825	0.00248
2975.47988	0.00236
2973.55151	0.00203
2971.62313	0.00175
2969.69476	0.00173
2967.76639	0.00175
2965.83801	0.00163
2963.90964	0.00151
2961.98127	0.00152
2960.05289	0.00140
2958.12452	0.00139
2956.19615	0.00167
2954.26777	0.00192
2952.33940	0.00215
2950.41103	0.00234
2948.48266	0.00226
2946.55428	0.00188
2944.62591	0.00151
2942.69754	0.00153
2940.76916	0.00174
2938.84079	0.00169
2936.91242	0.00145
2934.98404	0.00127
2933.05567	0.00123
2931.12730	0.00132
2929.19892	0.00147
2927.27055	0.00159
2925.34218	0.00166
2923.41380	0.00166
2921.48543	0.00169
2919.55706	0.00192
2917.62868	0.00228
2915.70031	0.00263
2913.77194	0.00287
2911.84356	0.00308
2909.91519	0.00333
2907.98682	0.00370
2906.05844	0.00425
2904.13007	0.00477
2902.20170	0.00488
2900.27332	0.00466
2898.34495	0.00450
2896.41658	0.00449
2894.48820	0.00450
2892.55983	0.00441
2890.63146	0.00435
2888.70309	0.00450
2886.77471	0.00462
2884.84634	0.00455
2882.91797	0.00445
2880.98959	0.00443
2879.06122	0.00455
2877.13285	0.00476
2875.20447	0.00492
2873.27610	0.00504
2871.34773	0.00537
2869.41935	0.00599
2867.49098	0.00661
2865.56261	0.00702
2863.63423	0.00739
2861.70586	0.00779
2859.77749	0.00817
2857.84911	0.00858
2855.92074	0.00900
2853.99237	0.00937
2852.06399	0.00991
2850.13562	0.01072
2848.20725	0.01175
2846.27887	0.01299
2844.35050	0.01424
2842.42213	0.01533
2840.49375	0.01629
2838.56538	0.01711
2836.63701	0.01757
2834.70863	0.01786
2832.78026	0.01834
2830.85189	0.01897
2828.92352	0.01949
2826.99514	0.01987
2825.06677	0.02016
2823.13840	0.02042
2821.21002	0.02080
2819.28165	0.02128
2817.35328	0.02169
2815.42490	0.02208
2813.49653	0.02261
2811.56816	0.02313
2809.63978	0.02353
2807.71141	0.02403
2805.78304	0.02465
2803.85466	0.02521
2801.92629	0.02578
2799.99792	0.02647
2798.06954	0.02717
2796.14117	0.02791
2794.21280	0.02872
2792.28442	0.02945
2790.35605	0.03007
2788.42768	0.03063
2786.49930	0.03125
2784.57093	0.03195
2782.64256	0.03262
2780.71418	0.03321
2778.78581	0.03379
2776.85744	0.03436
2774.92907	0.03491
2773.00069	0.03545
2771.07232	0.03600
2769.14395	0.03658
2767.21557	0.03723
2765.28720	0.03798
2763.35883	0.03876
2761.43045	0.03948
2759.50208	0.04020
2757.57371	0.04098
2755.64533	0.04180
2753.71696	0.04271
2751.78859	0.04380
2749.86021	0.04491
2747.93184	0.04588
2746.00347	0.04682
2744.07509	0.04784
2742.14672	0.04889
2740.21835	0.04998
2738.28997	0.05108
2736.36160	0.05214
2734.43323	0.05311
2732.50485	0.05403
2730.57648	0.05499
2728.64811	0.05601
2726.71973	0.05704
2724.79136	0.05801
2722.86299	0.05896
2720.93461	0.05999
2719.00624	0.06112
2717.07787	0.06228
2715.14950	0.06330
2713.22112	0.06420
2711.29275	0.06517
2709.36438	0.06618
2707.43600	0.06711
2705.50763	0.06806
2703.57926	0.06899
2701.65088	0.06970
2699.72251	0.07031
2697.79414	0.07108
2695.86576	0.07190
2693.93739	0.07260
2692.00902	0.07319
2690.08064	0.07379
2688.15227	0.07446
2686.22390	0.07519
2684.29552	0.07597
2682.36715	0.07689
2680.43878	0.07794
2678.51040	0.07898
2676.58203	0.08008
2674.65366	0.08124
2672.72528	0.08237
2670.79691	0.08349
2668.86854	0.08460
2666.94016	0.08567
2665.01179	0.08675
2663.08342	0.08786
2661.15505	0.08892
2659.22667	0.09000
2657.29830	0.09111
2655.36993	0.09209
2653.44155	0.09294
2651.51318	0.09389
2649.58481	0.09501
2647.65643	0.09614
2645.72806	0.09717
2643.79969	0.09828
2641.87131	0.09952
2639.94294	0.10074
2638.01457	0.10196
2636.08619	0.10319
2634.15782	0.10441
2632.22945	0.10572
2630.30107	0.10706
2628.37270	0.10834
2626.44433	0.10973
2624.51595	0.11130
2622.58758	0.11282
2620.65921	0.11420
2618.73083	0.11561
2616.80246	0.11713
2614.87409	0.11871
2612.94571	0.12030
2611.01734	0.12195
2609.08897	0.12364
2607.16059	0.12535
2605.23222	0.12712
2603.30385	0.12894
2601.37548	0.13068
2599.44710	0.13236
2597.51873	0.13394
2595.59036	0.13542
2593.66198	0.13701
2591.73361	0.13878
2589.80524	0.14050
2587.87686	0.14213
2585.94849	0.14374
2584.02012	0.14529
2582.09174	0.14685
2580.16337	0.14850
2578.23500	0.15024
2576.30662	0.15203
2574.37825	0.15386
2572.44988	0.15574
2570.52150	0.15767
2568.59313	0.15956
2566.66476	0.16139
2564.73638	0.16330
2562.80801	0.16536
2560.87964	0.16745
2558.95126	0.16946
2557.02289	0.17141
2555.09452	0.17335
2553.16614	0.17534
2551.23777	0.17724
2549.30940	0.17900
2547.38103	0.18070
2545.45265	0.18235
2543.52428	0.18387
2541.59591	0.18529
2539.66753	0.18667
2537.73916	0.18812
2535.81079	0.18965
2533.88241	0.19116
2531.95404	0.19262
2530.02567	0.19409
2528.09729	0.19560
2526.16892	0.19704
2524.24055	0.19844
2522.31217	0.19997
2520.38380	0.20168
2518.45543	0.20341
2516.52705	0.20508
2514.59868	0.20664
2512.67031	0.20809
2510.74193	0.20957
2508.81356	0.21119
2506.88519	0.21287
2504.95681	0.21454
2503.02844	0.21618
2501.10007	0.21784
2499.17169	0.21958
2497.24332	0.22133
2495.31495	0.22301
2493.38657	0.22469
2491.45820	0.22641
2489.52983	0.22814
2487.60146	0.22981
2485.67308	0.23144
2483.74471	0.23308
2481.81634	0.23477
2479.88796	0.23653
2477.95959	0.23841
2476.03122	0.24042
2474.10284	0.24239
2472.17447	0.24431
2470.24610	0.24629
2468.31772	0.24835
2466.38935	0.25046
2464.46098	0.25267
2462.53260	0.25500
2460.60423	0.25735
2458.67586	0.25962
2456.74748	0.26183
2454.81911	0.26405
2452.89074	0.26636
2450.96236	0.26876
2449.03399	0.27111
2447.10562	0.27337
2445.17724	0.27559
2443.24887	0.27778
2441.32050	0.27992
2439.39212	0.28197
2437.46375	0.28399
2435.53538	0.28609
2433.60700	0.28818
2431.67863	0.29025
2429.75026	0.29240
2427.82189	0.29451
2425.89351	0.29652
2423.96514	0.29848
2422.03677	0.30032
2420.10839	0.30213
2418.18002	0.30409
2416.25165	0.30617
2414.32327	0.30826
2412.39490	0.31039
2410.46653	0.31253
2408.53815	0.31464
2406.60978	0.31680
2404.68141	0.31903
2402.75303	0.32134
2400.82466	0.32381
2398.89629	0.32635
2396.96791	0.32887
2395.03954	0.33133
2393.11117	0.33366
2391.18279	0.33591
2389.25442	0.33806
2387.32605	0.33994
2385.39767	0.34139
2383.46930	0.34240
2381.54093	0.34305
2379.61255	0.34345
2377.68418	0.34375
2375.75581	0.34397
2373.82744	0.34398
2371.89906	0.34403
2369.97069	0.34460
2368.04232	0.34537
2366.11394	0.34572
2364.18557	0.34611
2362.25720	0.34735
2360.32882	0.34967
2358.40045	0.35296
2356.47208	0.35653
2354.54370	0.35973
2352.61533	0.36310
2350.68696	0.36632
2348.75858	0.36818
2346.83021	0.36852
2344.90184	0.36826
2342.97346	0.36867
2341.04509	0.36981
2339.11672	0.37129
2337.18834	0.37317
2335.25997	0.37511
2333.33160	0.37656
2331.40322	0.37782
2329.47485	0.37945
2327.54648	0.38124
2325.61810	0.38307
2323.68973	0.38525
2321.76136	0.38776
2319.83298	0.39059
2317.90461	0.39374
2315.97624	0.39675
2314.04787	0.39942
2312.11949	0.40216
2310.19112	0.40522
2308.26275	0.40840
2306.33437	0.41159
2304.40600	0.41476
2302.47763	0.41776
2300.54925	0.42048
2298.62088	0.42294
2296.69251	0.42527
2294.76413	0.42755
2292.83576	0.42974
2290.90739	0.43175
2288.97901	0.43365
2287.05064	0.43552
2285.12227	0.43730
2283.19389	0.43894
2281.26552	0.44036
2279.33715	0.44153
2277.40877	0.44258
2275.48040	0.44362
2273.55203	0.44471
2271.62365	0.44579
2269.69528	0.44689
2267.76691	0.44809
2265.83853	0.44928
2263.91016	0.45041
2261.98179	0.45157
2260.05342	0.45274
2258.12504	0.45394
2256.19667	0.45530
2254.26830	0.45676
2252.33992	0.45819
2250.41155	0.45953
2248.48318	0.46092
2246.55480	0.46241
2244.62643	0.46394
2242.69806	0.46531
2240.76968	0.46640
2238.84131	0.46734
2236.91294	0.46833
2234.98456	0.46938
2233.05619	0.47035
2231.12782	0.47122
2229.19944	0.47205
2227.27107	0.47287
2225.34270	0.47371
2223.41432	0.47452
2221.48595	0.47520
2219.55758	0.47585
2217.62920	0.47658
2215.70083	0.47731
2213.77246	0.47802
2211.84408	0.47871
2209.91571	0.47935
2207.98734	0.47996
2206.05896	0.48055
2204.13059	0.48103
2202.20222	0.48147
2200.27385	0.48190
2198.34547	0.48227
2196.41710	0.48254
2194.48873	0.48281
2192.56035	0.48324
2190.63198	0.48378
2188.70361	0.48416
2186.77523	0.48443
2184.84686	0.48489
2182.91849	0.48548
2180.99011	0.48589
2179.06174	0.48615
2177.13337	0.48643
2175.20499	0.48669
2173.27662	0.48685
2171.34825	0.48704
2169.41987	0.48729
2167.49150	0.48747
2165.56313	0.48760
2163.63475	0.48776
2161.70638	0.48799
2159.77801	0.48828
2157.84963	0.48865
2155.92126	0.48913
2153.99289	0.48968
2152.06451	0.49025
2150.13614	0.49084
2148.20777	0.49148
2146.27940	0.49213
2144.35102	0.49282
2142.42265	0.49348
2140.49428	0.49400
2138.56590	0.49447
2136.63753	0.49509
2134.70916	0.49587
2132.78078	0.49677
2130.85241	0.49774
2128.92404	0.49865
2126.99566	0.49960
2125.06729	0.50074
2123.13892	0.50204
2121.21054	0.50335
2119.28217	0.50463
2117.35380	0.50585
2115.42542	0.50698
2113.49705	0.50808
2111.56868	0.50919
2109.64030	0.51030
2107.71193	0.51147
2105.78356	0.51263
2103.85518	0.51363
2101.92681	0.51444
2099.99844	0.51513
2098.07006	0.51583
2096.14169	0.51655
2094.21332	0.51713
2092.28494	0.51736
2090.35657	0.51744
2088.42820	0.51791
2086.49983	0.51867
2084.57145	0.51920
2082.64308	0.51943
2080.71471	0.51950
2078.78633	0.51947
2076.85796	0.51945
2074.92959	0.51949
2073.00121	0.51959
2071.07284	0.51981
2069.14447	0.51989
2067.21609	0.51944
2065.28772	0.51906
2063.35935	0.51964
2061.43097	0.52073
2059.50260	0.52175
2057.57423	0.52276
2055.64585	0.52382
2053.71748	0.52491
2051.78911	0.52604
2049.86073	0.52716
2047.93236	0.52825
2046.00399	0.52920
2044.07561	0.52990
2042.14724	0.53063
2040.21887	0.53195
2038.29049	0.53359
2036.36212	0.53489
2034.43375	0.53588
2032.50538	0.53678
2030.57700	0.53759
2028.64863	0.53823
2026.72026	0.53870
2024.79188	0.53910
2022.86351	0.53947
2020.93514	0.53937
2019.00676	0.53846
2017.07839	0.53807
2015.15002	0.53942
2013.22164	0.54134
2011.29327	0.54253
2009.36490	0.54331
2007.43652	0.54412
2005.50815	0.54501
2003.57978	0.54591
2001.65140	0.54671
1999.72303	0.54739
1997.79466	0.54808
1995.86628	0.54806
1993.93791	0.54629
1992.00954	0.54482
1990.08116	0.54620
1988.15279	0.54888
1986.22442	0.55094
1984.29604	0.55228
1982.36767	0.55295
1980.43930	0.55327
1978.51092	0.55362
1976.58255	0.55411
1974.65418	0.55472
1972.72581	0.55533
1970.79743	0.55513
1968.86906	0.55348
1966.94069	0.55264
1965.01231	0.55474
1963.08394	0.55760
1961.15557	0.55915
1959.22719	0.55999
1957.29882	0.56049
1955.37045	0.56099
1953.44207	0.56216
1951.51370	0.56364
1949.58533	0.56440
1947.65695	0.56397
1945.72858	0.56186
1943.80021	0.55882
1941.87183	0.55929
1939.94346	0.56440
1938.01509	0.56870
1936.08671	0.57000
1934.15834	0.57026
1932.22997	0.57074
1930.30159	0.57155
1928.37322	0.57213
1926.44485	0.57103
1924.51647	0.56749
1922.58810	0.56485
1920.65973	0.56451
1918.73135	0.56416
1916.80298	0.56631
1914.87461	0.57118
1912.94624	0.57310
1911.01786	0.57125
1909.08949	0.56995
1907.16112	0.57159
1905.23274	0.57403
1903.30437	0.57525
1901.37600	0.57576
1899.44762	0.57562
1897.51925	0.57387
1895.59088	0.57170
1893.66250	0.57105
1891.73413	0.56932
1889.80576	0.56669
1887.87738	0.56830
1885.94901	0.57214
1884.02064	0.57401
1882.09226	0.57463
1880.16389	0.57477
1878.23552	0.57459
1876.30714	0.57445
1874.37877	0.57361
1872.45040	0.56886
1870.52202	0.55833
1868.59365	0.55022
1866.66528	0.55445
1864.73690	0.56372
1862.80853	0.56820
1860.88016	0.56825
1858.95179	0.56740
1857.02341	0.56709
1855.09504	0.56689
1853.16667	0.56616
1851.23829	0.56410
1849.30992	0.55953
1847.38155	0.55179
1845.45317	0.54276
1843.52480	0.54113
1841.59643	0.54901
1839.66805	0.55477
1837.73968	0.55479
1835.81131	0.55392
1833.88293	0.55182
1831.95456	0.54354
1830.02619	0.53374
1828.09781	0.53184
1826.16944	0.53366
1824.24107	0.53571
1822.31269	0.53979
1820.38432	0.54161
1818.45595	0.53927
1816.52757	0.53586
1814.59920	0.53124
1812.67083	0.52330
1810.74245	0.51522
1808.81408	0.51175
1806.88571	0.50989
1804.95733	0.50406
1803.02896	0.49275
1801.10059	0.47990
1799.17222	0.47134
1797.24384	0.46511
1795.31547	0.45435
1793.38710	0.43791
1791.45872	0.42555
1789.53035	0.42324
1787.60198	0.42029
1785.67360	0.41103
1783.74523	0.39942
1781.81686	0.38819
1779.88848	0.37833
1777.96011	0.37010
1776.03174	0.35938
1774.10336	0.34310
1772.17499	0.32685
1770.24662	0.31939
1768.31824	0.31675
1766.38987	0.31190
1764.46150	0.30205
1762.53312	0.28636
1760.60475	0.26957
1758.67638	0.25408
1756.74800	0.23598
1754.81963	0.21632
1752.89126	0.19422
1750.96288	0.16643
1749.03451	0.13840
1747.10614	0.11591
1745.17777	0.09614
1743.24939	0.07712
1741.32102	0.05965
1739.39265	0.04445
1737.46427	0.03326
1735.53590	0.02479
1733.60753	0.01685
1731.67915	0.01146
1729.75078	0.00832
1727.82241	0.00596
1725.89403	0.00423
1723.96566	0.00311
1722.03729	0.00229
1720.10891	0.00163
1718.18054	0.00120
1716.25217	0.00092
1714.32379	0.00075
1712.39542	0.00063
1710.46705	0.00062
1708.53867	0.00062
1706.61030	0.00067
1704.68193	0.00061
1702.75355	0.00055
1700.82518	0.00059
1698.89681	0.00058
1696.96843	0.00062
1695.04006	0.00063
1693.11169	0.00047
1691.18331	0.00030
1689.25494	0.00031
1687.32657	0.00056
1685.39820	0.00080
1683.46982	0.00073
1681.54145	0.00054
1679.61308	0.00044
1677.68470	0.00049
1675.75633	0.00057
1673.82796	0.00060
1671.89958	0.00057
1669.97121	0.00054
1668.04284	0.00054
1666.11446	0.00058
1664.18609	0.00068
1662.25772	0.00073
1660.32934	0.00063
1658.40097	0.00052
1656.47260	0.00054
1654.54422	0.00088
1652.61585	0.00114
1650.68748	0.00086
1648.75910	0.00065
1646.83073	0.00064
1644.90236	0.00062
1642.97398	0.00052
1641.04561	0.00042
1639.11724	0.00041
1637.18886	0.00051
1635.26049	0.00045
1633.33212	0.00033
1631.40375	0.00037
1629.47537	0.00054
1627.54700	0.00059
1625.61863	0.00050
1623.69025	0.00047
1621.76188	0.00046
1619.83351	0.00047
1617.90513	0.00052
1615.97676	0.00049
1614.04839	0.00048
1612.12001	0.00061
1610.19164	0.00073
1608.26327	0.00069
1606.33489	0.00060
1604.40652	0.00053
1602.47815	0.00044
1600.54977	0.00042
1598.62140	0.00046
1596.69303	0.00049
1594.76465	0.00049
1592.83628	0.00044
1590.90791	0.00038
1588.97953	0.00039
1587.05116	0.00047
1585.12279	0.00054
1583.19441	0.00052
1581.26604	0.00049
1579.33767	0.00054
1577.40929	0.00062
1575.48092	0.00060
1573.55255	0.00063
1571.62418	0.00074
1569.69580	0.00074
1567.76743	0.00058
1565.83906	0.00049
1563.91068	0.00056
1561.98231	0.00073
1560.05394	0.00084
1558.12556	0.00074
1556.19719	0.00066
1554.26882	0.00061
1552.34044	0.00057
1550.41207	0.00059
1548.48370	0.00064
1546.55532	0.00070
1544.62695	0.00075
1542.69858	0.00079
1540.77020	0.00076
1538.84183	0.00057
1536.91346	0.00045
1534.98508	0.00048
1533.05671	0.00053
1531.12834	0.00051
1529.19996	0.00046
1527.27159	0.00052
1525.34322	0.00070
1523.41484	0.00088
1521.48647	0.00092
1519.55810	0.00085
1517.62972	0.00072
1515.70135	0.00066
1513.77298	0.00078
1511.84461	0.00091
1509.91623	0.00094
1507.98786	0.00086
1506.05949	0.00055
1504.13111	0.00035
1502.20274	0.00056
1500.27437	0.00081
1498.34599	0.00102
1496.41762	0.00132
1494.48925	0.00179
1492.56087	0.00229
1490.63250	0.00285
1488.70413	0.00357
1486.77575	0.00440
1484.84738	0.00517
1482.91901	0.00570
1480.99063	0.00604
1479.06226	0.00620
1477.13389	0.00607
1475.20551	0.00564
1473.27714	0.00488
1471.34877	0.00406
1469.42039	0.00353
1467.49202	0.00315
1465.56365	0.00277
1463.63527	0.00243
1461.70690	0.00219
1459.77853	0.00199
1457.85016	0.00170
1455.92178	0.00135
1453.99341	0.00122
1452.06504	0.00120
1450.13666	0.00106
1448.20829	0.00084
1446.27992	0.00070
1444.35154	0.00076
1442.42317	0.00090
1440.49480	0.00099
1438.56642	0.00102
1436.63805	0.00094
1434.70968	0.00078
1432.78130	0.00067
1430.85293	0.00065
1428.92456	0.00077
1426.99618	0.00096
1425.06781	0.00108
1423.13944	0.00117
1421.21106	0.00122
1419.28269	0.00114
1417.35432	0.00098
1415.42594	0.00092
1413.49757	0.00094
1411.56920	0.00100
1409.64082	0.00111
1407.71245	0.00124
1405.78408	0.00135
1403.85570	0.00138
1401.92733	0.00133
1399.99896	0.00133
1398.07059	0.00126
1396.14221	0.00116
1394.21384	0.00118
1392.28547	0.00115
1390.35709	0.00104
1388.42872	0.00097
1386.50035	0.00100
1384.57197	0.00099
1382.64360	0.00086
1380.71523	0.00073
1378.78685	0.00070
1376.85848	0.00065
1374.93011	0.00073
1373.00173	0.00084
1371.07336	0.00093
1369.14499	0.00108
1367.21661	0.00118
1365.28824	0.00133
1363.35987	0.00175
1361.43149	0.00231
1359.50312	0.00289
1357.57475	0.00334
1355.64637	0.00360
1353.71800	0.00386
1351.78963	0.00420
1349.86125	0.00449
1347.93288	0.00458
1346.00451	0.00448
1344.07614	0.00430
1342.14776	0.00404
1340.21939	0.00369
1338.29102	0.00336
1336.36264	0.00305
1334.43427	0.00267
1332.50590	0.00223
1330.57752	0.00185
1328.64915	0.00165
1326.72078	0.00163
1324.79240	0.00163
1322.86403	0.00164
1320.93566	0.00178
1319.00728	0.00199
1317.07891	0.00205
1315.15054	0.00201
1313.22216	0.00203
1311.29379	0.00202
1309.36542	0.00189
1307.43704	0.00181
1305.50867	0.00196
1303.58030	0.00219
1301.65192	0.00226
1299.72355	0.00231
1297.79518	0.00252
1295.86680	0.00272
1293.93843	0.00285
1292.01006	0.00307
1290.08168	0.00321
1288.15331	0.00317
1286.22494	0.00314
1284.29657	0.00325
1282.36819	0.00335
1280.43982	0.00339
1278.51145	0.00353
1276.58307	0.00368
1274.65470	0.00369
1272.72633	0.00352
1270.79795	0.00325
1268.86958	0.00304
1266.94121	0.00294
1265.01283	0.00276
1263.08446	0.00244
1261.15609	0.00225
1259.22771	0.00233
1257.29934	0.00241
1255.37097	0.00248
1253.44259	0.00267
1251.51422	0.00289
1249.58585	0.00316
1247.65747	0.00348
1245.72910	0.00365
1243.80073	0.00363
1241.87235	0.00370
1239.94398	0.00391
1238.01561	0.00412
1236.08723	0.00426
1234.15886	0.00442
1232.23049	0.00477
1230.30212	0.00533
1228.37374	0.00593
1226.44537	0.00642
1224.51700	0.00690
1222.58862	0.00760
1220.66025	0.00850
1218.73188	0.00939
1216.80350	0.00983
1214.87513	0.00975
1212.94676	0.00957
1211.01838	0.00934
1209.09001	0.00874
1207.16164	0.00797
1205.23326	0.00780
1203.30489	0.00864
1201.37652	0.01019
1199.44814	0.01209
1197.51977	0.01410
1195.59140	0.01609
1193.66302	0.01803
1191.73465	0.01977
1189.80628	0.02091
1187.87790	0.02111
1185.94953	0.02047
1184.02116	0.01952
1182.09278	0.01855
1180.16441	0.01722
1178.23604	0.01537
1176.30766	0.01335
1174.37929	0.01138
1172.45092	0.00930
1170.52255	0.00703
1168.59417	0.00479
1166.66580	0.00313
1164.73743	0.00228
1162.80905	0.00184
1160.88068	0.00152
1158.95231	0.00144
1157.02393	0.00158
1155.09556	0.00186
1153.16719	0.00227
1151.23881	0.00297
1149.31044	0.00412
1147.38207	0.00612
1145.45369	0.00896
1143.52532	0.01171
1141.59695	0.01335
1139.66857	0.01376
1137.74020	0.01327
1135.81183	0.01223
1133.88345	0.01079
1131.95508	0.00895
1130.02671	0.00681
1128.09833	0.00473
1126.16996	0.00334
1124.24159	0.00292
1122.31321	0.00284
1120.38484	0.00238
1118.45647	0.00181
1116.52809	0.00164
1114.59972	0.00161
1112.67135	0.00157
1110.74298	0.00206
1108.81460	0.00304
1106.88623	0.00372
1104.95786	0.00415
1103.02948	0.00449
1101.10111	0.00471
1099.17274	0.00461
1097.24436	0.00422
1095.31599	0.00354
1093.38762	0.00276
1091.45924	0.00237
1089.53087	0.00223
1087.60250	0.00195
1085.67412	0.00186
1083.74575	0.00199
1081.81738	0.00183
1079.88900	0.00193
1077.96063	0.00232
1076.03226	0.00259
1074.10388	0.00247
1072.17551	0.00214
1070.24714	0.00198
1068.31876	0.00193
1066.39039	0.00192
1064.46202	0.00204
1062.53364	0.00218
1060.60527	0.00239
1058.67690	0.00253
1056.74853	0.00255
1054.82015	0.00283
1052.89178	0.00335
1050.96341	0.00365
1049.03503	0.00352
1047.10666	0.00319
1045.17829	0.00287
1043.24991	0.00256
1041.32154	0.00217
1039.39317	0.00186
1037.46479	0.00178
1035.53642	0.00180
1033.60805	0.00178
1031.67967	0.00173
1029.75130	0.00173
1027.82293	0.00183
1025.89455	0.00183
1023.96618	0.00178
1022.03781	0.00187
1020.10943	0.00198
1018.18106	0.00208
1016.25269	0.00217
1014.32431	0.00232
1012.39594	0.00292
1010.46757	0.00420
1008.53919	0.00617
1006.61082	0.00896
1004.68245	0.01256
1002.75407	0.01703
1000.82570	0.02228
998.89733	0.02757
996.96896	0.03242
995.04058	0.03709
993.11221	0.04197
991.18384	0.04713
989.25546	0.05234
987.32709	0.05695
985.39872	0.05998
983.47034	0.06065
981.54197	0.05883
979.61360	0.05541
977.68522	0.05216
975.75685	0.05104
973.82848	0.05347
971.90010	0.05990
969.97173	0.06965
968.04336	0.08088
966.11498	0.09083
964.18661	0.09636
962.25824	0.09448
960.32986	0.08349
958.40149	0.06653
956.47312	0.05196
954.54474	0.04647
952.61637	0.05047
950.68800	0.06110
948.75962	0.07531
946.83125	0.09026
944.90288	0.10400
942.97451	0.11591
941.04613	0.12613
939.11776	0.13490
937.18939	0.14203
935.26101	0.14720
933.33264	0.15041
931.40427	0.15206
929.47589	0.15248
927.54752	0.15142
925.61915	0.14874
923.69077	0.14527
921.76240	0.14245
919.83403	0.14141
917.90565	0.14249
915.97728	0.14480
914.04891	0.14642
912.12053	0.14561
910.19216	0.14167
908.26379	0.13471
906.33541	0.12532
904.40704	0.11477
902.47867	0.10495
900.55029	0.09739
898.62192	0.09249
896.69355	0.08984
894.76517	0.08915
892.83680	0.09040
890.90843	0.09327
888.98005	0.09703
887.05168	0.10091
885.12331	0.10417
883.19494	0.10636
881.26656	0.10746
879.33819	0.10773
877.40982	0.10754
875.48144	0.10747
873.55307	0.10770
871.62470	0.10767
869.69632	0.10726
867.76795	0.10681
865.83958	0.10610
863.91120	0.10505
861.98283	0.10400
860.05446	0.10273
858.12608	0.10096
856.19771	0.09887
854.26934	0.09660
852.34096	0.09419
850.41259	0.09217
848.48422	0.09095
846.55584	0.09009
844.62747	0.08884
842.69910	0.08699
840.77072	0.08474
838.84235	0.08233
836.91398	0.07989
834.98560	0.07769
833.05723	0.07584
831.12886	0.07356
829.20049	0.07050
827.27211	0.06781
825.34374	0.06636
823.41537	0.06552
821.48699	0.06454
819.55862	0.06341
817.63025	0.06224
815.70187	0.06117
813.77350	0.06021
811.84513	0.05884
809.91675	0.05673
807.98838	0.05438
806.06001	0.05222
804.13163	0.05006
802.20326	0.04744
800.27489	0.04434
798.34651	0.04103
796.41814	0.03786
794.48977	0.03511
792.56139	0.03300
790.63302	0.03157
788.70465	0.03069
786.77627	0.03009
784.84790	0.02961
782.91953	0.02926
780.99115	0.02876
779.06278	0.02784
777.13441	0.02661
775.20603	0.02545
773.27766	0.02479
771.34929	0.02459
769.42092	0.02439
767.49254	0.02420
765.56417	0.02412
763.63580	0.02351
761.70742	0.02209
759.77905	0.02015
757.85068	0.01779
755.92230	0.01545
753.99393	0.01371
752.06556	0.01258
750.13718	0.01218
748.20881	0.01258
746.28044	0.01335
744.35206	0.01420
742.42369	0.01508
740.49532	0.01580
738.56694	0.01616
736.63857	0.01631
734.71020	0.01646
732.78182	0.01662
730.85345	0.01668
728.92508	0.01647
726.99670	0.01568
725.06833	0.01438
723.13996	0.01318
721.21158	0.01227
719.28321	0.01158
717.35484	0.01106
715.42647	0.01050
713.49809	0.00987
711.56972	0.00933
709.64135	0.00898
707.71297	0.00879
705.78460	0.00869
703.85623	0.00897
701.92785	0.00945
699.99948	0.00958
698.07111	0.00989
696.14273	0.01083
694.21436	0.01157
692.28599	0.01171
690.35761	0.01211
688.42924	0.01321
686.50087	0.01429
684.57249	0.01491
682.64412	0.01536
680.71575	0.01575
678.78737	0.01598
676.85900	0.01625
674.93063	0.01648
673.00225	0.01652
671.07388	0.01681
669.14551	0.01709
667.21713	0.01597
665.28876	0.01502
663.36039	0.01536
661.43201	0.01632
659.50364	0.01672
657.57527	0.01614
655.64690	0.01595
653.71852	0.01656
651.79015	0.01711
649.86178	0.01692
647.93340	0.01612
646.00503	0.01490
644.07666	0.01343
642.14828	0.01254
640.21991	0.01224
638.29154	0.01153
636.36316	0.01062
634.43479	0.01057
632.50642	0.01105
630.57804	0.01152
628.64967	0.01222
626.72130	0.01239
624.79292	0.01244
622.86455	0.01320
620.93618	0.01338
619.00780	0.01259
617.07943	0.01162
615.15106	0.01163
613.22268	0.01274
611.29431	0.01370
609.36594	0.01508
607.43756	0.01706
605.50919	0.01827
603.58082	0.01815
601.65244	0.01910
599.72407	0.02162
