3997.51769	0.40092
3995.58931	0.40131
3993.66094	0.40192
3991.73257	0.40262
3989.80419	0.40294
3987.87582	0.40298
3985.94745	0.40317
3984.01907	0.40342
3982.09070	0.40360
3980.16233	0.40372
3978.23396	0.40364
3976.30558	0.40371
3974.37721	0.40393
3972.44884	0.40381
3970.52046	0.40354
3968.59209	0.40356
3966.66372	0.40380
3964.73534	0.40400
3962.80697	0.40422
3960.87860	0.40481
3958.95022	0.40578
3957.02185	0.40666
3955.09348	0.40703
3953.16510	0.40710
3951.23673	0.40740
3949.30836	0.40766
3947.37998	0.40738
3945.45161	0.40728
3943.52324	0.40768
3941.59486	0.40783
3939.66649	0.40784
3937.73812	0.40811
3935.80974	0.40838
3933.88137	0.40903
3931.95300	0.40997
3930.02462	0.41015
3928.09625	0.40995
3926.16788	0.41048
3924.23950	0.41149
3922.31113	0.41215
3920.38276	0.41268
3918.45439	0.41324
3916.52601	0.41330
3914.59764	0.41275
3912.66927	0.41222
3910.74089	0.41233
3908.81252	0.41311
3906.88415	0.41469
3904.95577	0.41716
3903.02740	0.41923
3901.09903	0.41963
3899.17065	0.41846
3897.24228	0.41675
3895.31391	0.41616
3893.38553	0.41694
3891.45716	0.41781
3889.52879	0.41830
3887.60041	0.41942
3885.67204	0.42064
3883.74367	0.42116
3881.81529	0.42188
3879.88692	0.42219
3877.95855	0.42142
3876.03017	0.42115
3874.10180	0.42215
3872.17343	0.42403
3870.24505	0.42545
3868.31668	0.42486
3866.38831	0.42404
3864.45994	0.42465
3862.53156	0.42492
3860.60319	0.42405
3858.67482	0.42363
3856.74644	0.42457
3854.81807	0.42756
3852.88970	0.43051
3850.96132	0.42879
3849.03295	0.42601
3847.10458	0.42498
3845.17620	0.42569
3843.24783	0.42684
3841.31946	0.42761
3839.39108	0.42854
3837.46271	0.42925
3835.53434	0.42885
3833.60596	0.42808
3831.67759	0.42733
3829.74922	0.42670
3827.82084	0.42668
3825.89247	0.42714
3823.96410	0.42816
3822.03572	0.43018
3820.10735	0.43123
3818.17898	0.43047
3816.25060	0.42975
3814.32223	0.42878
3812.39386	0.42775
3810.46548	0.42758
3808.53711	0.42848
3806.60874	0.42942
3804.68037	0.42944
3802.75199	0.42947
3800.82362	0.42957
3798.89525	0.42940
3796.96687	0.42944
3795.03850	0.42893
3793.11013	0.42801
3791.18175	0.42776
3789.25338	0.42800
3787.32501	0.42820
3785.39663	0.42820
3783.46826	0.42775
3781.53989	0.42742
3779.61151	0.42804
3777.68314	0.42858
3775.75477	0.42813
3773.82639	0.42787
3771.89802	0.42856
3769.96965	0.42932
3768.04127	0.42919
3766.11290	0.42890
3764.18453	0.42872
3762.25615	0.42866
3760.32778	0.42907
3758.39941	0.42930
3756.47103	0.42923
3754.54266	0.43019
3752.61429	0.43298
3750.68591	0.43497
3748.75754	0.43335
3746.82917	0.43201
3744.90080	0.43163
3742.97242	0.43022
3741.04405	0.42935
3739.11568	0.43025
3737.18730	0.43238
3735.25893	0.43342
3733.33056	0.43106
3731.40218	0.42753
3729.47381	0.42550
3727.54544	0.42532
3725.61706	0.42606
3723.68869	0.42587
3721.76032	0.42441
3719.83194	0.42269
3717.90357	0.42150
3715.97520	0.42159
3714.04682	0.42291
3712.11845	0.42398
3710.19008	0.42229
3708.26170	0.41856
3706.33333	0.41545
3704.40496	0.41379
3702.47658	0.41261
3700.54821	0.41031
3698.61984	0.40788
3696.69146	0.40610
3694.76309	0.40447
3692.83472	0.40325
3690.90635	0.40183
3688.97797	0.39756
3687.04960	0.39096
3685.12123	0.38543
3683.19285	0.38084
3681.26448	0.37639
3679.33611	0.37249
3677.40773	0.36927
3675.47936	0.36395
3673.55099	0.35622
3671.62261	0.34949
3669.69424	0.34087
3667.76587	0.33054
3665.83749	0.32218
3663.90912	0.31476
3661.98075	0.30725
3660.05237	0.29993
3658.12400	0.29294
3656.19563	0.28466
3654.26725	0.27622
3652.33888	0.27014
3650.41051	0.26389
3648.48213	0.25313
3646.55376	0.24038
3644.62539	0.23000
3642.69701	0.22135
3640.76864	0.21334
3638.84027	0.20580
3636.91189	0.19868
3634.98352	0.19148
3633.05515	0.18436
3631.12678	0.17829
3629.19840	0.17103
3627.27003	0.16144
3625.34166	0.15399
3623.41328	0.14868
3621.48491	0.14363
3619.55654	0.13707
3617.62816	0.12977
3615.69979	0.12407
3613.77142	0.11898
3611.84304	0.11357
3609.91467	0.10839
3607.98630	0.10304
3606.05792	0.09755
3604.12955	0.09277
3602.20118	0.08848
3600.27280	0.08450
3598.34443	0.08049
3596.41606	0.07597
3594.48768	0.07157
3592.55931	0.06810
3590.63094	0.06527
3588.70256	0.06203
3586.77419	0.05800
3584.84582	0.05426
3582.91744	0.05135
3580.98907	0.04878
3579.06070	0.04616
3577.13233	0.04353
3575.20395	0.04089
3573.27558	0.03845
3571.34721	0.03637
3569.41883	0.03463
3567.49046	0.03283
3565.56209	0.03084
3563.63371	0.02913
3561.70534	0.02760
3559.77697	0.02592
3557.84859	0.02390
3555.92022	0.02202
3553.99185	0.02080
3552.06347	0.01973
3550.13510	0.01834
3548.20673	0.01687
3546.27835	0.01548
3544.34998	0.01433
3542.42161	0.01370
3540.49323	0.01333
3538.56486	0.01261
3536.63649	0.01150
3534.70811	0.01052
3532.77974	0.00998
3530.85137	0.00938
3528.92299	0.00832
3526.99462	0.00703
3525.06625	0.00599
3523.13787	0.00549
3521.20950	0.00530
3519.28113	0.00485
3517.35276	0.00411
3515.42438	0.00360
3513.49601	0.00332
3511.56764	0.00283
3509.63926	0.00229
3507.71089	0.00205
3505.78252	0.00194
3503.85414	0.00164
3501.92577	0.00134
3499.99740	0.00154
3498.06902	0.00176
3496.14065	0.00162
3494.21228	0.00135
3492.28390	0.00106
3490.35553	0.00108
3488.42716	0.00112
3486.49878	0.00063
3484.57041	0.00092
3482.64204	0.00121
3480.71366	0.00114
3478.78529	0.00131
3476.85692	0.00108
3474.92854	0.00084
3473.00017	0.00073
3471.07180	0.00050
3469.14342	0.00062
3467.21505	0.00113
3465.28668	0.00129
3463.35831	0.00107
3461.42993	0.00057
3459.50156	0.00048
3457.57319	0.00111
3455.64481	0.00138
3453.71644	0.00145
3451.78807	0.00118
3449.85969	0.00116
3447.93132	0.00137
3446.00295	0.00123
3444.07457	0.00073
3442.14620	0.00062
3440.21783	0.00041
3438.28945	0.00100
3436.36108	0.00134
3434.43271	0.00123
3432.50433	0.00088
3430.57596	0.00070
3428.64759	0.00109
3426.71921	0.00079
3424.79084	0.00063
3422.86247	0.00068
3420.93409	0.00072
3419.00572	0.00077
3417.07735	0.00097
3415.14897	0.00075
3413.22060	0.00089
3411.29223	0.00087
3409.36385	0.00061
3407.43548	0.00083
3405.50711	0.00069
3403.57874	0.00058
3401.65036	0.00120
3399.72199	0.00133
3397.79362	0.00077
3395.86524	0.00136
3393.93687	0.00200
3392.00850	0.00147
3390.08012	0.00054
3388.15175	0.00076
3386.22338	0.00106
3384.29500	0.00100
3382.36663	0.00084
3380.43826	0.00069
3378.50988	0.00070
3376.58151	0.00073
3374.65314	0.00048
3372.72476	0.00029
3370.79639	0.00034
3368.86802	0.00073
3366.93964	0.00138
3365.01127	0.00160
3363.08290	0.00117
3361.15452	0.00049
3359.22615	0.00049
3357.29778	0.00090
3355.36940	0.00085
3353.44103	0.00029
3351.51266	0.00053
3349.58428	0.00071
3347.65591	0.00086
3345.72754	0.00071
3343.79917	0.00046
3341.87079	0.00066
3339.94242	0.00054
3338.01405	0.00079
3336.08567	0.00111
3334.15730	0.00086
3332.22893	0.00105
3330.30055	0.00132
3328.37218	0.00119
3326.44381	0.00111
3324.51543	0.00092
3322.58706	0.00087
3320.65869	0.00065
3318.73031	0.00071
3316.80194	0.00066
3314.87357	0.00043
3312.94519	0.00052
3311.01682	0.00105
3309.08845	0.00120
3307.16007	0.00076
3305.23170	0.00047
3303.30333	0.00129
3301.37495	0.00152
3299.44658	0.00110
3297.51821	0.00090
3295.58983	0.00094
3293.66146	0.00114
3291.73309	0.00122
3289.80472	0.00128
3287.87634	0.00119
3285.94797	0.00110
3284.01960	0.00065
3282.09122	0.00031
3280.16285	0.00025
3278.23448	0.00038
3276.30610	0.00029
3274.37773	0.00059
3272.44936	0.00105
3270.52098	0.00092
3268.59261	0.00080
3266.66424	0.00073
3264.73586	0.00082
3262.80749	0.00108
3260.87912	0.00111
3258.95074	0.00102
3257.02237	0.00103
3255.09400	0.00104
3253.16562	0.00107
3251.23725	0.00106
3249.30888	0.00087
3247.38050	0.00077
3245.45213	0.00080
3243.52376	0.00058
3241.59538	0.00074
3239.66701	0.00102
3237.73864	0.00103
3235.81026	0.00100
3233.88189	0.00133
3231.95352	0.00123
3230.02515	0.00097
3228.09677	0.00058
3226.16840	0.00043
3224.24003	0.00047
3222.31165	0.00098
3220.38328	0.00136
3218.45491	0.00159
3216.52653	0.00140
3214.59816	0.00085
3212.66979	0.00094
3210.74141	0.00110
3208.81304	0.00074
3206.88467	0.00029
3204.95629	0.00067
3203.02792	0.00099
3201.09955	0.00116
3199.17117	0.00099
3197.24280	0.00051
3195.31443	0.00093
3193.38605	0.00093
3191.45768	0.00048
3189.52931	0.00061
3187.60093	0.00080
3185.67256	0.00068
3183.74419	0.00063
3181.81581	0.00108
3179.88744	0.00128
3177.95907	0.00127
3176.03070	0.00116
3174.10232	0.00077
3172.17395	0.00032
3170.24558	0.00055
3168.31720	0.00094
3166.38883	0.00139
3164.46046	0.00139
3162.53208	0.00077
3160.60371	0.00083
3158.67534	0.00109
3156.74696	0.00149
3154.81859	0.00151
3152.89022	0.00112
3150.96184	0.00112
3149.03347	0.00184
3147.10510	0.00241
3145.17672	0.00215
3143.24835	0.00147
3141.31998	0.00157
3139.39160	0.00207
3137.46323	0.00193
3135.53486	0.00156
3133.60648	0.00149
3131.67811	0.00155
3129.74974	0.00135
3127.82136	0.00097
3125.89299	0.00101
3123.96462	0.00109
3122.03624	0.00121
3120.10787	0.00158
3118.17950	0.00152
3116.25113	0.00123
3114.32275	0.00115
3112.39438	0.00130
3110.46601	0.00131
3108.53763	0.00131
3106.60926	0.00150
3104.68089	0.00186
3102.75251	0.00171
3100.82414	0.00118
3098.89577	0.00081
3096.96739	0.00071
3095.03902	0.00085
3093.11065	0.00109
3091.18227	0.00114
3089.25390	0.00104
3087.32553	0.00116
3085.39715	0.00122
3083.46878	0.00143
3081.54041	0.00155
3079.61203	0.00155
3077.68366	0.00150
3075.75529	0.00146
3073.82691	0.00143
3071.89854	0.00153
3069.97017	0.00170
3068.04179	0.00189
3066.11342	0.00212
3064.18505	0.00244
3062.25668	0.00259
3060.32830	0.00261
3058.39993	0.00260
3056.47156	0.00280
3054.54318	0.00271
3052.61481	0.00243
3050.68644	0.00238
3048.75806	0.00252
3046.82969	0.00296
3044.90132	0.00363
3042.97294	0.00388
3041.04457	0.00358
3039.11620	0.00338
3037.18782	0.00367
3035.25945	0.00404
3033.33108	0.00416
3031.40270	0.00434
3029.47433	0.00468
3027.54596	0.00497
3025.61758	0.00508
3023.68921	0.00507
3021.76084	0.00510
3019.83246	0.00512
3017.90409	0.00525
3015.97572	0.00564
3014.04734	0.00582
3012.11897	0.00559
3010.19060	0.00542
3008.26222	0.00514
3006.33385	0.00479
3004.40548	0.00497
3002.47711	0.00545
3000.54873	0.00591
2998.62036	0.00640
2996.69199	0.00666
2994.76361	0.00637
2992.83524	0.00547
2990.90687	0.00458
2988.97849	0.00414
2987.05012	0.00396
2985.12175	0.00402
2983.19337	0.00397
2981.26500	0.00358
2979.33663	0.00294
2977.40825	0.00240
2975.47988	0.00257
2973.55151	0.00328
2971.62313	0.00363
2969.69476	0.00331
2967.76639	0.00269
2965.83801	0.00220
2963.90964	0.00199
2961.98127	0.00210
2960.05289	0.00238
2958.12452	0.00252
2956.19615	0.00245
2954.26777	0.00244
2952.33940	0.00263
2950.41103	0.00302
2948.48266	0.00306
2946.55428	0.00299
2944.62591	0.00287
2942.69754	0.00254
2940.76916	0.00208
2938.84079	0.00199
2936.91242	0.00185
2934.98404	0.00138
2933.05567	0.00183
2931.12730	0.00233
2929.19892	0.00316
2927.27055	0.00364
2925.34218	0.00312
2923.41380	0.00241
2921.48543	0.00237
2919.55706	0.00308
2917.62868	0.00378
2915.70031	0.00424
2913.77194	0.00463
2911.84356	0.00500
2909.91519	0.00559
2907.98682	0.00606
2906.05844	0.00600
2904.13007	0.00587
2902.20170	0.00604
2900.27332	0.00620
2898.34495	0.00595
2896.41658	0.00579
2894.48820	0.00638
2892.55983	0.00704
2890.63146	0.00702
2888.70309	0.00684
2886.77471	0.00692
2884.84634	0.00697
2882.91797	0.00683
2880.98959	0.00649
2879.06122	0.00602
2877.13285	0.00586
2875.20447	0.00626
2873.27610	0.00694
2871.34773	0.00742
2869.41935	0.00765
2867.49098	0.00805
2865.56261	0.00875
2863.63423	0.00943
2861.70586	0.00995
2859.77749	0.01041
2857.84911	0.01088
2855.92074	0.01109
2853.99237	0.01101
2852.06399	0.01132
2850.13562	0.01231
2848.20725	0.01369
2846.27887	0.01534
2844.35050	0.01675
2842.42213	0.01745
2840.49375	0.01794
2838.56538	0.01858
2836.63701	0.01910
2834.70863	0.01958
2832.78026	0.02024
2830.85189	0.02082
2828.92352	0.02114
2826.99514	0.02131
2825.06677	0.02138
2823.13840	0.02141
2821.21002	0.02154
2819.28165	0.02192
2817.35328	0.02232
2815.42490	0.02240
2813.49653	0.02242
2811.56816	0.02270
2809.63978	0.02319
2807.71141	0.02393
2805.78304	0.02484
2803.85466	0.02567
2801.92629	0.02616
2799.99792	0.02628
2798.06954	0.02635
2796.14117	0.02674
2794.21280	0.02739
2792.28442	0.02801
2790.35605	0.02842
2788.42768	0.02875
2786.49930	0.02929
2784.57093	0.02997
2782.64256	0.03068
2780.71418	0.03151
2778.78581	0.03225
2776.85744	0.03259
2774.92907	0.03283
2773.00069	0.03320
2771.07232	0.03366
2769.14395	0.03417
2767.21557	0.03483
2765.28720	0.03562
2763.35883	0.03630
2761.43045	0.03683
2759.50208	0.03729
2757.57371	0.03776
2755.64533	0.03844
2753.71696	0.03919
2751.78859	0.03967
2749.86021	0.04009
2747.93184	0.04105
2746.00347	0.04219
2744.07509	0.04279
2742.14672	0.04314
2740.21835	0.04376
2738.28997	0.04470
2736.36160	0.04583
2734.43323	0.04693
2732.50485	0.04787
2730.57648	0.04860
2728.64811	0.04910
2726.71973	0.04968
2724.79136	0.05046
2722.86299	0.05123
2720.93461	0.05199
2719.00624	0.05279
2717.07787	0.05353
2715.14950	0.05424
2713.22112	0.05489
2711.29275	0.05554
2709.36438	0.05626
2707.43600	0.05695
2705.50763	0.05757
2703.57926	0.05805
2701.65088	0.05831
2699.72251	0.05863
2697.79414	0.05927
2695.86576	0.06011
2693.93739	0.06089
2692.00902	0.06158
2690.08064	0.06220
2688.15227	0.06268
2686.22390	0.06314
2684.29552	0.06364
2682.36715	0.06408
2680.43878	0.06459
2678.51040	0.06527
2676.58203	0.06605
2674.65366	0.06680
2672.72528	0.06756
2670.79691	0.06837
2668.86854	0.06911
2666.94016	0.06979
2665.01179	0.07055
2663.08342	0.07143
2661.15505	0.07220
2659.22667	0.07282
2657.29830	0.07352
2655.36993	0.07425
2653.44155	0.07474
2651.51318	0.07528
2649.58481	0.07620
2647.65643	0.07718
2645.72806	0.07794
2643.79969	0.07864
2641.87131	0.07955
2639.94294	0.08059
2638.01457	0.08150
2636.08619	0.08215
2634.15782	0.08269
2632.22945	0.08339
2630.30107	0.08425
2628.37270	0.08516
2626.44433	0.08616
2624.51595	0.08723
2622.58758	0.08815
2620.65921	0.08890
2618.73083	0.08982
2616.80246	0.09107
2614.87409	0.09256
2612.94571	0.09401
2611.01734	0.09511
2609.08897	0.09594
2607.16059	0.09672
2605.23222	0.09763
2603.30385	0.09876
2601.37548	0.09990
2599.44710	0.10089
2597.51873	0.10185
2595.59036	0.10280
2593.66198	0.10370
2591.73361	0.10472
2589.80524	0.10579
2587.87686	0.10679
2585.94849	0.10784
2584.02012	0.10897
2582.09174	0.11021
2580.16337	0.11149
2578.23500	0.11259
2576.30662	0.11361
2574.37825	0.11468
2572.44988	0.11563
2570.52150	0.11671
2568.59313	0.11828
2566.66476	0.12001
2564.73638	0.12148
2562.80801	0.12256
2560.87964	0.12335
2558.95126	0.12428
2557.02289	0.12558
2555.09452	0.12700
2553.16614	0.12836
2551.23777	0.12963
2549.30940	0.13082
2547.38103	0.13195
2545.45265	0.13302
2543.52428	0.13396
2541.59591	0.13489
2539.66753	0.13585
2537.73916	0.13670
2535.81079	0.13762
2533.88241	0.13867
2531.95404	0.13963
2530.02567	0.14058
2528.09729	0.14162
2526.16892	0.14257
2524.24055	0.14341
2522.31217	0.14413
2520.38380	0.14485
2518.45543	0.14586
2516.52705	0.14703
2514.59868	0.14804
2512.67031	0.14899
2510.74193	0.15017
2508.81356	0.15151
2506.88519	0.15277
2504.95681	0.15385
2503.02844	0.15474
2501.10007	0.15541
2499.17169	0.15607
2497.24332	0.15703
2495.31495	0.15833
2493.38657	0.15977
2491.45820	0.16096
2489.52983	0.16171
2487.60146	0.16249
2485.67308	0.16353
2483.74471	0.16451
2481.81634	0.16547
2479.88796	0.16664
2477.95959	0.16783
2476.03122	0.16888
2474.10284	0.17008
2472.17447	0.17132
2470.24610	0.17246
2468.31772	0.17372
2466.38935	0.17508
2464.46098	0.17649
2462.53260	0.17797
2460.60423	0.17927
2458.67586	0.18026
2456.74748	0.18123
2454.81911	0.18255
2452.89074	0.18421
2450.96236	0.18593
2449.03399	0.18746
2447.10562	0.18872
2445.17724	0.18999
2443.24887	0.19144
2441.32050	0.19266
2439.39212	0.19359
2437.46375	0.19495
2435.53538	0.19680
2433.60700	0.19828
2431.67863	0.19927
2429.75026	0.20033
2427.82189	0.20143
2425.89351	0.20249
2423.96514	0.20370
2422.03677	0.20487
2420.10839	0.20597
2418.18002	0.20714
2416.25165	0.20812
2414.32327	0.20876
2412.39490	0.20962
2410.46653	0.21105
2408.53815	0.21291
2406.60978	0.21486
2404.68141	0.21637
2402.75303	0.21739
2400.82466	0.21861
2398.89629	0.22019
2396.96791	0.22174
2395.03954	0.22319
2393.11117	0.22465
2391.18279	0.22613
2389.25442	0.22761
2387.32605	0.22912
2385.39767	0.23066
2383.46930	0.23228
2381.54093	0.23412
2379.61255	0.23646
2377.68418	0.23915
2375.75581	0.24155
2373.82744	0.24373
2371.89906	0.24646
2369.97069	0.25046
2368.04232	0.25572
2366.11394	0.26060
2364.18557	0.26334
2362.25720	0.26415
2360.32882	0.26506
2358.40045	0.26649
2356.47208	0.26669
2354.54370	0.26571
2352.61533	0.26424
2350.68696	0.26297
2348.75858	0.26303
2346.83021	0.26487
2344.90184	0.26790
2342.97346	0.27038
2341.04509	0.27100
2339.11672	0.27057
2337.18834	0.27063
2335.25997	0.27120
2333.33160	0.27187
2331.40322	0.27254
2329.47485	0.27291
2327.54648	0.27308
2325.61810	0.27311
2323.68973	0.27319
2321.76136	0.27330
2319.83298	0.27300
2317.90461	0.27257
2315.97624	0.27248
2314.04787	0.27270
2312.11949	0.27335
2310.19112	0.27441
2308.26275	0.27538
2306.33437	0.27603
2304.40600	0.27658
2302.47763	0.27719
2300.54925	0.27796
2298.62088	0.27885
2296.69251	0.27972
2294.76413	0.28053
2292.83576	0.28120
2290.90739	0.28166
2288.97901	0.28213
2287.05064	0.28287
2285.12227	0.28378
2283.19389	0.28461
2281.26552	0.28533
2279.33715	0.28618
2277.40877	0.28716
2275.48040	0.28802
2273.55203	0.28856
2271.62365	0.28897
2269.69528	0.28955
2267.76691	0.29022
2265.83853	0.29094
2263.91016	0.29168
2261.98179	0.29221
2260.05342	0.29263
2258.12504	0.29334
2256.19667	0.29421
2254.26830	0.29484
2252.33992	0.29541
2250.41155	0.29619
2248.48318	0.29703
2246.55480	0.29778
2244.62643	0.29849
2242.69806	0.29926
2240.76968	0.30000
2238.84131	0.30058
2236.91294	0.30097
2234.98456	0.30131
2233.05619	0.30177
2231.12782	0.30233
2229.19944	0.30278
2227.27107	0.30312
2225.34270	0.30353
2223.41432	0.30412
2221.48595	0.30470
2219.55758	0.30501
2217.62920	0.30515
2215.70083	0.30528
2213.77246	0.30539
2211.84408	0.30549
2209.91571	0.30584
2207.98734	0.30645
2206.05896	0.30704
2204.13059	0.30742
2202.20222	0.30767
2200.27385	0.30788
2198.34547	0.30811
2196.41710	0.30827
2194.48873	0.30828
2192.56035	0.30841
2190.63198	0.30882
2188.70361	0.30918
2186.77523	0.30926
2184.84686	0.30932
2182.91849	0.30948
2180.99011	0.30956
2179.06174	0.30954
2177.13337	0.30968
2175.20499	0.30994
2173.27662	0.31012
2171.34825	0.31026
2169.41987	0.31046
2167.49150	0.31063
2165.56313	0.31058
2163.63475	0.31044
2161.70638	0.31059
2159.77801	0.31111
2157.84963	0.31165
2155.92126	0.31186
2153.99289	0.31184
2152.06451	0.31183
2150.13614	0.31184
2148.20777	0.31195
2146.27940	0.31226
2144.35102	0.31270
2142.42265	0.31310
2140.49428	0.31348
2138.56590	0.31404
2136.63753	0.31464
2134.70916	0.31498
2132.78078	0.31530
2130.85241	0.31588
2128.92404	0.31645
2126.99566	0.31687
2125.06729	0.31740
2123.13892	0.31807
2121.21054	0.31881
2119.28217	0.31954
2117.35380	0.32023
2115.42542	0.32102
2113.49705	0.32180
2111.56868	0.32220
2109.64030	0.32235
2107.71193	0.32273
2105.78356	0.32340
2103.85518	0.32400
2101.92681	0.32438
2099.99844	0.32472
2098.07006	0.32507
2096.14169	0.32540
2094.21332	0.32580
2092.28494	0.32626
2090.35657	0.32665
2088.42820	0.32677
2086.49983	0.32673
2084.57145	0.32670
2082.64308	0.32676
2080.71471	0.32690
2078.78633	0.32715
2076.85796	0.32745
2074.92959	0.32753
2073.00121	0.32743
2071.07284	0.32745
2069.14447	0.32764
2067.21609	0.32787
2065.28772	0.32807
2063.35935	0.32829
2061.43097	0.32848
2059.50260	0.32861
2057.57423	0.32885
2055.64585	0.32933
2053.71748	0.32986
2051.78911	0.33026
2049.86073	0.33056
2047.93236	0.33085
2046.00399	0.33126
2044.07561	0.33186
2042.14724	0.33256
2040.21887	0.33313
2038.29049	0.33341
2036.36212	0.33368
2034.43375	0.33431
2032.50538	0.33503
2030.57700	0.33548
2028.64863	0.33583
2026.72026	0.33616
2024.79188	0.33635
2022.86351	0.33659
2020.93514	0.33703
2019.00676	0.33736
2017.07839	0.33738
2015.15002	0.33726
2013.22164	0.33729
2011.29327	0.33755
2009.36490	0.33799
2007.43652	0.33856
2005.50815	0.33913
2003.57978	0.33956
2001.65140	0.33993
1999.72303	0.34037
1997.79466	0.34098
1995.86628	0.34167
1993.93791	0.34222
1992.00954	0.34249
1990.08116	0.34253
1988.15279	0.34257
1986.22442	0.34275
1984.29604	0.34289
1982.36767	0.34301
1980.43930	0.34325
1978.51092	0.34344
1976.58255	0.34350
1974.65418	0.34367
1972.72581	0.34397
1970.79743	0.34441
1968.86906	0.34506
1966.94069	0.34555
1965.01231	0.34552
1963.08394	0.34532
1961.15557	0.34535
1959.22719	0.34557
1957.29882	0.34578
1955.37045	0.34598
1953.44207	0.34616
1951.51370	0.34639
1949.58533	0.34682
1947.65695	0.34744
1945.72858	0.34813
1943.80021	0.34875
1941.87183	0.34897
1939.94346	0.34871
1938.01509	0.34848
1936.08671	0.34853
1934.15834	0.34869
1932.22997	0.34886
1930.30159	0.34890
1928.37322	0.34880
1926.44485	0.34890
1924.51647	0.34946
1922.58810	0.35014
1920.65973	0.35055
1918.73135	0.35081
1916.80298	0.35076
1914.87461	0.35037
1912.94624	0.35011
1911.01786	0.35022
1909.08949	0.35030
1907.16112	0.34999
1905.23274	0.34970
1903.30437	0.34971
1901.37600	0.34968
1899.44762	0.34965
1897.51925	0.34976
1895.59088	0.34970
1893.66250	0.34940
1891.73413	0.34933
1889.80576	0.34937
1887.87738	0.34888
1885.94901	0.34806
1884.02064	0.34732
1882.09226	0.34666
1880.16389	0.34612
1878.23552	0.34569
1876.30714	0.34541
1874.37877	0.34528
1872.45040	0.34525
1870.52202	0.34550
1868.59365	0.34557
1866.66528	0.34472
1864.73690	0.34348
1862.80853	0.34251
1860.88016	0.34160
1858.95179	0.34058
1857.02341	0.33978
1855.09504	0.33929
1853.16667	0.33883
1851.23829	0.33833
1849.30992	0.33804
1847.38155	0.33807
1845.45317	0.33809
1843.52480	0.33726
1841.59643	0.33572
1839.66805	0.33448
1837.73968	0.33356
1835.81131	0.33275
1833.88293	0.33224
1831.95456	0.33218
1830.02619	0.33193
1828.09781	0.33075
1826.16944	0.32921
1824.24107	0.32752
1822.31269	0.32557
1820.38432	0.32366
1818.45595	0.32181
1816.52757	0.31981
1814.59920	0.31774
1812.67083	0.31572
1810.74245	0.31322
1808.81408	0.30997
1806.88571	0.30662
1804.95733	0.30360
1803.02896	0.30064
1801.10059	0.29697
1799.17222	0.29232
1797.24384	0.28745
1795.31547	0.28308
1793.38710	0.27843
1791.45872	0.27208
1789.53035	0.26525
1787.60198	0.25935
1785.67360	0.25383
1783.74523	0.24842
1781.81686	0.24315
1779.88848	0.23767
1777.96011	0.23249
1776.03174	0.22838
1774.10336	0.22459
1772.17499	0.21937
1770.24662	0.21276
1768.31824	0.20606
1766.38987	0.19945
1764.46150	0.19335
1762.53312	0.18644
1760.60475	0.17764
1758.67638	0.16810
1756.74800	0.15709
1754.81963	0.14552
1752.89126	0.13418
1750.96288	0.12028
1749.03451	0.10366
1747.10614	0.08801
1745.17777	0.07403
1743.24939	0.06109
1741.32102	0.04894
1739.39265	0.03765
1737.46427	0.02928
1735.53590	0.02350
1733.60753	0.01790
1731.67915	0.01290
1729.75078	0.00909
1727.82241	0.00648
1725.89403	0.00495
1723.96566	0.00387
1722.03729	0.00306
1720.10891	0.00249
1718.18054	0.00188
1716.25217	0.00136
1714.32379	0.00091
1712.39542	0.00105
1710.46705	0.00118
1708.53867	0.00104
1706.61030	0.00095
1704.68193	0.00101
1702.75355	0.00098
1700.82518	0.00089
1698.89681	0.00086
1696.96843	0.00061
1695.04006	0.00053
1693.11169	0.00089
1691.18331	0.00142
1689.25494	0.00162
1687.32657	0.00151
1685.39820	0.00204
1683.46982	0.00217
1681.54145	0.00157
1679.61308	0.00088
1677.68470	0.00038
1675.75633	0.00041
1673.82796	0.00082
1671.89958	0.00067
1669.97121	0.00092
1668.04284	0.00142
1666.11446	0.00141
1664.18609	0.00129
1662.25772	0.00110
1660.32934	0.00099
1658.40097	0.00096
1656.47260	0.00077
1654.54422	0.00080
1652.61585	0.00105
1650.68748	0.00082
1648.75910	0.00087
1646.83073	0.00114
1644.90236	0.00075
1642.97398	0.00063
1641.04561	0.00051
1639.11724	0.00046
1637.18886	0.00099
1635.26049	0.00131
1633.33212	0.00109
1631.40375	0.00082
1629.47537	0.00071
1627.54700	0.00065
1625.61863	0.00067
1623.69025	0.00067
1621.76188	0.00046
1619.83351	0.00053
1617.90513	0.00079
1615.97676	0.00066
1614.04839	0.00068
1612.12001	0.00063
1610.19164	0.00057
1608.26327	0.00053
1606.33489	0.00038
1604.40652	0.00037
1602.47815	0.00056
1600.54977	0.00083
1598.62140	0.00077
1596.69303	0.00066
1594.76465	0.00058
1592.83628	0.00044
1590.90791	0.00022
1588.97953	0.00066
1587.05116	0.00085
1585.12279	0.00076
1583.19441	0.00071
1581.26604	0.00068
1579.33767	0.00079
1577.40929	0.00061
1575.48092	0.00062
1573.55255	0.00035
1571.62418	0.00078
1569.69580	0.00122
1567.76743	0.00084
1565.83906	0.00031
1563.91068	0.00047
1561.98231	0.00060
1560.05394	0.00097
1558.12556	0.00139
1556.19719	0.00128
1554.26882	0.00081
1552.34044	0.00033
1550.41207	0.00046
1548.48370	0.00041
1546.55532	0.00039
1544.62695	0.00077
1542.69858	0.00148
1540.77020	0.00168
1538.84183	0.00100
1536.91346	0.00043
1534.98508	0.00037
1533.05671	0.00049
1531.12834	0.00054
1529.19996	0.00069
1527.27159	0.00083
1525.34322	0.00083
1523.41484	0.00102
1521.48647	0.00136
1519.55810	0.00074
1517.62972	0.00059
1515.70135	0.00101
1513.77298	0.00095
1511.84461	0.00082
1509.91623	0.00057
1507.98786	0.00110
1506.05949	0.00118
1504.13111	0.00103
1502.20274	0.00105
1500.27437	0.00129
1498.34599	0.00169
1496.41762	0.00243
1494.48925	0.00329
1492.56087	0.00384
1490.63250	0.00441
1488.70413	0.00524
1486.77575	0.00594
1484.84738	0.00647
1482.91901	0.00718
1480.99063	0.00784
1479.06226	0.00774
1477.13389	0.00695
1475.20551	0.00637
1473.27714	0.00644
1471.34877	0.00637
1469.42039	0.00571
1467.49202	0.00486
1465.56365	0.00413
1463.63527	0.00353
1461.70690	0.00295
1459.77853	0.00250
1457.85016	0.00210
1455.92178	0.00131
1453.99341	0.00076
1452.06504	0.00140
1450.13666	0.00176
1448.20829	0.00160
1446.27992	0.00128
1444.35154	0.00139
1442.42317	0.00175
1440.49480	0.00206
1438.56642	0.00229
1436.63805	0.00200
1434.70968	0.00118
1432.78130	0.00098
1430.85293	0.00125
1428.92456	0.00170
1426.99618	0.00191
1425.06781	0.00209
1423.13944	0.00237
1421.21106	0.00234
1419.28269	0.00171
1417.35432	0.00126
1415.42594	0.00163
1413.49757	0.00225
1411.56920	0.00226
1409.64082	0.00162
1407.71245	0.00119
1405.78408	0.00103
1403.85570	0.00105
1401.92733	0.00112
1399.99896	0.00112
1398.07059	0.00102
1396.14221	0.00108
1394.21384	0.00122
1392.28547	0.00107
1390.35709	0.00086
1388.42872	0.00097
1386.50035	0.00088
1384.57197	0.00064
1382.64360	0.00091
1380.71523	0.00108
1378.78685	0.00080
1376.85848	0.00084
1374.93011	0.00124
1373.00173	0.00104
1371.07336	0.00070
1369.14499	0.00121
1367.21661	0.00176
1365.28824	0.00201
1363.35987	0.00233
1361.43149	0.00283
1359.50312	0.00342
1357.57475	0.00387
1355.64637	0.00422
1353.71800	0.00452
1351.78963	0.00490
1349.86125	0.00524
1347.93288	0.00537
1346.00451	0.00520
1344.07614	0.00501
1342.14776	0.00509
1340.21939	0.00530
1338.29102	0.00513
1336.36264	0.00452
1334.43427	0.00405
1332.50590	0.00397
1330.57752	0.00391
1328.64915	0.00351
1326.72078	0.00305
1324.79240	0.00287
1322.86403	0.00291
1320.93566	0.00289
1319.00728	0.00283
1317.07891	0.00291
1315.15054	0.00308
1313.22216	0.00328
1311.29379	0.00332
1309.36542	0.00309
1307.43704	0.00297
1305.50867	0.00311
1303.58030	0.00304
1301.65192	0.00280
1299.72355	0.00306
1297.79518	0.00360
1295.86680	0.00388
1293.93843	0.00399
1292.01006	0.00405
1290.08168	0.00397
1288.15331	0.00393
1286.22494	0.00412
1284.29657	0.00422
1282.36819	0.00413
1280.43982	0.00419
1278.51145	0.00437
1276.58307	0.00436
1274.65470	0.00429
1272.72633	0.00423
1270.79795	0.00407
1268.86958	0.00379
1266.94121	0.00354
1265.01283	0.00311
1263.08446	0.00236
1261.15609	0.00174
1259.22771	0.00178
1257.29934	0.00241
1255.37097	0.00302
1253.44259	0.00322
1251.51422	0.00341
1249.58585	0.00380
1247.65747	0.00421
1245.72910	0.00448
1243.80073	0.00474
1241.87235	0.00512
1239.94398	0.00536
1238.01561	0.00514
1236.08723	0.00485
1234.15886	0.00511
1232.23049	0.00609
1230.30212	0.00736
1228.37374	0.00798
1226.44537	0.00782
1224.51700	0.00765
1222.58862	0.00745
1220.66025	0.00713
1218.73188	0.00791
1216.80350	0.00941
1214.87513	0.00989
1212.94676	0.00920
1211.01838	0.00851
1209.09001	0.00845
1207.16164	0.00843
1205.23326	0.00830
1203.30489	0.00929
1201.37652	0.01135
1199.44814	0.01314
1197.51977	0.01433
1195.59140	0.01528
1193.66302	0.01634
1191.73465	0.01744
1189.80628	0.01803
1187.87790	0.01792
1185.94953	0.01754
1184.02116	0.01699
1182.09278	0.01587
1180.16441	0.01469
1178.23604	0.01392
1176.30766	0.01269
1174.37929	0.01061
1172.45092	0.00842
1170.52255	0.00693
1168.59417	0.00552
1166.66580	0.00310
1164.73743	0.00106
1162.80905	0.00134
1160.88068	0.00082
1158.95231	0.00047
1157.02393	0.00036
1155.09556	0.00056
1153.16719	0.00159
1151.23881	0.00336
1149.31044	0.00555
1147.38207	0.00784
1145.45369	0.00996
1143.52532	0.01195
1141.59695	0.01351
1139.66857	0.01398
1137.74020	0.01341
1135.81183	0.01243
1133.88345	0.01150
1131.95508	0.01018
1130.02671	0.00794
1128.09833	0.00539
1126.16996	0.00350
1124.24159	0.00256
1122.31321	0.00226
1120.38484	0.00201
1118.45647	0.00121
1116.52809	0.00081
1114.59972	0.00154
1112.67135	0.00292
1110.74298	0.00398
1108.81460	0.00472
1106.88623	0.00458
1104.95786	0.00398
1103.02948	0.00384
1101.10111	0.00408
1099.17274	0.00433
1097.24436	0.00430
1095.31599	0.00350
1093.38762	0.00249
1091.45924	0.00208
1089.53087	0.00228
1087.60250	0.00224
1085.67412	0.00178
1083.74575	0.00136
1081.81738	0.00110
1079.88900	0.00093
1077.96063	0.00101
1076.03226	0.00092
1074.10388	0.00135
1072.17551	0.00182
1070.24714	0.00172
1068.31876	0.00158
1066.39039	0.00180
1064.46202	0.00226
1062.53364	0.00268
1060.60527	0.00272
1058.67690	0.00285
1056.74853	0.00335
1054.82015	0.00396
1052.89178	0.00426
1050.96341	0.00416
1049.03503	0.00425
1047.10666	0.00429
1045.17829	0.00386
1043.24991	0.00334
1041.32154	0.00280
1039.39317	0.00218
1037.46479	0.00199
1035.53642	0.00219
1033.60805	0.00228
1031.67967	0.00188
1029.75130	0.00161
1027.82293	0.00142
1025.89455	0.00109
1023.96618	0.00093
1022.03781	0.00126
1020.10943	0.00162
1018.18106	0.00212
1016.25269	0.00291
1014.32431	0.00367
1012.39594	0.00430
1010.46757	0.00533
1008.53919	0.00720
1006.61082	0.00987
1004.68245	0.01316
1002.75407	0.01677
1000.82570	0.02022
998.89733	0.02337
996.96896	0.02630
995.04058	0.02927
993.11221	0.03259
991.18384	0.03631
989.25546	0.04000
987.32709	0.04299
985.39872	0.04477
983.47034	0.04488
981.54197	0.04336
979.61360	0.04104
977.68522	0.03942
975.75685	0.03974
973.82848	0.04176
971.90010	0.04508
969.97173	0.05003
968.04336	0.05610
966.11498	0.06162
964.18661	0.06486
962.25824	0.06381
960.32986	0.05712
958.40149	0.04733
956.47312	0.03944
954.54474	0.03631
952.61637	0.03819
950.68800	0.04393
948.75962	0.05204
946.83125	0.06110
944.90288	0.06928
942.97451	0.07550
941.04613	0.08014
939.11776	0.08409
937.18939	0.08795
935.26101	0.09110
933.33264	0.09239
931.40427	0.09217
929.47589	0.09136
927.54752	0.09034
925.61915	0.08967
923.69077	0.08919
921.76240	0.08821
919.83403	0.08722
917.90565	0.08756
915.97728	0.08934
914.04891	0.09077
912.12053	0.09067
910.19216	0.08923
908.26379	0.08598
906.33541	0.08061
904.40704	0.07441
902.47867	0.06893
900.55029	0.06475
898.62192	0.06139
896.69355	0.05841
894.76517	0.05691
892.83680	0.05797
890.90843	0.06090
888.98005	0.06380
887.05168	0.06553
885.12331	0.06655
883.19494	0.06692
881.26656	0.06659
879.33819	0.06684
877.40982	0.06800
875.48144	0.06846
873.55307	0.06798
871.62470	0.06790
869.69632	0.06843
867.76795	0.06883
865.83958	0.06895
863.91120	0.06910
861.98283	0.06876
860.05446	0.06736
858.12608	0.06563
856.19771	0.06361
854.26934	0.06122
852.34096	0.05941
850.41259	0.05887
848.48422	0.05911
846.55584	0.05854
844.62747	0.05670
842.69910	0.05516
840.77072	0.05507
838.84235	0.05529
836.91398	0.05437
834.98560	0.05289
833.05723	0.05139
831.12886	0.04924
829.20049	0.04697
827.27211	0.04580
825.34374	0.04535
823.41537	0.04457
821.48699	0.04368
819.55862	0.04258
817.63025	0.04099
815.70187	0.03991
813.77350	0.03986
811.84513	0.04004
809.91675	0.03963
807.98838	0.03881
806.06001	0.03774
804.13163	0.03598
802.20326	0.03356
800.27489	0.03105
798.34651	0.02900
796.41814	0.02786
794.48977	0.02711
792.56139	0.02650
790.63302	0.02648
788.70465	0.02663
786.77627	0.02611
784.84790	0.02475
782.91953	0.02311
780.99115	0.02224
779.06278	0.02247
777.13441	0.02235
775.20603	0.02087
773.27766	0.01907
771.34929	0.01800
769.42092	0.01779
767.49254	0.01825
765.56417	0.01829
763.63580	0.01758
761.70742	0.01747
759.77905	0.01729
757.85068	0.01570
755.92230	0.01341
753.99393	0.01157
752.06556	0.01111
750.13718	0.01194
748.20881	0.01303
746.28044	0.01376
744.35206	0.01421
742.42369	0.01425
740.49532	0.01371
738.56694	0.01349
736.63857	0.01398
734.71020	0.01459
732.78182	0.01487
730.85345	0.01444
728.92508	0.01326
726.99670	0.01217
725.06833	0.01201
723.13996	0.01233
721.21158	0.01161
719.28321	0.01074
717.35484	0.01088
715.42647	0.01068
713.49809	0.00921
711.56972	0.00832
709.64135	0.00829
707.71297	0.00849
705.78460	0.00799
703.85623	0.00767
701.92785	0.00829
699.99948	0.00977
698.07111	0.01096
696.14273	0.01119
694.21436	0.01079
692.28599	0.01016
690.35761	0.01039
688.42924	0.01187
686.50087	0.01266
684.57249	0.01251
682.64412	0.01291
680.71575	0.01397
678.78737	0.01392
676.85900	0.01293
674.93063	0.01271
673.00225	0.01344
671.07388	0.01452
669.14551	0.01613
667.21713	0.01565
665.28876	0.01429
663.36039	0.01534
661.43201	0.01634
659.50364	0.01505
657.57527	0.01301
655.64690	0.01232
653.71852	0.01212
651.79015	0.01060
649.86178	0.00963
647.93340	0.01178
646.00503	0.01402
644.07666	0.01489
642.14828	0.01306
640.21991	0.00778
638.29154	0.00414
636.36316	0.00354
634.43479	0.00352
632.50642	0.00471
630.57804	0.00591
628.64967	0.00513
626.72130	0.00405
624.79292	0.00503
622.86455	0.00852
620.93618	0.01034
619.00780	0.00873
617.07943	0.00516
615.15106	0.00601
613.22268	0.00896
611.29431	0.00892
609.36594	0.00595
607.43756	0.00621
605.50919	0.00780
603.58082	0.01014
601.65244	0.00743
599.72407	0.00959
