3997.51769	0.34573
3995.58931	0.34598
3993.66094	0.34634
3991.73257	0.34672
3989.80419	0.34659
3987.87582	0.34608
3985.94745	0.34609
3984.01907	0.34638
3982.09070	0.34651
3980.16233	0.34703
3978.23396	0.34763
3976.30558	0.34746
3974.37721	0.34671
3972.44884	0.34622
3970.52046	0.34663
3968.59209	0.34741
3966.66372	0.34759
3964.73534	0.34743
3962.80697	0.34779
3960.87860	0.34866
3958.95022	0.34943
3957.02185	0.34984
3955.09348	0.35032
3953.16510	0.35121
3951.23673	0.35264
3949.30836	0.35396
3947.37998	0.35397
3945.45161	0.35319
3943.52324	0.35285
3941.59486	0.35308
3939.66649	0.35361
3937.73812	0.35407
3935.80974	0.35459
3933.88137	0.35571
3931.95300	0.35689
3930.02462	0.35731
3928.09625	0.35765
3926.16788	0.35846
3924.23950	0.35899
3922.31113	0.35893
3920.38276	0.35924
3918.45439	0.36025
3916.52601	0.36092
3914.59764	0.36070
3912.66927	0.36037
3910.74089	0.36058
3908.81252	0.36179
3906.88415	0.36445
3904.95577	0.36739
3903.02740	0.36798
3901.09903	0.36679
3899.17065	0.36605
3897.24228	0.36564
3895.31391	0.36542
3893.38553	0.36547
3891.45716	0.36518
3889.52879	0.36482
3887.60041	0.36547
3885.67204	0.36676
3883.74367	0.36776
3881.81529	0.36830
3879.88692	0.36778
3877.95855	0.36692
3876.03017	0.36735
3874.10180	0.36871
3872.17343	0.37022
3870.24505	0.37139
3868.31668	0.37114
3866.38831	0.37095
3864.45994	0.37197
3862.53156	0.37222
3860.60319	0.37146
3858.67482	0.37151
3856.74644	0.37314
3854.81807	0.37677
3852.88970	0.37899
3850.96132	0.37612
3849.03295	0.37368
3847.10458	0.37355
3845.17620	0.37474
3843.24783	0.37606
3841.31946	0.37710
3839.39108	0.37803
3837.46271	0.37798
3835.53434	0.37707
3833.60596	0.37663
3831.67759	0.37648
3829.74922	0.37651
3827.82084	0.37712
3825.89247	0.37800
3823.96410	0.37909
3822.03572	0.38100
3820.10735	0.38235
3818.17898	0.38216
3816.25060	0.38135
3814.32223	0.37967
3812.39386	0.37813
3810.46548	0.37785
3808.53711	0.37876
3806.60874	0.37972
3804.68037	0.38019
3802.75199	0.38123
3800.82362	0.38152
3798.89525	0.38009
3796.96687	0.37860
3795.03850	0.37704
3793.11013	0.37590
3791.18175	0.37591
3789.25338	0.37648
3787.32501	0.37694
3785.39663	0.37705
3783.46826	0.37657
3781.53989	0.37586
3779.61151	0.37539
3777.68314	0.37491
3775.75477	0.37453
3773.82639	0.37462
3771.89802	0.37514
3769.96965	0.37577
3768.04127	0.37594
3766.11290	0.37568
3764.18453	0.37536
3762.25615	0.37546
3760.32778	0.37617
3758.39941	0.37661
3756.47103	0.37647
3754.54266	0.37707
3752.61429	0.37924
3750.68591	0.38097
3748.75754	0.38005
3746.82917	0.37920
3744.90080	0.37902
3742.97242	0.37791
3741.04405	0.37685
3739.11568	0.37714
3737.18730	0.37896
3735.25893	0.38110
3733.33056	0.38048
3731.40218	0.37738
3729.47381	0.37504
3727.54544	0.37426
3725.61706	0.37403
3723.68869	0.37330
3721.76032	0.37191
3719.83194	0.37008
3717.90357	0.36829
3715.97520	0.36746
3714.04682	0.36773
3712.11845	0.36775
3710.19008	0.36563
3708.26170	0.36244
3706.33333	0.35971
3704.40496	0.35757
3702.47658	0.35537
3700.54821	0.35213
3698.61984	0.34862
3696.69146	0.34553
3694.76309	0.34296
3692.83472	0.34146
3690.90635	0.34030
3688.97797	0.33713
3687.04960	0.33161
3685.12123	0.32604
3683.19285	0.32092
3681.26448	0.31627
3679.33611	0.31260
3677.40773	0.30953
3675.47936	0.30369
3673.55099	0.29519
3671.62261	0.28825
3669.69424	0.27982
3667.76587	0.26980
3665.83749	0.26180
3663.90912	0.25467
3661.98075	0.24722
3660.05237	0.23983
3658.12400	0.23256
3656.19563	0.22399
3654.26725	0.21549
3652.33888	0.20913
3650.41051	0.20280
3648.48213	0.19367
3646.55376	0.18356
3644.62539	0.17515
3642.69701	0.16769
3640.76864	0.16036
3638.84027	0.15339
3636.91189	0.14708
3634.98352	0.14091
3633.05515	0.13455
3631.12678	0.12864
3629.19840	0.12182
3627.27003	0.11377
3625.34166	0.10770
3623.41328	0.10316
3621.48491	0.09870
3619.55654	0.09344
3617.62816	0.08827
3615.69979	0.08416
3613.77142	0.08019
3611.84304	0.07589
3609.91467	0.07144
3607.98630	0.06687
3606.05792	0.06276
3604.12955	0.05960
3602.20118	0.05668
3600.27280	0.05342
3598.34443	0.05028
3596.41606	0.04756
3594.48768	0.04500
3592.55931	0.04261
3590.63094	0.04049
3588.70256	0.03832
3586.77419	0.03583
3584.84582	0.03319
3582.91744	0.03094
3580.98907	0.02925
3579.06070	0.02766
3577.13233	0.02595
3575.20395	0.02417
3573.27558	0.02240
3571.34721	0.02087
3569.41883	0.01955
3567.49046	0.01798
3565.56209	0.01654
3563.63371	0.01600
3561.70534	0.01547
3559.77697	0.01433
3557.84859	0.01297
3555.92022	0.01178
3553.99185	0.01100
3552.06347	0.01033
3550.13510	0.00961
3548.20673	0.00909
3546.27835	0.00872
3544.34998	0.00797
3542.42161	0.00691
3540.49323	0.00606
3538.56486	0.00552
3536.63649	0.00495
3534.70811	0.00455
3532.77974	0.00451
3530.85137	0.00438
3528.92299	0.00409
3526.99462	0.00375
3525.06625	0.00338
3523.13787	0.00313
3521.20950	0.00289
3519.28113	0.00244
3517.35276	0.00215
3515.42438	0.00218
3513.49601	0.00201
3511.56764	0.00146
3509.63926	0.00114
3507.71089	0.00105
3505.78252	0.00133
3503.85414	0.00167
3501.92577	0.00133
3499.99740	0.00097
3498.06902	0.00121
3496.14065	0.00123
3494.21228	0.00080
3492.28390	0.00045
3490.35553	0.00061
3488.42716	0.00084
3486.49878	0.00108
3484.57041	0.00146
3482.64204	0.00172
3480.71366	0.00121
3478.78529	0.00060
3476.85692	0.00103
3474.92854	0.00102
3473.00017	0.00055
3471.07180	0.00060
3469.14342	0.00056
3467.21505	0.00048
3465.28668	0.00044
3463.35831	0.00014
3461.42993	0.00066
3459.50156	0.00117
3457.57319	0.00119
3455.64481	0.00092
3453.71644	0.00116
3451.78807	0.00093
3449.85969	0.00056
3447.93132	0.00103
3446.00295	0.00145
3444.07457	0.00141
3442.14620	0.00109
3440.21783	0.00072
3438.28945	0.00044
3436.36108	0.00039
3434.43271	0.00053
3432.50433	0.00055
3430.57596	0.00027
3428.64759	0.00036
3426.71921	0.00059
3424.79084	0.00080
3422.86247	0.00078
3420.93409	0.00068
3419.00572	0.00079
3417.07735	0.00089
3415.14897	0.00084
3413.22060	0.00046
3411.29223	0.00028
3409.36385	0.00055
3407.43548	0.00095
3405.50711	0.00117
3403.57874	0.00083
3401.65036	0.00030
3399.72199	0.00072
3397.79362	0.00093
3395.86524	0.00085
3393.93687	0.00110
3392.00850	0.00137
3390.08012	0.00117
3388.15175	0.00085
3386.22338	0.00050
3384.29500	0.00057
3382.36663	0.00024
3380.43826	0.00042
3378.50988	0.00080
3376.58151	0.00071
3374.65314	0.00039
3372.72476	0.00025
3370.79639	0.00033
3368.86802	0.00049
3366.93964	0.00058
3365.01127	0.00104
3363.08290	0.00107
3361.15452	0.00118
3359.22615	0.00108
3357.29778	0.00143
3355.36940	0.00130
3353.44103	0.00106
3351.51266	0.00071
3349.58428	0.00040
3347.65591	0.00047
3345.72754	0.00071
3343.79917	0.00091
3341.87079	0.00090
3339.94242	0.00120
3338.01405	0.00113
3336.08567	0.00109
3334.15730	0.00169
3332.22893	0.00191
3330.30055	0.00143
3328.37218	0.00095
3326.44381	0.00109
3324.51543	0.00087
3322.58706	0.00034
3320.65869	0.00014
3318.73031	0.00035
3316.80194	0.00080
3314.87357	0.00109
3312.94519	0.00088
3311.01682	0.00069
3309.08845	0.00127
3307.16007	0.00106
3305.23170	0.00098
3303.30333	0.00116
3301.37495	0.00072
3299.44658	0.00086
3297.51821	0.00099
3295.58983	0.00079
3293.66146	0.00105
3291.73309	0.00150
3289.80472	0.00173
3287.87634	0.00101
3285.94797	0.00060
3284.01960	0.00069
3282.09122	0.00032
3280.16285	0.00031
3278.23448	0.00047
3276.30610	0.00063
3274.37773	0.00087
3272.44936	0.00086
3270.52098	0.00057
3268.59261	0.00035
3266.66424	0.00063
3264.73586	0.00095
3262.80749	0.00079
3260.87912	0.00049
3258.95074	0.00095
3257.02237	0.00159
3255.09400	0.00153
3253.16562	0.00088
3251.23725	0.00027
3249.30888	0.00071
3247.38050	0.00100
3245.45213	0.00066
3243.52376	0.00022
3241.59538	0.00083
3239.66701	0.00100
3237.73864	0.00106
3235.81026	0.00099
3233.88189	0.00072
3231.95352	0.00078
3230.02515	0.00066
3228.09677	0.00058
3226.16840	0.00075
3224.24003	0.00106
3222.31165	0.00104
3220.38328	0.00107
3218.45491	0.00091
3216.52653	0.00067
3214.59816	0.00061
3212.66979	0.00086
3210.74141	0.00065
3208.81304	0.00045
3206.88467	0.00065
3204.95629	0.00087
3203.02792	0.00076
3201.09955	0.00043
3199.17117	0.00073
3197.24280	0.00068
3195.31443	0.00055
3193.38605	0.00086
3191.45768	0.00086
3189.52931	0.00080
3187.60093	0.00132
3185.67256	0.00171
3183.74419	0.00153
3181.81581	0.00082
3179.88744	0.00053
3177.95907	0.00066
3176.03070	0.00040
3174.10232	0.00053
3172.17395	0.00094
3170.24558	0.00101
3168.31720	0.00090
3166.38883	0.00119
3164.46046	0.00146
3162.53208	0.00153
3160.60371	0.00153
3158.67534	0.00163
3156.74696	0.00165
3154.81859	0.00133
3152.89022	0.00106
3150.96184	0.00128
3149.03347	0.00151
3147.10510	0.00151
3145.17672	0.00161
3143.24835	0.00171
3141.31998	0.00144
3139.39160	0.00099
3137.46323	0.00108
3135.53486	0.00115
3133.60648	0.00120
3131.67811	0.00112
3129.74974	0.00114
3127.82136	0.00138
3125.89299	0.00140
3123.96462	0.00161
3122.03624	0.00172
3120.10787	0.00131
3118.17950	0.00093
3116.25113	0.00097
3114.32275	0.00110
3112.39438	0.00130
3110.46601	0.00120
3108.53763	0.00086
3106.60926	0.00058
3104.68089	0.00058
3102.75251	0.00075
3100.82414	0.00083
3098.89577	0.00087
3096.96739	0.00085
3095.03902	0.00129
3093.11065	0.00159
3091.18227	0.00131
3089.25390	0.00092
3087.32553	0.00085
3085.39715	0.00101
3083.46878	0.00120
3081.54041	0.00123
3079.61203	0.00092
3077.68366	0.00067
3075.75529	0.00095
3073.82691	0.00140
3071.89854	0.00160
3069.97017	0.00143
3068.04179	0.00121
3066.11342	0.00143
3064.18505	0.00172
3062.25668	0.00179
3060.32830	0.00197
3058.39993	0.00245
3056.47156	0.00254
3054.54318	0.00222
3052.61481	0.00198
3050.68644	0.00207
3048.75806	0.00220
3046.82969	0.00231
3044.90132	0.00219
3042.97294	0.00194
3041.04457	0.00205
3039.11620	0.00226
3037.18782	0.00246
3035.25945	0.00274
3033.33108	0.00328
3031.40270	0.00351
3029.47433	0.00334
3027.54596	0.00318
3025.61758	0.00319
3023.68921	0.00330
3021.76084	0.00343
3019.83246	0.00351
3017.90409	0.00350
3015.97572	0.00350
3014.04734	0.00378
3012.11897	0.00414
3010.19060	0.00431
3008.26222	0.00461
3006.33385	0.00511
3004.40548	0.00546
3002.47711	0.00538
3000.54873	0.00476
2998.62036	0.00399
2996.69199	0.00372
2994.76361	0.00388
2992.83524	0.00410
2990.90687	0.00417
2988.97849	0.00381
2987.05012	0.00321
2985.12175	0.00285
2983.19337	0.00273
2981.26500	0.00258
2979.33663	0.00247
2977.40825	0.00243
2975.47988	0.00256
2973.55151	0.00306
2971.62313	0.00347
2969.69476	0.00321
2967.76639	0.00265
2965.83801	0.00191
2963.90964	0.00143
2961.98127	0.00146
2960.05289	0.00149
2958.12452	0.00155
2956.19615	0.00194
2954.26777	0.00223
2952.33940	0.00217
2950.41103	0.00253
2948.48266	0.00341
2946.55428	0.00374
2944.62591	0.00338
2942.69754	0.00285
2940.76916	0.00238
2938.84079	0.00241
2936.91242	0.00252
2934.98404	0.00239
2933.05567	0.00211
2931.12730	0.00191
2929.19892	0.00214
2927.27055	0.00268
2925.34218	0.00322
2923.41380	0.00364
2921.48543	0.00388
2919.55706	0.00385
2917.62868	0.00376
2915.70031	0.00357
2913.77194	0.00334
2911.84356	0.00372
2909.91519	0.00451
2907.98682	0.00512
2906.05844	0.00542
2904.13007	0.00549
2902.20170	0.00547
2900.27332	0.00565
2898.34495	0.00601
2896.41658	0.00605
2894.48820	0.00562
2892.55983	0.00525
2890.63146	0.00521
2888.70309	0.00531
2886.77471	0.00531
2884.84634	0.00523
2882.91797	0.00530
2880.98959	0.00536
2879.06122	0.00526
2877.13285	0.00523
2875.20447	0.00549
2873.27610	0.00590
2871.34773	0.00630
2869.41935	0.00662
2867.49098	0.00698
2865.56261	0.00775
2863.63423	0.00871
2861.70586	0.00937
2859.77749	0.00980
2857.84911	0.01036
2855.92074	0.01123
2853.99237	0.01213
2852.06399	0.01282
2850.13562	0.01320
2848.20725	0.01352
2846.27887	0.01419
2844.35050	0.01504
2842.42213	0.01568
2840.49375	0.01605
2838.56538	0.01637
2836.63701	0.01676
2834.70863	0.01720
2832.78026	0.01766
2830.85189	0.01825
2828.92352	0.01879
2826.99514	0.01890
2825.06677	0.01885
2823.13840	0.01901
2821.21002	0.01921
2819.28165	0.01933
2817.35328	0.01956
2815.42490	0.01992
2813.49653	0.02025
2811.56816	0.02056
2809.63978	0.02110
2807.71141	0.02179
2805.78304	0.02239
2803.85466	0.02270
2801.92629	0.02292
2799.99792	0.02351
2798.06954	0.02437
2796.14117	0.02490
2794.21280	0.02495
2792.28442	0.02511
2790.35605	0.02581
2788.42768	0.02668
2786.49930	0.02724
2784.57093	0.02754
2782.64256	0.02779
2780.71418	0.02814
2778.78581	0.02857
2776.85744	0.02897
2774.92907	0.02933
2773.00069	0.02969
2771.07232	0.03012
2769.14395	0.03073
2767.21557	0.03142
2765.28720	0.03216
2763.35883	0.03285
2761.43045	0.03324
2759.50208	0.03340
2757.57371	0.03364
2755.64533	0.03415
2753.71696	0.03482
2751.78859	0.03544
2749.86021	0.03612
2747.93184	0.03701
2746.00347	0.03788
2744.07509	0.03840
2742.14672	0.03872
2740.21835	0.03935
2738.28997	0.04032
2736.36160	0.04102
2734.43323	0.04132
2732.50485	0.04177
2730.57648	0.04260
2728.64811	0.04333
2726.71973	0.04379
2724.79136	0.04439
2722.86299	0.04510
2720.93461	0.04572
2719.00624	0.04642
2717.07787	0.04721
2715.14950	0.04788
2713.22112	0.04841
2711.29275	0.04891
2709.36438	0.04945
2707.43600	0.05005
2705.50763	0.05079
2703.57926	0.05161
2701.65088	0.05207
2699.72251	0.05230
2697.79414	0.05270
2695.86576	0.05304
2693.93739	0.05324
2692.00902	0.05364
2690.08064	0.05426
2688.15227	0.05492
2686.22390	0.05555
2684.29552	0.05616
2682.36715	0.05671
2680.43878	0.05737
2678.51040	0.05812
2676.58203	0.05860
2674.65366	0.05910
2672.72528	0.05997
2670.79691	0.06069
2668.86854	0.06113
2666.94016	0.06169
2665.01179	0.06246
2663.08342	0.06340
2661.15505	0.06430
2659.22667	0.06480
2657.29830	0.06502
2655.36993	0.06522
2653.44155	0.06567
2651.51318	0.06646
2649.58481	0.06728
2647.65643	0.06799
2645.72806	0.06884
2643.79969	0.06976
2641.87131	0.07037
2639.94294	0.07058
2638.01457	0.07073
2636.08619	0.07116
2634.15782	0.07187
2632.22945	0.07271
2630.30107	0.07360
2628.37270	0.07435
2626.44433	0.07485
2624.51595	0.07542
2622.58758	0.07640
2620.65921	0.07767
2618.73083	0.07879
2616.80246	0.07955
2614.87409	0.08033
2612.94571	0.08130
2611.01734	0.08215
2609.08897	0.08283
2607.16059	0.08370
2605.23222	0.08495
2603.30385	0.08636
2601.37548	0.08744
2599.44710	0.08803
2597.51873	0.08841
2595.59036	0.08892
2593.66198	0.08955
2591.73361	0.09022
2589.80524	0.09106
2587.87686	0.09219
2585.94849	0.09357
2584.02012	0.09486
2582.09174	0.09579
2580.16337	0.09646
2578.23500	0.09716
2576.30662	0.09798
2574.37825	0.09882
2572.44988	0.09962
2570.52150	0.10036
2568.59313	0.10111
2566.66476	0.10230
2564.73638	0.10387
2562.80801	0.10519
2560.87964	0.10611
2558.95126	0.10704
2557.02289	0.10809
2555.09452	0.10901
2553.16614	0.10976
2551.23777	0.11070
2549.30940	0.11194
2547.38103	0.11312
2545.45265	0.11393
2543.52428	0.11440
2541.59591	0.11501
2539.66753	0.11597
2537.73916	0.11669
2535.81079	0.11712
2533.88241	0.11768
2531.95404	0.11822
2530.02567	0.11889
2528.09729	0.11989
2526.16892	0.12093
2524.24055	0.12201
2522.31217	0.12313
2520.38380	0.12412
2518.45543	0.12494
2516.52705	0.12566
2514.59868	0.12639
2512.67031	0.12715
2510.74193	0.12797
2508.81356	0.12908
2506.88519	0.13037
2504.95681	0.13132
2503.02844	0.13186
2501.10007	0.13260
2499.17169	0.13369
2497.24332	0.13456
2495.31495	0.13518
2493.38657	0.13617
2491.45820	0.13744
2489.52983	0.13841
2487.60146	0.13916
2485.67308	0.14008
2483.74471	0.14120
2481.81634	0.14222
2479.88796	0.14292
2477.95959	0.14353
2476.03122	0.14449
2474.10284	0.14576
2472.17447	0.14679
2470.24610	0.14743
2468.31772	0.14808
2466.38935	0.14908
2464.46098	0.15043
2462.53260	0.15186
2460.60423	0.15302
2458.67586	0.15389
2456.74748	0.15487
2454.81911	0.15612
2452.89074	0.15722
2450.96236	0.15804
2449.03399	0.15892
2447.10562	0.15999
2445.17724	0.16110
2443.24887	0.16218
2441.32050	0.16314
2439.39212	0.16390
2437.46375	0.16468
2435.53538	0.16577
2433.60700	0.16701
2431.67863	0.16829
2429.75026	0.16954
2427.82189	0.17058
2425.89351	0.17143
2423.96514	0.17233
2422.03677	0.17321
2420.10839	0.17399
2418.18002	0.17490
2416.25165	0.17600
2414.32327	0.17691
2412.39490	0.17766
2410.46653	0.17885
2408.53815	0.18047
2406.60978	0.18181
2404.68141	0.18270
2402.75303	0.18368
2400.82466	0.18492
2398.89629	0.18607
2396.96791	0.18713
2395.03954	0.18834
2393.11117	0.18962
2391.18279	0.19076
2389.25442	0.19180
2387.32605	0.19290
2385.39767	0.19420
2383.46930	0.19566
2381.54093	0.19726
2379.61255	0.19915
2377.68418	0.20121
2375.75581	0.20293
2373.82744	0.20459
2371.89906	0.20693
2369.97069	0.20981
2368.04232	0.21266
2366.11394	0.21523
2364.18557	0.21748
2362.25720	0.21954
2360.32882	0.22161
2358.40045	0.22271
2356.47208	0.22161
2354.54370	0.21943
2352.61533	0.21753
2350.68696	0.21619
2348.75858	0.21609
2346.83021	0.21769
2344.90184	0.22044
2342.97346	0.22229
2341.04509	0.22244
2339.11672	0.22226
2337.18834	0.22220
2335.25997	0.22222
2333.33160	0.22284
2331.40322	0.22386
2329.47485	0.22487
2327.54648	0.22578
2325.61810	0.22612
2323.68973	0.22546
2321.76136	0.22411
2319.83298	0.22305
2317.90461	0.22282
2315.97624	0.22308
2314.04787	0.22361
2312.11949	0.22415
2310.19112	0.22447
2308.26275	0.22486
2306.33437	0.22549
2304.40600	0.22635
2302.47763	0.22740
2300.54925	0.22823
2298.62088	0.22864
2296.69251	0.22892
2294.76413	0.22931
2292.83576	0.23000
2290.90739	0.23085
2288.97901	0.23134
2287.05064	0.23154
2285.12227	0.23186
2283.19389	0.23222
2281.26552	0.23253
2279.33715	0.23289
2277.40877	0.23327
2275.48040	0.23356
2273.55203	0.23383
2271.62365	0.23425
2269.69528	0.23470
2267.76691	0.23494
2265.83853	0.23499
2263.91016	0.23500
2261.98179	0.23508
2260.05342	0.23526
2258.12504	0.23561
2256.19667	0.23609
2254.26830	0.23639
2252.33992	0.23660
2250.41155	0.23679
2248.48318	0.23688
2246.55480	0.23698
2244.62643	0.23710
2242.69806	0.23731
2240.76968	0.23779
2238.84131	0.23820
2236.91294	0.23823
2234.98456	0.23819
2233.05619	0.23830
2231.12782	0.23839
2229.19944	0.23845
2227.27107	0.23858
2225.34270	0.23873
2223.41432	0.23882
2221.48595	0.23891
2219.55758	0.23913
2217.62920	0.23938
2215.70083	0.23957
2213.77246	0.23987
2211.84408	0.24020
2209.91571	0.24033
2207.98734	0.24058
2206.05896	0.24106
2204.13059	0.24140
2202.20222	0.24161
2200.27385	0.24186
2198.34547	0.24207
2196.41710	0.24220
2194.48873	0.24231
2192.56035	0.24241
2190.63198	0.24262
2188.70361	0.24296
2186.77523	0.24322
2184.84686	0.24328
2182.91849	0.24319
2180.99011	0.24314
2179.06174	0.24311
2177.13337	0.24302
2175.20499	0.24292
2173.27662	0.24291
2171.34825	0.24283
2169.41987	0.24264
2167.49150	0.24244
2165.56313	0.24221
2163.63475	0.24195
2161.70638	0.24170
2159.77801	0.24149
2157.84963	0.24132
2155.92126	0.24113
2153.99289	0.24092
2152.06451	0.24071
2150.13614	0.24055
2148.20777	0.24047
2146.27940	0.24035
2144.35102	0.24024
2142.42265	0.24024
2140.49428	0.24020
2138.56590	0.24020
2136.63753	0.24040
2134.70916	0.24066
2132.78078	0.24076
2130.85241	0.24088
2128.92404	0.24129
2126.99566	0.24181
2125.06729	0.24212
2123.13892	0.24232
2121.21054	0.24266
2119.28217	0.24308
2117.35380	0.24352
2115.42542	0.24393
2113.49705	0.24426
2111.56868	0.24455
2109.64030	0.24489
2107.71193	0.24538
2105.78356	0.24596
2103.85518	0.24655
2101.92681	0.24723
2099.99844	0.24799
2098.07006	0.24839
2096.14169	0.24833
2094.21332	0.24840
2092.28494	0.24874
2090.35657	0.24905
2088.42820	0.24930
2086.49983	0.24948
2084.57145	0.24956
2082.64308	0.24965
2080.71471	0.24964
2078.78633	0.24945
2076.85796	0.24936
2074.92959	0.24953
2073.00121	0.24973
2071.07284	0.24967
2069.14447	0.24936
2067.21609	0.24900
2065.28772	0.24873
2063.35935	0.24855
2061.43097	0.24858
2059.50260	0.24885
2057.57423	0.24907
2055.64585	0.24918
2053.71748	0.24945
2051.78911	0.24986
2049.86073	0.25012
2047.93236	0.25016
2046.00399	0.25017
2044.07561	0.25041
2042.14724	0.25087
2040.21887	0.25130
2038.29049	0.25152
2036.36212	0.25149
2034.43375	0.25140
2032.50538	0.25155
2030.57700	0.25196
2028.64863	0.25231
2026.72026	0.25253
2024.79188	0.25275
2022.86351	0.25307
2020.93514	0.25345
2019.00676	0.25375
2017.07839	0.25385
2015.15002	0.25390
2013.22164	0.25421
2011.29327	0.25470
2009.36490	0.25512
2007.43652	0.25544
2005.50815	0.25577
2003.57978	0.25627
2001.65140	0.25691
1999.72303	0.25737
1997.79466	0.25750
1995.86628	0.25767
1993.93791	0.25817
1992.00954	0.25875
1990.08116	0.25909
1988.15279	0.25926
1986.22442	0.25933
1984.29604	0.25928
1982.36767	0.25925
1980.43930	0.25934
1978.51092	0.25947
1976.58255	0.25956
1974.65418	0.25966
1972.72581	0.25986
1970.79743	0.26019
1968.86906	0.26051
1966.94069	0.26060
1965.01231	0.26048
1963.08394	0.26024
1961.15557	0.25996
1959.22719	0.25985
1957.29882	0.26005
1955.37045	0.26038
1953.44207	0.26068
1951.51370	0.26083
1949.58533	0.26080
1947.65695	0.26083
1945.72858	0.26116
1943.80021	0.26173
1941.87183	0.26199
1939.94346	0.26174
1938.01509	0.26140
1936.08671	0.26137
1934.15834	0.26174
1932.22997	0.26220
1930.30159	0.26242
1928.37322	0.26236
1926.44485	0.26234
1924.51647	0.26279
1922.58810	0.26343
1920.65973	0.26373
1918.73135	0.26400
1916.80298	0.26435
1914.87461	0.26440
1912.94624	0.26435
1911.01786	0.26455
1909.08949	0.26486
1907.16112	0.26499
1905.23274	0.26495
1903.30437	0.26495
1901.37600	0.26514
1899.44762	0.26534
1897.51925	0.26529
1895.59088	0.26509
1893.66250	0.26495
1891.73413	0.26508
1889.80576	0.26543
1887.87738	0.26538
1885.94901	0.26478
1884.02064	0.26404
1882.09226	0.26348
1880.16389	0.26323
1878.23552	0.26314
1876.30714	0.26303
1874.37877	0.26282
1872.45040	0.26276
1870.52202	0.26317
1868.59365	0.26352
1866.66528	0.26271
1864.73690	0.26120
1862.80853	0.25999
1860.88016	0.25928
1858.95179	0.25884
1857.02341	0.25838
1855.09504	0.25790
1853.16667	0.25760
1851.23829	0.25749
1849.30992	0.25759
1847.38155	0.25792
1845.45317	0.25820
1843.52480	0.25779
1841.59643	0.25689
1839.66805	0.25627
1837.73968	0.25593
1835.81131	0.25569
1833.88293	0.25565
1831.95456	0.25594
1830.02619	0.25617
1828.09781	0.25583
1826.16944	0.25521
1824.24107	0.25428
1822.31269	0.25300
1820.38432	0.25172
1818.45595	0.25045
1816.52757	0.24910
1814.59920	0.24770
1812.67083	0.24625
1810.74245	0.24438
1808.81408	0.24206
1806.88571	0.23959
1804.95733	0.23711
1803.02896	0.23465
1801.10059	0.23176
1799.17222	0.22791
1797.24384	0.22357
1795.31547	0.21966
1793.38710	0.21588
1791.45872	0.21093
1789.53035	0.20553
1787.60198	0.20086
1785.67360	0.19654
1783.74523	0.19251
1781.81686	0.18880
1779.88848	0.18482
1777.96011	0.18090
1776.03174	0.17779
1774.10336	0.17513
1772.17499	0.17168
1770.24662	0.16725
1768.31824	0.16268
1766.38987	0.15806
1764.46150	0.15364
1762.53312	0.14855
1760.60475	0.14235
1758.67638	0.13613
1756.74800	0.12856
1754.81963	0.11957
1752.89126	0.11045
1750.96288	0.09977
1749.03451	0.08715
1747.10614	0.07496
1745.17777	0.06352
1743.24939	0.05265
1741.32102	0.04273
1739.39265	0.03382
1737.46427	0.02707
1735.53590	0.02166
1733.60753	0.01563
1731.67915	0.01122
1729.75078	0.00860
1727.82241	0.00642
1725.89403	0.00484
1723.96566	0.00378
1722.03729	0.00293
1720.10891	0.00236
1718.18054	0.00215
1716.25217	0.00191
1714.32379	0.00194
1712.39542	0.00138
1710.46705	0.00060
1708.53867	0.00024
1706.61030	0.00072
1704.68193	0.00095
1702.75355	0.00101
1700.82518	0.00121
1698.89681	0.00170
1696.96843	0.00188
1695.04006	0.00129
1693.11169	0.00063
1691.18331	0.00052
1689.25494	0.00063
1687.32657	0.00062
1685.39820	0.00082
1683.46982	0.00090
1681.54145	0.00057
1679.61308	0.00053
1677.68470	0.00064
1675.75633	0.00085
1673.82796	0.00090
1671.89958	0.00109
1669.97121	0.00119
1668.04284	0.00104
1666.11446	0.00075
1664.18609	0.00045
1662.25772	0.00047
1660.32934	0.00039
1658.40097	0.00032
1656.47260	0.00045
1654.54422	0.00087
1652.61585	0.00084
1650.68748	0.00079
1648.75910	0.00098
1646.83073	0.00104
1644.90236	0.00123
1642.97398	0.00118
1641.04561	0.00101
1639.11724	0.00115
1637.18886	0.00179
1635.26049	0.00189
1633.33212	0.00118
1631.40375	0.00064
1629.47537	0.00029
1627.54700	0.00045
1625.61863	0.00075
1623.69025	0.00066
1621.76188	0.00038
1619.83351	0.00070
1617.90513	0.00088
1615.97676	0.00065
1614.04839	0.00061
1612.12001	0.00065
1610.19164	0.00070
1608.26327	0.00064
1606.33489	0.00058
1604.40652	0.00065
1602.47815	0.00052
1600.54977	0.00045
1598.62140	0.00062
1596.69303	0.00054
1594.76465	0.00068
1592.83628	0.00081
1590.90791	0.00081
1588.97953	0.00081
1587.05116	0.00070
1585.12279	0.00042
1583.19441	0.00047
1581.26604	0.00077
1579.33767	0.00095
1577.40929	0.00088
1575.48092	0.00062
1573.55255	0.00020
1571.62418	0.00042
1569.69580	0.00071
1567.76743	0.00070
1565.83906	0.00053
1563.91068	0.00069
1561.98231	0.00065
1560.05394	0.00067
1558.12556	0.00090
1556.19719	0.00066
1554.26882	0.00040
1552.34044	0.00034
1550.41207	0.00064
1548.48370	0.00071
1546.55532	0.00064
1544.62695	0.00107
1542.69858	0.00133
1540.77020	0.00107
1538.84183	0.00096
1536.91346	0.00073
1534.98508	0.00052
1533.05671	0.00051
1531.12834	0.00025
1529.19996	0.00042
1527.27159	0.00080
1525.34322	0.00094
1523.41484	0.00108
1521.48647	0.00127
1519.55810	0.00132
1517.62972	0.00089
1515.70135	0.00047
1513.77298	0.00026
1511.84461	0.00030
1509.91623	0.00074
1507.98786	0.00096
1506.05949	0.00074
1504.13111	0.00069
1502.20274	0.00075
1500.27437	0.00093
1498.34599	0.00156
1496.41762	0.00194
1494.48925	0.00182
1492.56087	0.00184
1490.63250	0.00248
1488.70413	0.00339
1486.77575	0.00395
1484.84738	0.00444
1482.91901	0.00485
1480.99063	0.00508
1479.06226	0.00516
1477.13389	0.00509
1475.20551	0.00482
1473.27714	0.00395
1471.34877	0.00275
1469.42039	0.00230
1467.49202	0.00230
1465.56365	0.00228
1463.63527	0.00217
1461.70690	0.00196
1459.77853	0.00162
1457.85016	0.00136
1455.92178	0.00125
1453.99341	0.00104
1452.06504	0.00097
1450.13666	0.00099
1448.20829	0.00093
1446.27992	0.00077
1444.35154	0.00063
1442.42317	0.00056
1440.49480	0.00056
1438.56642	0.00037
1436.63805	0.00022
1434.70968	0.00045
1432.78130	0.00093
1430.85293	0.00140
1428.92456	0.00154
1426.99618	0.00137
1425.06781	0.00095
1423.13944	0.00049
1421.21106	0.00049
1419.28269	0.00092
1417.35432	0.00130
1415.42594	0.00134
1413.49757	0.00117
1411.56920	0.00102
1409.64082	0.00104
1407.71245	0.00100
1405.78408	0.00095
1403.85570	0.00111
1401.92733	0.00085
1399.99896	0.00059
1398.07059	0.00064
1396.14221	0.00065
1394.21384	0.00082
1392.28547	0.00118
1390.35709	0.00118
1388.42872	0.00080
1386.50035	0.00062
1384.57197	0.00044
1382.64360	0.00028
1380.71523	0.00087
1378.78685	0.00128
1376.85848	0.00074
1374.93011	0.00065
1373.00173	0.00084
1371.07336	0.00084
1369.14499	0.00078
1367.21661	0.00134
1365.28824	0.00144
1363.35987	0.00181
1361.43149	0.00223
1359.50312	0.00246
1357.57475	0.00271
1355.64637	0.00294
1353.71800	0.00333
1351.78963	0.00378
1349.86125	0.00403
1347.93288	0.00410
1346.00451	0.00397
1344.07614	0.00360
1342.14776	0.00328
1340.21939	0.00314
1338.29102	0.00302
1336.36264	0.00260
1334.43427	0.00200
1332.50590	0.00139
1330.57752	0.00127
1328.64915	0.00149
1326.72078	0.00173
1324.79240	0.00181
1322.86403	0.00198
1320.93566	0.00207
1319.00728	0.00181
1317.07891	0.00131
1315.15054	0.00123
1313.22216	0.00150
1311.29379	0.00143
1309.36542	0.00123
1307.43704	0.00125
1305.50867	0.00145
1303.58030	0.00167
1301.65192	0.00188
1299.72355	0.00228
1297.79518	0.00266
1295.86680	0.00249
1293.93843	0.00203
1292.01006	0.00191
1290.08168	0.00231
1288.15331	0.00294
1286.22494	0.00338
1284.29657	0.00319
1282.36819	0.00254
1280.43982	0.00224
1278.51145	0.00240
1276.58307	0.00243
1274.65470	0.00231
1272.72633	0.00252
1270.79795	0.00240
1268.86958	0.00201
1266.94121	0.00203
1265.01283	0.00221
1263.08446	0.00211
1261.15609	0.00207
1259.22771	0.00227
1257.29934	0.00236
1255.37097	0.00224
1253.44259	0.00232
1251.51422	0.00243
1249.58585	0.00245
1247.65747	0.00258
1245.72910	0.00277
1243.80073	0.00303
1241.87235	0.00320
1239.94398	0.00275
1238.01561	0.00190
1236.08723	0.00231
1234.15886	0.00336
1232.23049	0.00342
1230.30212	0.00331
1228.37374	0.00387
1226.44537	0.00460
1224.51700	0.00517
1222.58862	0.00532
1220.66025	0.00534
1218.73188	0.00567
1216.80350	0.00605
1214.87513	0.00617
1212.94676	0.00647
1211.01838	0.00663
1209.09001	0.00607
1207.16164	0.00544
1205.23326	0.00549
1203.30489	0.00626
1201.37652	0.00743
1199.44814	0.00866
1197.51977	0.00969
1195.59140	0.01044
1193.66302	0.01130
1191.73465	0.01234
1189.80628	0.01331
1187.87790	0.01372
1185.94953	0.01321
1184.02116	0.01223
1182.09278	0.01148
1180.16441	0.01122
1178.23604	0.01086
1176.30766	0.00966
1174.37929	0.00803
1172.45092	0.00663
1170.52255	0.00491
1168.59417	0.00302
1166.66580	0.00207
1164.73743	0.00186
1162.80905	0.00175
1160.88068	0.00161
1158.95231	0.00101
1157.02393	0.00114
1155.09556	0.00210
1153.16719	0.00310
1151.23881	0.00367
1149.31044	0.00416
1147.38207	0.00566
1145.45369	0.00800
1143.52532	0.00977
1141.59695	0.01089
1139.66857	0.01150
1137.74020	0.01123
1135.81183	0.00999
1133.88345	0.00821
1131.95508	0.00672
1130.02671	0.00577
1128.09833	0.00442
1126.16996	0.00252
1124.24159	0.00107
1122.31321	0.00114
1120.38484	0.00047
1118.45647	0.00122
1116.52809	0.00175
1114.59972	0.00184
1112.67135	0.00229
1110.74298	0.00200
1108.81460	0.00173
1106.88623	0.00185
1104.95786	0.00248
1103.02948	0.00360
1101.10111	0.00443
1099.17274	0.00422
1097.24436	0.00353
1095.31599	0.00288
1093.38762	0.00245
1091.45924	0.00194
1089.53087	0.00165
1087.60250	0.00150
1085.67412	0.00127
1083.74575	0.00145
1081.81738	0.00118
1079.88900	0.00185
1077.96063	0.00235
1076.03226	0.00225
1074.10388	0.00152
1072.17551	0.00092
1070.24714	0.00149
1068.31876	0.00128
1066.39039	0.00167
1064.46202	0.00245
1062.53364	0.00223
1060.60527	0.00173
1058.67690	0.00211
1056.74853	0.00241
1054.82015	0.00232
1052.89178	0.00248
1050.96341	0.00334
1049.03503	0.00403
1047.10666	0.00391
1045.17829	0.00323
1043.24991	0.00258
1041.32154	0.00215
1039.39317	0.00158
1037.46479	0.00118
1035.53642	0.00106
1033.60805	0.00093
1031.67967	0.00076
1029.75130	0.00126
1027.82293	0.00155
1025.89455	0.00167
1023.96618	0.00177
1022.03781	0.00189
1020.10943	0.00224
1018.18106	0.00272
1016.25269	0.00300
1014.32431	0.00283
1012.39594	0.00286
1010.46757	0.00400
1008.53919	0.00589
1006.61082	0.00835
1004.68245	0.01112
1002.75407	0.01348
1000.82570	0.01584
998.89733	0.01902
996.96896	0.02248
995.04058	0.02536
993.11221	0.02777
991.18384	0.03037
989.25546	0.03288
987.32709	0.03432
985.39872	0.03462
983.47034	0.03433
981.54197	0.03342
979.61360	0.03229
977.68522	0.03181
975.75685	0.03237
973.82848	0.03441
971.90010	0.03865
969.97173	0.04445
968.04336	0.04972
966.11498	0.05306
964.18661	0.05404
962.25824	0.05208
960.32986	0.04664
958.40149	0.03881
956.47312	0.03198
954.54474	0.02950
952.61637	0.03182
950.68800	0.03707
948.75962	0.04330
946.83125	0.04968
944.90288	0.05560
942.97451	0.06090
941.04613	0.06574
939.11776	0.06946
937.18939	0.07181
935.26101	0.07380
933.33264	0.07567
931.40427	0.07663
929.47589	0.07642
927.54752	0.07560
925.61915	0.07462
923.69077	0.07348
921.76240	0.07252
919.83403	0.07241
917.90565	0.07291
915.97728	0.07363
914.04891	0.07406
912.12053	0.07309
910.19216	0.07076
908.26379	0.06778
906.33541	0.06401
904.40704	0.05962
902.47867	0.05550
900.55029	0.05253
898.62192	0.05076
896.69355	0.04981
894.76517	0.04994
892.83680	0.05113
890.90843	0.05247
888.98005	0.05373
887.05168	0.05543
885.12331	0.05726
883.19494	0.05851
881.26656	0.05870
879.33819	0.05755
877.40982	0.05594
875.48144	0.05551
873.55307	0.05609
871.62470	0.05622
869.69632	0.05597
867.76795	0.05618
865.83958	0.05654
863.91120	0.05640
861.98283	0.05586
860.05446	0.05539
858.12608	0.05486
856.19771	0.05392
854.26934	0.05289
852.34096	0.05211
850.41259	0.05143
848.48422	0.05104
846.55584	0.05102
844.62747	0.05075
842.69910	0.04956
840.77072	0.04730
838.84235	0.04503
836.91398	0.04367
834.98560	0.04297
833.05723	0.04248
831.12886	0.04185
829.20049	0.04076
827.27211	0.03965
825.34374	0.03908
823.41537	0.03770
821.48699	0.03500
819.55862	0.03331
817.63025	0.03371
815.70187	0.03472
813.77350	0.03479
811.84513	0.03385
809.91675	0.03311
807.98838	0.03310
806.06001	0.03254
804.13163	0.03017
802.20326	0.02730
800.27489	0.02592
798.34651	0.02584
796.41814	0.02556
794.48977	0.02422
792.56139	0.02253
790.63302	0.02103
788.70465	0.01916
786.77627	0.01756
784.84790	0.01708
782.91953	0.01682
780.99115	0.01665
779.06278	0.01662
777.13441	0.01638
775.20603	0.01653
773.27766	0.01622
771.34929	0.01512
769.42092	0.01480
767.49254	0.01538
765.56417	0.01549
763.63580	0.01457
761.70742	0.01405
759.77905	0.01432
757.85068	0.01320
755.92230	0.01005
753.99393	0.00745
752.06556	0.00722
750.13718	0.00826
748.20881	0.00909
746.28044	0.00990
744.35206	0.01031
742.42369	0.00999
740.49532	0.01005
738.56694	0.01087
736.63857	0.01126
734.71020	0.01089
732.78182	0.01042
730.85345	0.01010
728.92508	0.01023
726.99670	0.01073
725.06833	0.01043
723.13996	0.00931
721.21158	0.00823
719.28321	0.00763
717.35484	0.00735
715.42647	0.00644
713.49809	0.00536
711.56972	0.00503
709.64135	0.00534
707.71297	0.00540
705.78460	0.00526
703.85623	0.00484
701.92785	0.00577
699.99948	0.00812
698.07111	0.00869
696.14273	0.00631
694.21436	0.00457
692.28599	0.00572
690.35761	0.00727
688.42924	0.00716
686.50087	0.00688
684.57249	0.00753
682.64412	0.00826
680.71575	0.00927
678.78737	0.01007
676.85900	0.01066
674.93063	0.01222
673.00225	0.01358
671.07388	0.01416
669.14551	0.01220
667.21713	0.00998
665.28876	0.01163
663.36039	0.01276
661.43201	0.01210
659.50364	0.00981
657.57527	0.00768
655.64690	0.00749
653.71852	0.00765
651.79015	0.01041
649.86178	0.01436
647.93340	0.01718
646.00503	0.01740
644.07666	0.01461
642.14828	0.01067
640.21991	0.00790
638.29154	0.00831
636.36316	0.00741
634.43479	0.00481
632.50642	0.00656
630.57804	0.00829
628.64967	0.00813
626.72130	0.00807
624.79292	0.00720
622.86455	0.00648
620.93618	0.00569
619.00780	0.00380
617.07943	0.00369
615.15106	0.00559
613.22268	0.00651
611.29431	0.00745
609.36594	0.00868
607.43756	0.01566
605.50919	0.01915
603.58082	0.01881
601.65244	0.01925
599.72407	0.01845
