3997.51769	0.58855
3995.58931	0.58873
3993.66094	0.58891
3991.73257	0.58920
3989.80419	0.58940
3987.87582	0.58921
3985.94745	0.58925
3984.01907	0.59002
3982.09070	0.59084
3980.16233	0.59116
3978.23396	0.59126
3976.30558	0.59150
3974.37721	0.59176
3972.44884	0.59195
3970.52046	0.59208
3968.59209	0.59224
3966.66372	0.59275
3964.73534	0.59378
3962.80697	0.59495
3960.87860	0.59561
3958.95022	0.59610
3957.02185	0.59706
3955.09348	0.59807
3953.16510	0.59872
3951.23673	0.59914
3949.30836	0.59922
3947.37998	0.59872
3945.45161	0.59812
3943.52324	0.59798
3941.59486	0.59804
3939.66649	0.59809
3937.73812	0.59836
3935.80974	0.59902
3933.88137	0.60012
3931.95300	0.60107
3930.02462	0.60098
3928.09625	0.60068
3926.16788	0.60135
3924.23950	0.60230
3922.31113	0.60259
3920.38276	0.60306
3918.45439	0.60427
3916.52601	0.60532
3914.59764	0.60538
3912.66927	0.60530
3910.74089	0.60605
3908.81252	0.60778
3906.88415	0.61082
3904.95577	0.61472
3903.02740	0.61723
3901.09903	0.61739
3899.17065	0.61583
3897.24228	0.61377
3895.31391	0.61325
3893.38553	0.61485
3891.45716	0.61692
3889.52879	0.61791
3887.60041	0.61944
3885.67204	0.62184
3883.74367	0.62317
3881.81529	0.62394
3879.88692	0.62413
3877.95855	0.62338
3876.03017	0.62413
3874.10180	0.62674
3872.17343	0.62943
3870.24505	0.63133
3868.31668	0.63187
3866.38831	0.63235
3864.45994	0.63374
3862.53156	0.63395
3860.60319	0.63271
3858.67482	0.63216
3856.74644	0.63349
3854.81807	0.63782
3852.88970	0.64161
3850.96132	0.63811
3849.03295	0.63367
3847.10458	0.63186
3845.17620	0.63218
3843.24783	0.63393
3841.31946	0.63600
3839.39108	0.63726
3837.46271	0.63742
3835.53434	0.63663
3833.60596	0.63554
3831.67759	0.63446
3829.74922	0.63370
3827.82084	0.63397
3825.89247	0.63497
3823.96410	0.63683
3822.03572	0.64029
3820.10735	0.64186
3818.17898	0.64012
3816.25060	0.63813
3814.32223	0.63561
3812.39386	0.63379
3810.46548	0.63431
3808.53711	0.63676
3806.60874	0.63885
3804.68037	0.63893
3802.75199	0.63911
3800.82362	0.63940
3798.89525	0.63861
3796.96687	0.63800
3795.03850	0.63704
3793.11013	0.63580
3791.18175	0.63544
3789.25338	0.63585
3787.32501	0.63679
3785.39663	0.63811
3783.46826	0.63903
3781.53989	0.63985
3779.61151	0.64106
3777.68314	0.64138
3775.75477	0.64066
3773.82639	0.64055
3771.89802	0.64190
3769.96965	0.64407
3768.04127	0.64537
3766.11290	0.64549
3764.18453	0.64480
3762.25615	0.64453
3760.32778	0.64550
3758.39941	0.64568
3756.47103	0.64444
3754.54266	0.64457
3752.61429	0.64760
3750.68591	0.65041
3748.75754	0.64906
3746.82917	0.64805
3744.90080	0.64817
3742.97242	0.64532
3741.04405	0.64238
3739.11568	0.64277
3737.18730	0.64574
3735.25893	0.64800
3733.33056	0.64571
3731.40218	0.64095
3729.47381	0.63791
3727.54544	0.63702
3725.61706	0.63667
3723.68869	0.63551
3721.76032	0.63371
3719.83194	0.63124
3717.90357	0.62819
3715.97520	0.62632
3714.04682	0.62690
3712.11845	0.62891
3710.19008	0.62788
3708.26170	0.62300
3706.33333	0.61855
3704.40496	0.61660
3702.47658	0.61609
3700.54821	0.61388
3698.61984	0.61004
3696.69146	0.60639
3694.76309	0.60359
3692.83472	0.60220
3690.90635	0.60131
3688.97797	0.59699
3687.04960	0.58791
3685.12123	0.57891
3683.19285	0.57181
3681.26448	0.56638
3679.33611	0.56216
3677.40773	0.55766
3675.47936	0.54875
3673.55099	0.53649
3671.62261	0.52667
3669.69424	0.51485
3667.76587	0.50028
3665.83749	0.48785
3663.90912	0.47630
3661.98075	0.46430
3660.05237	0.45262
3658.12400	0.44158
3656.19563	0.42910
3654.26725	0.41662
3652.33888	0.40700
3650.41051	0.39660
3648.48213	0.38017
3646.55376	0.36261
3644.62539	0.34905
3642.69701	0.33709
3640.76864	0.32503
3638.84027	0.31313
3636.91189	0.30172
3634.98352	0.29066
3633.05515	0.28012
3631.12678	0.27046
3629.19840	0.25884
3627.27003	0.24511
3625.34166	0.23437
3623.41328	0.22571
3621.48491	0.21731
3619.55654	0.20772
3617.62816	0.19784
3615.69979	0.18951
3613.77142	0.18128
3611.84304	0.17264
3609.91467	0.16483
3607.98630	0.15717
3606.05792	0.14899
3604.12955	0.14160
3602.20118	0.13523
3600.27280	0.12929
3598.34443	0.12311
3596.41606	0.11666
3594.48768	0.11033
3592.55931	0.10469
3590.63094	0.10004
3588.70256	0.09524
3586.77419	0.08976
3584.84582	0.08478
3582.91744	0.08036
3580.98907	0.07593
3579.06070	0.07172
3577.13233	0.06808
3575.20395	0.06437
3573.27558	0.06042
3571.34721	0.05694
3569.41883	0.05431
3567.49046	0.05171
3565.56209	0.04832
3563.63371	0.04494
3561.70534	0.04184
3559.77697	0.03903
3557.84859	0.03664
3555.92022	0.03462
3553.99185	0.03270
3552.06347	0.03057
3550.13510	0.02849
3548.20673	0.02662
3546.27835	0.02476
3544.34998	0.02285
3542.42161	0.02123
3540.49323	0.01986
3538.56486	0.01837
3536.63649	0.01693
3534.70811	0.01557
3532.77974	0.01421
3530.85137	0.01286
3528.92299	0.01172
3526.99462	0.01110
3525.06625	0.01068
3523.13787	0.00968
3521.20950	0.00834
3519.28113	0.00750
3517.35276	0.00666
3515.42438	0.00536
3513.49601	0.00414
3511.56764	0.00342
3509.63926	0.00320
3507.71089	0.00268
3505.78252	0.00180
3503.85414	0.00165
3501.92577	0.00139
3499.99740	0.00119
3498.06902	0.00131
3496.14065	0.00159
3494.21228	0.00143
3492.28390	0.00082
3490.35553	0.00071
3488.42716	0.00066
3486.49878	0.00082
3484.57041	0.00096
3482.64204	0.00095
3480.71366	0.00081
3478.78529	0.00062
3476.85692	0.00069
3474.92854	0.00049
3473.00017	0.00055
3471.07180	0.00055
3469.14342	0.00039
3467.21505	0.00086
3465.28668	0.00073
3463.35831	0.00052
3461.42993	0.00069
3459.50156	0.00095
3457.57319	0.00137
3455.64481	0.00159
3453.71644	0.00123
3451.78807	0.00099
3449.85969	0.00120
3447.93132	0.00137
3446.00295	0.00156
3444.07457	0.00139
3442.14620	0.00095
3440.21783	0.00065
3438.28945	0.00099
3436.36108	0.00108
3434.43271	0.00092
3432.50433	0.00071
3430.57596	0.00086
3428.64759	0.00078
3426.71921	0.00087
3424.79084	0.00118
3422.86247	0.00151
3420.93409	0.00132
3419.00572	0.00104
3417.07735	0.00144
3415.14897	0.00126
3413.22060	0.00066
3411.29223	0.00053
3409.36385	0.00092
3407.43548	0.00065
3405.50711	0.00057
3403.57874	0.00056
3401.65036	0.00075
3399.72199	0.00089
3397.79362	0.00125
3395.86524	0.00185
3393.93687	0.00159
3392.00850	0.00120
3390.08012	0.00113
3388.15175	0.00059
3386.22338	0.00022
3384.29500	0.00063
3382.36663	0.00132
3380.43826	0.00132
3378.50988	0.00100
3376.58151	0.00102
3374.65314	0.00103
3372.72476	0.00088
3370.79639	0.00086
3368.86802	0.00114
3366.93964	0.00102
3365.01127	0.00108
3363.08290	0.00140
3361.15452	0.00147
3359.22615	0.00138
3357.29778	0.00161
3355.36940	0.00182
3353.44103	0.00144
3351.51266	0.00062
3349.58428	0.00037
3347.65591	0.00044
3345.72754	0.00055
3343.79917	0.00026
3341.87079	0.00047
3339.94242	0.00077
3338.01405	0.00077
3336.08567	0.00093
3334.15730	0.00114
3332.22893	0.00114
3330.30055	0.00110
3328.37218	0.00099
3326.44381	0.00094
3324.51543	0.00076
3322.58706	0.00051
3320.65869	0.00051
3318.73031	0.00052
3316.80194	0.00072
3314.87357	0.00104
3312.94519	0.00106
3311.01682	0.00074
3309.08845	0.00071
3307.16007	0.00119
3305.23170	0.00175
3303.30333	0.00181
3301.37495	0.00156
3299.44658	0.00112
3297.51821	0.00104
3295.58983	0.00080
3293.66146	0.00103
3291.73309	0.00124
3289.80472	0.00126
3287.87634	0.00120
3285.94797	0.00151
3284.01960	0.00155
3282.09122	0.00097
3280.16285	0.00067
3278.23448	0.00077
3276.30610	0.00044
3274.37773	0.00051
3272.44936	0.00071
3270.52098	0.00062
3268.59261	0.00056
3266.66424	0.00092
3264.73586	0.00138
3262.80749	0.00133
3260.87912	0.00069
3258.95074	0.00042
3257.02237	0.00093
3255.09400	0.00089
3253.16562	0.00075
3251.23725	0.00085
3249.30888	0.00106
3247.38050	0.00094
3245.45213	0.00061
3243.52376	0.00039
3241.59538	0.00059
3239.66701	0.00131
3237.73864	0.00129
3235.81026	0.00063
3233.88189	0.00049
3231.95352	0.00126
3230.02515	0.00175
3228.09677	0.00148
3226.16840	0.00083
3224.24003	0.00039
3222.31165	0.00051
3220.38328	0.00046
3218.45491	0.00082
3216.52653	0.00097
3214.59816	0.00095
3212.66979	0.00102
3210.74141	0.00118
3208.81304	0.00090
3206.88467	0.00081
3204.95629	0.00043
3203.02792	0.00038
3201.09955	0.00064
3199.17117	0.00069
3197.24280	0.00063
3195.31443	0.00069
3193.38605	0.00079
3191.45768	0.00088
3189.52931	0.00136
3187.60093	0.00153
3185.67256	0.00102
3183.74419	0.00024
3181.81581	0.00040
3179.88744	0.00112
3177.95907	0.00189
3176.03070	0.00201
3174.10232	0.00157
3172.17395	0.00131
3170.24558	0.00118
3168.31720	0.00111
3166.38883	0.00108
3164.46046	0.00092
3162.53208	0.00064
3160.60371	0.00113
3158.67534	0.00123
3156.74696	0.00122
3154.81859	0.00175
3152.89022	0.00233
3150.96184	0.00259
3149.03347	0.00243
3147.10510	0.00199
3145.17672	0.00155
3143.24835	0.00129
3141.31998	0.00095
3139.39160	0.00079
3137.46323	0.00113
3135.53486	0.00157
3133.60648	0.00159
3131.67811	0.00152
3129.74974	0.00162
3127.82136	0.00190
3125.89299	0.00223
3123.96462	0.00236
3122.03624	0.00207
3120.10787	0.00135
3118.17950	0.00107
3116.25113	0.00109
3114.32275	0.00131
3112.39438	0.00154
3110.46601	0.00169
3108.53763	0.00154
3106.60926	0.00109
3104.68089	0.00070
3102.75251	0.00056
3100.82414	0.00097
3098.89577	0.00206
3096.96739	0.00234
3095.03902	0.00199
3093.11065	0.00174
3091.18227	0.00192
3089.25390	0.00223
3087.32553	0.00259
3085.39715	0.00260
3083.46878	0.00245
3081.54041	0.00275
3079.61203	0.00324
3077.68366	0.00330
3075.75529	0.00287
3073.82691	0.00236
3071.89854	0.00219
3069.97017	0.00258
3068.04179	0.00313
3066.11342	0.00321
3064.18505	0.00298
3062.25668	0.00279
3060.32830	0.00272
3058.39993	0.00274
3056.47156	0.00282
3054.54318	0.00296
3052.61481	0.00332
3050.68644	0.00394
3048.75806	0.00457
3046.82969	0.00478
3044.90132	0.00463
3042.97294	0.00443
3041.04457	0.00436
3039.11620	0.00443
3037.18782	0.00469
3035.25945	0.00513
3033.33108	0.00552
3031.40270	0.00567
3029.47433	0.00585
3027.54596	0.00610
3025.61758	0.00622
3023.68921	0.00607
3021.76084	0.00589
3019.83246	0.00600
3017.90409	0.00618
3015.97572	0.00631
3014.04734	0.00670
3012.11897	0.00728
3010.19060	0.00774
3008.26222	0.00798
3006.33385	0.00786
3004.40548	0.00755
3002.47711	0.00761
3000.54873	0.00818
2998.62036	0.00848
2996.69199	0.00808
2994.76361	0.00763
2992.83524	0.00725
2990.90687	0.00678
2988.97849	0.00649
2987.05012	0.00655
2985.12175	0.00654
2983.19337	0.00593
2981.26500	0.00515
2979.33663	0.00479
2977.40825	0.00479
2975.47988	0.00489
2973.55151	0.00502
2971.62313	0.00495
2969.69476	0.00425
2967.76639	0.00360
2965.83801	0.00352
2963.90964	0.00362
2961.98127	0.00383
2960.05289	0.00407
2958.12452	0.00412
2956.19615	0.00410
2954.26777	0.00428
2952.33940	0.00442
2950.41103	0.00414
2948.48266	0.00372
2946.55428	0.00380
2944.62591	0.00419
2942.69754	0.00376
2940.76916	0.00299
2938.84079	0.00281
2936.91242	0.00298
2934.98404	0.00316
2933.05567	0.00340
2931.12730	0.00373
2929.19892	0.00409
2927.27055	0.00446
2925.34218	0.00475
2923.41380	0.00475
2921.48543	0.00454
2919.55706	0.00448
2917.62868	0.00469
2915.70031	0.00497
2913.77194	0.00544
2911.84356	0.00614
2909.91519	0.00673
2907.98682	0.00710
2906.05844	0.00743
2904.13007	0.00773
2902.20170	0.00791
2900.27332	0.00813
2898.34495	0.00831
2896.41658	0.00829
2894.48820	0.00814
2892.55983	0.00798
2890.63146	0.00830
2888.70309	0.00915
2886.77471	0.00981
2884.84634	0.00992
2882.91797	0.00977
2880.98959	0.00954
2879.06122	0.00931
2877.13285	0.00915
2875.20447	0.00914
2873.27610	0.00942
2871.34773	0.00992
2869.41935	0.01040
2867.49098	0.01100
2865.56261	0.01196
2863.63423	0.01291
2861.70586	0.01362
2859.77749	0.01435
2857.84911	0.01508
2855.92074	0.01562
2853.99237	0.01613
2852.06399	0.01687
2850.13562	0.01774
2848.20725	0.01895
2846.27887	0.02064
2844.35050	0.02242
2842.42213	0.02380
2840.49375	0.02486
2838.56538	0.02613
2836.63701	0.02748
2834.70863	0.02818
2832.78026	0.02828
2830.85189	0.02833
2828.92352	0.02846
2826.99514	0.02875
2825.06677	0.02933
2823.13840	0.02991
2821.21002	0.03009
2819.28165	0.03019
2817.35328	0.03078
2815.42490	0.03170
2813.49653	0.03231
2811.56816	0.03248
2809.63978	0.03278
2807.71141	0.03347
2805.78304	0.03415
2803.85466	0.03475
2801.92629	0.03562
2799.99792	0.03671
2798.06954	0.03758
2796.14117	0.03805
2794.21280	0.03849
2792.28442	0.03906
2790.35605	0.03978
2788.42768	0.04064
2786.49930	0.04130
2784.57093	0.04169
2782.64256	0.04245
2780.71418	0.04369
2778.78581	0.04472
2776.85744	0.04528
2774.92907	0.04575
2773.00069	0.04641
2771.07232	0.04730
2769.14395	0.04809
2767.21557	0.04858
2765.28720	0.04909
2763.35883	0.04982
2761.43045	0.05069
2759.50208	0.05161
2757.57371	0.05265
2755.64533	0.05379
2753.71696	0.05475
2751.78859	0.05563
2749.86021	0.05686
2747.93184	0.05807
2746.00347	0.05883
2744.07509	0.05973
2742.14672	0.06108
2740.21835	0.06226
2738.28997	0.06317
2736.36160	0.06414
2734.43323	0.06509
2732.50485	0.06609
2730.57648	0.06744
2728.64811	0.06876
2726.71973	0.06993
2724.79136	0.07116
2722.86299	0.07235
2720.93461	0.07356
2719.00624	0.07484
2717.07787	0.07597
2715.14950	0.07680
2713.22112	0.07749
2711.29275	0.07819
2709.36438	0.07897
2707.43600	0.07984
2705.50763	0.08077
2703.57926	0.08169
2701.65088	0.08247
2699.72251	0.08310
2697.79414	0.08386
2695.86576	0.08472
2693.93739	0.08529
2692.00902	0.08572
2690.08064	0.08639
2688.15227	0.08709
2686.22390	0.08764
2684.29552	0.08836
2682.36715	0.08936
2680.43878	0.09048
2678.51040	0.09173
2676.58203	0.09308
2674.65366	0.09437
2672.72528	0.09558
2670.79691	0.09672
2668.86854	0.09771
2666.94016	0.09864
2665.01179	0.09962
2663.08342	0.10050
2661.15505	0.10131
2659.22667	0.10237
2657.29830	0.10365
2655.36993	0.10474
2653.44155	0.10570
2651.51318	0.10693
2649.58481	0.10846
2647.65643	0.10992
2645.72806	0.11106
2643.79969	0.11190
2641.87131	0.11262
2639.94294	0.11351
2638.01457	0.11485
2636.08619	0.11642
2634.15782	0.11780
2632.22945	0.11917
2630.30107	0.12061
2628.37270	0.12194
2626.44433	0.12327
2624.51595	0.12459
2622.58758	0.12590
2620.65921	0.12757
2618.73083	0.12943
2616.80246	0.13091
2614.87409	0.13220
2612.94571	0.13382
2611.01734	0.13560
2609.08897	0.13720
2607.16059	0.13890
2605.23222	0.14098
2603.30385	0.14309
2601.37548	0.14459
2599.44710	0.14560
2597.51873	0.14691
2595.59036	0.14875
2593.66198	0.15069
2591.73361	0.15248
2589.80524	0.15417
2587.87686	0.15575
2585.94849	0.15713
2584.02012	0.15852
2582.09174	0.16018
2580.16337	0.16201
2578.23500	0.16377
2576.30662	0.16541
2574.37825	0.16712
2572.44988	0.16884
2570.52150	0.17033
2568.59313	0.17186
2566.66476	0.17372
2564.73638	0.17579
2562.80801	0.17791
2560.87964	0.17994
2558.95126	0.18184
2557.02289	0.18379
2555.09452	0.18576
2553.16614	0.18755
2551.23777	0.18918
2549.30940	0.19067
2547.38103	0.19214
2545.45265	0.19366
2543.52428	0.19520
2541.59591	0.19673
2539.66753	0.19844
2537.73916	0.20026
2535.81079	0.20194
2533.88241	0.20354
2531.95404	0.20503
2530.02567	0.20636
2528.09729	0.20776
2526.16892	0.20936
2524.24055	0.21103
2522.31217	0.21247
2520.38380	0.21375
2518.45543	0.21520
2516.52705	0.21680
2514.59868	0.21851
2512.67031	0.22032
2510.74193	0.22203
2508.81356	0.22362
2506.88519	0.22535
2504.95681	0.22721
2503.02844	0.22878
2501.10007	0.23003
2499.17169	0.23136
2497.24332	0.23294
2495.31495	0.23460
2493.38657	0.23631
2491.45820	0.23829
2489.52983	0.24035
2487.60146	0.24206
2485.67308	0.24341
2483.74471	0.24470
2481.81634	0.24626
2479.88796	0.24829
2477.95959	0.25035
2476.03122	0.25190
2474.10284	0.25323
2472.17447	0.25481
2470.24610	0.25665
2468.31772	0.25869
2466.38935	0.26066
2464.46098	0.26226
2462.53260	0.26388
2460.60423	0.26598
2458.67586	0.26833
2456.74748	0.27064
2454.81911	0.27290
2452.89074	0.27507
2450.96236	0.27706
2449.03399	0.27892
2447.10562	0.28099
2445.17724	0.28330
2443.24887	0.28557
2441.32050	0.28765
2439.39212	0.28943
2437.46375	0.29094
2435.53538	0.29241
2433.60700	0.29392
2431.67863	0.29565
2429.75026	0.29783
2427.82189	0.30014
2425.89351	0.30219
2423.96514	0.30392
2422.03677	0.30552
2420.10839	0.30716
2418.18002	0.30887
2416.25165	0.31051
2414.32327	0.31211
2412.39490	0.31402
2410.46653	0.31627
2408.53815	0.31849
2406.60978	0.32063
2404.68141	0.32285
2402.75303	0.32517
2400.82466	0.32764
2398.89629	0.33020
2396.96791	0.33267
2395.03954	0.33510
2393.11117	0.33756
2391.18279	0.33994
2389.25442	0.34233
2387.32605	0.34494
2385.39767	0.34762
2383.46930	0.35020
2381.54093	0.35286
2379.61255	0.35592
2377.68418	0.35962
2375.75581	0.36405
2373.82744	0.36911
2371.89906	0.37469
2369.97069	0.38089
2368.04232	0.38747
2366.11394	0.39297
2364.18557	0.39563
2362.25720	0.39688
2360.32882	0.39992
2358.40045	0.40292
2356.47208	0.40283
2354.54370	0.40109
2352.61533	0.39856
2350.68696	0.39557
2348.75858	0.39386
2346.83021	0.39455
2344.90184	0.39762
2342.97346	0.40143
2341.04509	0.40408
2339.11672	0.40588
2337.18834	0.40741
2335.25997	0.40771
2333.33160	0.40680
2331.40322	0.40640
2329.47485	0.40697
2327.54648	0.40739
2325.61810	0.40742
2323.68973	0.40754
2321.76136	0.40752
2319.83298	0.40701
2317.90461	0.40652
2315.97624	0.40679
2314.04787	0.40777
2312.11949	0.40895
2310.19112	0.41016
2308.26275	0.41128
2306.33437	0.41234
2304.40600	0.41368
2302.47763	0.41548
2300.54925	0.41739
2298.62088	0.41890
2296.69251	0.42007
2294.76413	0.42134
2292.83576	0.42277
2290.90739	0.42403
2288.97901	0.42499
2287.05064	0.42589
2285.12227	0.42706
2283.19389	0.42852
2281.26552	0.42999
2279.33715	0.43124
2277.40877	0.43214
2275.48040	0.43284
2273.55203	0.43364
2271.62365	0.43457
2269.69528	0.43553
2267.76691	0.43639
2265.83853	0.43700
2263.91016	0.43745
2261.98179	0.43789
2260.05342	0.43827
2258.12504	0.43877
2256.19667	0.43950
2254.26830	0.44024
2252.33992	0.44089
2250.41155	0.44163
2248.48318	0.44242
2246.55480	0.44302
2244.62643	0.44347
2242.69806	0.44381
2240.76968	0.44407
2238.84131	0.44441
2236.91294	0.44494
2234.98456	0.44555
2233.05619	0.44602
2231.12782	0.44608
2229.19944	0.44597
2227.27107	0.44624
2225.34270	0.44683
2223.41432	0.44726
2221.48595	0.44738
2219.55758	0.44746
2217.62920	0.44778
2215.70083	0.44852
2213.77246	0.44957
2211.84408	0.45031
2209.91571	0.45056
2207.98734	0.45093
2206.05896	0.45165
2204.13059	0.45239
2202.20222	0.45303
2200.27385	0.45360
2198.34547	0.45427
2196.41710	0.45504
2194.48873	0.45567
2192.56035	0.45616
2190.63198	0.45662
2188.70361	0.45718
2186.77523	0.45791
2184.84686	0.45846
2182.91849	0.45860
2180.99011	0.45861
2179.06174	0.45877
2177.13337	0.45914
2175.20499	0.45952
2173.27662	0.45958
2171.34825	0.45929
2169.41987	0.45893
2167.49150	0.45873
2165.56313	0.45878
2163.63475	0.45902
2161.70638	0.45902
2159.77801	0.45868
2157.84963	0.45844
2155.92126	0.45841
2153.99289	0.45839
2152.06451	0.45842
2150.13614	0.45851
2148.20777	0.45852
2146.27940	0.45850
2144.35102	0.45852
2142.42265	0.45845
2140.49428	0.45816
2138.56590	0.45787
2136.63753	0.45795
2134.70916	0.45822
2132.78078	0.45840
2130.85241	0.45856
2128.92404	0.45881
2126.99566	0.45907
2125.06729	0.45932
2123.13892	0.45967
2121.21054	0.46028
2119.28217	0.46095
2117.35380	0.46145
2115.42542	0.46199
2113.49705	0.46279
2111.56868	0.46363
2109.64030	0.46429
2107.71193	0.46484
2105.78356	0.46549
2103.85518	0.46627
2101.92681	0.46718
2099.99844	0.46811
2098.07006	0.46874
2096.14169	0.46918
2094.21332	0.46977
2092.28494	0.47054
2090.35657	0.47123
2088.42820	0.47180
2086.49983	0.47221
2084.57145	0.47220
2082.64308	0.47208
2080.71471	0.47230
2078.78633	0.47254
2076.85796	0.47246
2074.92959	0.47218
2073.00121	0.47167
2071.07284	0.47109
2069.14447	0.47096
2067.21609	0.47121
2065.28772	0.47124
2063.35935	0.47105
2061.43097	0.47093
2059.50260	0.47095
2057.57423	0.47103
2055.64585	0.47118
2053.71748	0.47153
2051.78911	0.47200
2049.86073	0.47238
2047.93236	0.47266
2046.00399	0.47289
2044.07561	0.47308
2042.14724	0.47328
2040.21887	0.47342
2038.29049	0.47343
2036.36212	0.47318
2034.43375	0.47264
2032.50538	0.47213
2030.57700	0.47185
2028.64863	0.47168
2026.72026	0.47149
2024.79188	0.47125
2022.86351	0.47101
2020.93514	0.47094
2019.00676	0.47109
2017.07839	0.47112
2015.15002	0.47086
2013.22164	0.47077
2011.29327	0.47122
2009.36490	0.47178
2007.43652	0.47200
2005.50815	0.47216
2003.57978	0.47255
2001.65140	0.47311
1999.72303	0.47374
1997.79466	0.47447
1995.86628	0.47522
1993.93791	0.47594
1992.00954	0.47651
1990.08116	0.47668
1988.15279	0.47663
1986.22442	0.47658
1984.29604	0.47659
1982.36767	0.47673
1980.43930	0.47671
1978.51092	0.47654
1976.58255	0.47667
1974.65418	0.47705
1972.72581	0.47735
1970.79743	0.47769
1968.86906	0.47833
1966.94069	0.47897
1965.01231	0.47914
1963.08394	0.47899
1961.15557	0.47892
1959.22719	0.47893
1957.29882	0.47901
1955.37045	0.47924
1953.44207	0.47950
1951.51370	0.47961
1949.58533	0.47960
1947.65695	0.47969
1945.72858	0.47993
1943.80021	0.48001
1941.87183	0.47943
1939.94346	0.47836
1938.01509	0.47748
1936.08671	0.47692
1934.15834	0.47648
1932.22997	0.47602
1930.30159	0.47546
1928.37322	0.47493
1926.44485	0.47467
1924.51647	0.47485
1922.58810	0.47522
1920.65973	0.47554
1918.73135	0.47574
1916.80298	0.47535
1914.87461	0.47441
1912.94624	0.47403
1911.01786	0.47453
1909.08949	0.47477
1907.16112	0.47403
1905.23274	0.47329
1903.30437	0.47327
1901.37600	0.47339
1899.44762	0.47300
1897.51925	0.47238
1895.59088	0.47197
1893.66250	0.47177
1891.73413	0.47166
1889.80576	0.47131
1887.87738	0.47045
1885.94901	0.46958
1884.02064	0.46910
1882.09226	0.46905
1880.16389	0.46928
1878.23552	0.46919
1876.30714	0.46857
1874.37877	0.46800
1872.45040	0.46803
1870.52202	0.46856
1868.59365	0.46852
1866.66528	0.46708
1864.73690	0.46513
1862.80853	0.46360
1860.88016	0.46225
1858.95179	0.46074
1857.02341	0.45936
1855.09504	0.45813
1853.16667	0.45681
1851.23829	0.45548
1849.30992	0.45452
1847.38155	0.45403
1845.45317	0.45369
1843.52480	0.45254
1841.59643	0.45050
1839.66805	0.44881
1837.73968	0.44762
1835.81131	0.44642
1833.88293	0.44550
1831.95456	0.44536
1830.02619	0.44519
1828.09781	0.44376
1826.16944	0.44182
1824.24107	0.43971
1822.31269	0.43718
1820.38432	0.43458
1818.45595	0.43217
1816.52757	0.42991
1814.59920	0.42764
1812.67083	0.42512
1810.74245	0.42173
1808.81408	0.41743
1806.88571	0.41296
1804.95733	0.40877
1803.02896	0.40476
1801.10059	0.39989
1799.17222	0.39385
1797.24384	0.38786
1795.31547	0.38241
1793.38710	0.37599
1791.45872	0.36688
1789.53035	0.35748
1787.60198	0.34988
1785.67360	0.34289
1783.74523	0.33572
1781.81686	0.32870
1779.88848	0.32155
1777.96011	0.31455
1776.03174	0.30867
1774.10336	0.30333
1772.17499	0.29613
1770.24662	0.28699
1768.31824	0.27803
1766.38987	0.26927
1764.46150	0.26075
1762.53312	0.25069
1760.60475	0.23830
1758.67638	0.22556
1756.74800	0.21070
1754.81963	0.19420
1752.89126	0.17758
1750.96288	0.15781
1749.03451	0.13504
1747.10614	0.11420
1745.17777	0.09589
1743.24939	0.07898
1741.32102	0.06306
1739.39265	0.04816
1737.46427	0.03690
1735.53590	0.02850
1733.60753	0.02007
1731.67915	0.01400
1729.75078	0.01055
1727.82241	0.00801
1725.89403	0.00590
1723.96566	0.00402
1722.03729	0.00265
1720.10891	0.00208
1718.18054	0.00167
1716.25217	0.00112
1714.32379	0.00135
1712.39542	0.00123
1710.46705	0.00098
1708.53867	0.00090
1706.61030	0.00112
1704.68193	0.00145
1702.75355	0.00148
1700.82518	0.00175
1698.89681	0.00218
1696.96843	0.00199
1695.04006	0.00146
1693.11169	0.00082
1691.18331	0.00054
1689.25494	0.00046
1687.32657	0.00055
1685.39820	0.00076
1683.46982	0.00118
1681.54145	0.00099
1679.61308	0.00067
1677.68470	0.00047
1675.75633	0.00070
1673.82796	0.00079
1671.89958	0.00087
1669.97121	0.00087
1668.04284	0.00084
1666.11446	0.00092
1664.18609	0.00109
1662.25772	0.00103
1660.32934	0.00100
1658.40097	0.00118
1656.47260	0.00152
1654.54422	0.00193
1652.61585	0.00191
1650.68748	0.00141
1648.75910	0.00094
1646.83073	0.00107
1644.90236	0.00089
1642.97398	0.00077
1641.04561	0.00060
1639.11724	0.00042
1637.18886	0.00085
1635.26049	0.00128
1633.33212	0.00113
1631.40375	0.00102
1629.47537	0.00109
1627.54700	0.00101
1625.61863	0.00073
1623.69025	0.00059
1621.76188	0.00076
1619.83351	0.00084
1617.90513	0.00085
1615.97676	0.00064
1614.04839	0.00052
1612.12001	0.00068
1610.19164	0.00077
1608.26327	0.00055
1606.33489	0.00056
1604.40652	0.00068
1602.47815	0.00073
1600.54977	0.00066
1598.62140	0.00048
1596.69303	0.00062
1594.76465	0.00108
1592.83628	0.00111
1590.90791	0.00098
1588.97953	0.00075
1587.05116	0.00059
1585.12279	0.00066
1583.19441	0.00055
1581.26604	0.00072
1579.33767	0.00093
1577.40929	0.00074
1575.48092	0.00045
1573.55255	0.00046
1571.62418	0.00072
1569.69580	0.00123
1567.76743	0.00131
1565.83906	0.00088
1563.91068	0.00036
1561.98231	0.00087
1560.05394	0.00153
1558.12556	0.00209
1556.19719	0.00157
1554.26882	0.00142
1552.34044	0.00107
1550.41207	0.00056
1548.48370	0.00079
1546.55532	0.00085
1544.62695	0.00082
1542.69858	0.00119
1540.77020	0.00110
1538.84183	0.00101
1536.91346	0.00100
1534.98508	0.00082
1533.05671	0.00064
1531.12834	0.00083
1529.19996	0.00080
1527.27159	0.00063
1525.34322	0.00093
1523.41484	0.00119
1521.48647	0.00097
1519.55810	0.00090
1517.62972	0.00104
1515.70135	0.00089
1513.77298	0.00044
1511.84461	0.00054
1509.91623	0.00100
1507.98786	0.00069
1506.05949	0.00088
1504.13111	0.00128
1502.20274	0.00138
1500.27437	0.00169
1498.34599	0.00237
1496.41762	0.00357
1494.48925	0.00449
1492.56087	0.00515
1490.63250	0.00618
1488.70413	0.00780
1486.77575	0.00930
1484.84738	0.01026
1482.91901	0.01093
1480.99063	0.01141
1479.06226	0.01147
1477.13389	0.01097
1475.20551	0.01023
1473.27714	0.00928
1471.34877	0.00801
1469.42039	0.00701
1467.49202	0.00656
1465.56365	0.00656
1463.63527	0.00640
1461.70690	0.00560
1459.77853	0.00451
1457.85016	0.00355
1455.92178	0.00325
1453.99341	0.00322
1452.06504	0.00287
1450.13666	0.00234
1448.20829	0.00184
1446.27992	0.00133
1444.35154	0.00109
1442.42317	0.00115
1440.49480	0.00145
1438.56642	0.00165
1436.63805	0.00162
1434.70968	0.00170
1432.78130	0.00195
1430.85293	0.00215
1428.92456	0.00223
1426.99618	0.00219
1425.06781	0.00226
1423.13944	0.00249
1421.21106	0.00253
1419.28269	0.00222
1417.35432	0.00195
1415.42594	0.00181
1413.49757	0.00175
1411.56920	0.00198
1409.64082	0.00211
1407.71245	0.00198
1405.78408	0.00212
1403.85570	0.00242
1401.92733	0.00251
1399.99896	0.00230
1398.07059	0.00219
1396.14221	0.00216
1394.21384	0.00163
1392.28547	0.00125
1390.35709	0.00105
1388.42872	0.00057
1386.50035	0.00039
1384.57197	0.00072
1382.64360	0.00103
1380.71523	0.00107
1378.78685	0.00100
1376.85848	0.00102
1374.93011	0.00160
1373.00173	0.00181
1371.07336	0.00114
1369.14499	0.00101
1367.21661	0.00111
1365.28824	0.00214
1363.35987	0.00335
1361.43149	0.00459
1359.50312	0.00566
1357.57475	0.00642
1355.64637	0.00700
1353.71800	0.00736
1351.78963	0.00752
1349.86125	0.00762
1347.93288	0.00762
1346.00451	0.00755
1344.07614	0.00752
1342.14776	0.00738
1340.21939	0.00680
1338.29102	0.00611
1336.36264	0.00588
1334.43427	0.00557
1332.50590	0.00485
1330.57752	0.00432
1328.64915	0.00415
1326.72078	0.00410
1324.79240	0.00418
1322.86403	0.00442
1320.93566	0.00454
1319.00728	0.00446
1317.07891	0.00453
1315.15054	0.00470
1313.22216	0.00469
1311.29379	0.00455
1309.36542	0.00436
1307.43704	0.00427
1305.50867	0.00466
1303.58030	0.00519
1301.65192	0.00513
1299.72355	0.00480
1297.79518	0.00515
1295.86680	0.00595
1293.93843	0.00638
1292.01006	0.00629
1290.08168	0.00611
1288.15331	0.00619
1286.22494	0.00653
1284.29657	0.00683
1282.36819	0.00700
1280.43982	0.00693
1278.51145	0.00664
1276.58307	0.00639
1274.65470	0.00619
1272.72633	0.00584
1270.79795	0.00548
1268.86958	0.00533
1266.94121	0.00516
1265.01283	0.00493
1263.08446	0.00495
1261.15609	0.00510
1259.22771	0.00509
1257.29934	0.00508
1255.37097	0.00534
1253.44259	0.00575
1251.51422	0.00618
1249.58585	0.00683
1247.65747	0.00734
1245.72910	0.00744
1243.80073	0.00770
1241.87235	0.00845
1239.94398	0.00907
1238.01561	0.00930
1236.08723	0.00948
1234.15886	0.01002
1232.23049	0.01084
1230.30212	0.01146
1228.37374	0.01172
1226.44537	0.01185
1224.51700	0.01226
1222.58862	0.01332
1220.66025	0.01497
1218.73188	0.01681
1216.80350	0.01852
1214.87513	0.01936
1212.94676	0.01885
1211.01838	0.01742
1209.09001	0.01584
1207.16164	0.01478
1205.23326	0.01449
1203.30489	0.01503
1201.37652	0.01679
1199.44814	0.01967
1197.51977	0.02266
1195.59140	0.02536
1193.66302	0.02823
1191.73465	0.03097
1189.80628	0.03216
1187.87790	0.03169
1185.94953	0.03097
1184.02116	0.03060
1182.09278	0.02982
1180.16441	0.02823
1178.23604	0.02622
1176.30766	0.02382
1174.37929	0.02063
1172.45092	0.01698
1170.52255	0.01320
1168.59417	0.00923
1166.66580	0.00594
1164.73743	0.00398
1162.80905	0.00273
1160.88068	0.00178
1158.95231	0.00131
1157.02393	0.00154
1155.09556	0.00226
1153.16719	0.00410
1151.23881	0.00719
1149.31044	0.01110
1147.38207	0.01514
1145.45369	0.01901
1143.52532	0.02237
1141.59695	0.02442
1139.66857	0.02490
1137.74020	0.02450
1135.81183	0.02331
1133.88345	0.02117
1131.95508	0.01810
1130.02671	0.01431
1128.09833	0.01055
1126.16996	0.00763
1124.24159	0.00584
1122.31321	0.00439
1120.38484	0.00271
1118.45647	0.00175
1116.52809	0.00239
1114.59972	0.00375
1112.67135	0.00484
1110.74298	0.00531
1108.81460	0.00557
1106.88623	0.00633
1104.95786	0.00748
1103.02948	0.00840
1101.10111	0.00921
1099.17274	0.00991
1097.24436	0.00950
1095.31599	0.00825
1093.38762	0.00728
1091.45924	0.00588
1089.53087	0.00364
1087.60250	0.00231
1085.67412	0.00177
1083.74575	0.00235
1081.81738	0.00233
1079.88900	0.00166
1077.96063	0.00124
1076.03226	0.00092
1074.10388	0.00115
1072.17551	0.00196
1070.24714	0.00254
1068.31876	0.00191
1066.39039	0.00177
1064.46202	0.00312
1062.53364	0.00391
1060.60527	0.00453
1058.67690	0.00477
1056.74853	0.00534
1054.82015	0.00687
1052.89178	0.00842
1050.96341	0.00903
1049.03503	0.00920
1047.10666	0.00899
1045.17829	0.00777
1043.24991	0.00596
1041.32154	0.00484
1039.39317	0.00450
1037.46479	0.00390
1035.53642	0.00262
1033.60805	0.00216
1031.67967	0.00257
1029.75130	0.00252
1027.82293	0.00233
1025.89455	0.00217
1023.96618	0.00204
1022.03781	0.00227
1020.10943	0.00302
1018.18106	0.00398
1016.25269	0.00490
1014.32431	0.00611
1012.39594	0.00780
1010.46757	0.01003
1008.53919	0.01284
1006.61082	0.01639
1004.68245	0.02113
1002.75407	0.02730
1000.82570	0.03397
998.89733	0.04017
996.96896	0.04587
995.04058	0.05114
993.11221	0.05575
991.18384	0.06008
989.25546	0.06468
987.32709	0.06897
985.39872	0.07174
983.47034	0.07245
981.54197	0.07123
979.61360	0.06865
977.68522	0.06561
975.75685	0.06386
973.82848	0.06602
971.90010	0.07320
969.97173	0.08360
968.04336	0.09450
966.11498	0.10383
964.18661	0.10928
962.25824	0.10771
960.32986	0.09709
958.40149	0.08027
956.47312	0.06566
954.54474	0.06055
952.61637	0.06526
950.68800	0.07570
948.75962	0.08831
946.83125	0.10103
944.90288	0.11284
942.97451	0.12316
941.04613	0.13142
939.11776	0.13790
937.18939	0.14334
935.26101	0.14760
933.33264	0.15011
931.40427	0.15083
929.47589	0.15038
927.54752	0.14904
925.61915	0.14628
923.69077	0.14245
921.76240	0.13951
919.83403	0.13910
917.90565	0.14059
915.97728	0.14201
914.04891	0.14212
912.12053	0.14058
910.19216	0.13679
908.26379	0.13068
906.33541	0.12315
904.40704	0.11453
902.47867	0.10548
900.55029	0.09822
898.62192	0.09423
896.69355	0.09289
894.76517	0.09300
892.83680	0.09388
890.90843	0.09544
888.98005	0.09773
887.05168	0.10006
885.12331	0.10164
883.19494	0.10262
881.26656	0.10376
879.33819	0.10509
877.40982	0.10561
875.48144	0.10480
873.55307	0.10368
871.62470	0.10329
869.69632	0.10354
867.76795	0.10423
865.83958	0.10532
863.91120	0.10533
861.98283	0.10330
860.05446	0.10098
858.12608	0.09913
856.19771	0.09629
854.26934	0.09251
852.34096	0.08972
850.41259	0.08915
848.48422	0.08965
846.55584	0.08908
844.62747	0.08723
842.69910	0.08509
840.77072	0.08321
838.84235	0.08175
836.91398	0.08015
834.98560	0.07776
833.05723	0.07487
831.12886	0.07220
829.20049	0.07001
827.27211	0.06839
825.34374	0.06756
823.41537	0.06708
821.48699	0.06637
819.55862	0.06556
817.63025	0.06484
815.70187	0.06379
813.77350	0.06230
811.84513	0.06049
809.91675	0.05826
807.98838	0.05655
806.06001	0.05546
804.13163	0.05338
802.20326	0.05017
800.27489	0.04687
798.34651	0.04394
796.41814	0.04168
794.48977	0.03996
792.56139	0.03815
790.63302	0.03663
788.70465	0.03560
786.77627	0.03457
784.84790	0.03414
782.91953	0.03459
780.99115	0.03533
779.06278	0.03529
777.13441	0.03368
775.20603	0.03154
773.27766	0.03045
771.34929	0.03082
769.42092	0.03141
767.49254	0.03084
765.56417	0.03000
763.63580	0.02929
761.70742	0.02744
759.77905	0.02501
757.85068	0.02322
755.92230	0.02144
753.99393	0.01922
752.06556	0.01767
750.13718	0.01719
748.20881	0.01696
746.28044	0.01689
744.35206	0.01764
742.42369	0.01924
740.49532	0.02123
738.56694	0.02265
736.63857	0.02302
734.71020	0.02285
732.78182	0.02319
730.85345	0.02341
728.92508	0.02237
726.99670	0.02083
725.06833	0.01994
723.13996	0.01908
721.21158	0.01750
719.28321	0.01603
717.35484	0.01502
715.42647	0.01387
713.49809	0.01274
711.56972	0.01205
709.64135	0.01134
707.71297	0.01074
705.78460	0.01047
703.85623	0.01078
701.92785	0.01220
699.99948	0.01318
698.07111	0.01259
696.14273	0.01159
694.21436	0.01243
692.28599	0.01492
690.35761	0.01574
688.42924	0.01438
686.50087	0.01452
684.57249	0.01754
682.64412	0.01943
680.71575	0.01915
678.78737	0.01892
676.85900	0.01946
674.93063	0.02016
673.00225	0.02153
671.07388	0.02304
669.14551	0.02267
667.21713	0.02176
665.28876	0.02216
663.36039	0.02331
661.43201	0.02438
659.50364	0.02362
657.57527	0.02078
655.64690	0.01985
653.71852	0.02136
651.79015	0.02157
649.86178	0.02043
647.93340	0.02001
646.00503	0.01913
644.07666	0.01729
642.14828	0.01682
640.21991	0.01744
638.29154	0.01660
636.36316	0.01402
634.43479	0.01196
632.50642	0.01196
630.57804	0.01269
628.64967	0.01278
626.72130	0.01170
624.79292	0.01047
622.86455	0.01124
620.93618	0.01450
619.00780	0.01650
617.07943	0.01703
615.15106	0.02021
613.22268	0.02051
611.29431	0.01626
609.36594	0.01405
607.43756	0.01510
605.50919	0.01713
603.58082	0.01814
601.65244	0.01587
599.72407	0.01289
