3997.51769	0.52015
3995.58931	0.52057
3993.66094	0.52079
3991.73257	0.52135
3989.80419	0.52195
3987.87582	0.52179
3985.94745	0.52142
3984.01907	0.52150
3982.09070	0.52179
3980.16233	0.52189
3978.23396	0.52181
3976.30558	0.52201
3974.37721	0.52236
3972.44884	0.52231
3970.52046	0.52219
3968.59209	0.52236
3966.66372	0.52267
3964.73534	0.52321
3962.80697	0.52404
3960.87860	0.52468
3958.95022	0.52486
3957.02185	0.52488
3955.09348	0.52520
3953.16510	0.52582
3951.23673	0.52632
3949.30836	0.52627
3947.37998	0.52564
3945.45161	0.52506
3943.52324	0.52485
3941.59486	0.52468
3939.66649	0.52455
3937.73812	0.52456
3935.80974	0.52465
3933.88137	0.52536
3931.95300	0.52662
3930.02462	0.52707
3928.09625	0.52674
3926.16788	0.52677
3924.23950	0.52692
3922.31113	0.52690
3920.38276	0.52733
3918.45439	0.52805
3916.52601	0.52828
3914.59764	0.52820
3912.66927	0.52828
3910.74089	0.52831
3908.81252	0.52877
3906.88415	0.53064
3904.95577	0.53309
3903.02740	0.53461
3901.09903	0.53538
3899.17065	0.53480
3897.24228	0.53306
3895.31391	0.53292
3893.38553	0.53496
3891.45716	0.53681
3889.52879	0.53715
3887.60041	0.53769
3885.67204	0.53860
3883.74367	0.53918
3881.81529	0.54037
3879.88692	0.54099
3877.95855	0.54015
3876.03017	0.54025
3874.10180	0.54178
3872.17343	0.54372
3870.24505	0.54514
3868.31668	0.54496
3866.38831	0.54482
3864.45994	0.54560
3862.53156	0.54513
3860.60319	0.54354
3858.67482	0.54310
3856.74644	0.54447
3854.81807	0.54754
3852.88970	0.54961
3850.96132	0.54721
3849.03295	0.54440
3847.10458	0.54340
3845.17620	0.54402
3843.24783	0.54515
3841.31946	0.54594
3839.39108	0.54659
3837.46271	0.54668
3835.53434	0.54569
3833.60596	0.54459
3831.67759	0.54380
3829.74922	0.54340
3827.82084	0.54359
3825.89247	0.54374
3823.96410	0.54441
3822.03572	0.54681
3820.10735	0.54792
3818.17898	0.54615
3816.25060	0.54429
3814.32223	0.54239
3812.39386	0.54089
3810.46548	0.54066
3808.53711	0.54146
3806.60874	0.54218
3804.68037	0.54278
3802.75199	0.54389
3800.82362	0.54393
3798.89525	0.54292
3796.96687	0.54243
3795.03850	0.54154
3793.11013	0.54038
3791.18175	0.53991
3789.25338	0.54010
3787.32501	0.54063
3785.39663	0.54109
3783.46826	0.54124
3781.53989	0.54172
3779.61151	0.54260
3777.68314	0.54232
3775.75477	0.54103
3773.82639	0.54037
3771.89802	0.54088
3769.96965	0.54210
3768.04127	0.54292
3766.11290	0.54282
3764.18453	0.54215
3762.25615	0.54216
3760.32778	0.54299
3758.39941	0.54283
3756.47103	0.54208
3754.54266	0.54293
3752.61429	0.54548
3750.68591	0.54685
3748.75754	0.54544
3746.82917	0.54509
3744.90080	0.54525
3742.97242	0.54256
3741.04405	0.53999
3739.11568	0.54039
3737.18730	0.54302
3735.25893	0.54439
3733.33056	0.54119
3731.40218	0.53644
3729.47381	0.53372
3727.54544	0.53260
3725.61706	0.53153
3723.68869	0.53009
3721.76032	0.52853
3719.83194	0.52651
3717.90357	0.52456
3715.97520	0.52395
3714.04682	0.52466
3712.11845	0.52532
3710.19008	0.52341
3708.26170	0.51937
3706.33333	0.51612
3704.40496	0.51465
3702.47658	0.51367
3700.54821	0.51113
3698.61984	0.50787
3696.69146	0.50508
3694.76309	0.50283
3692.83472	0.50134
3690.90635	0.49935
3688.97797	0.49408
3687.04960	0.48637
3685.12123	0.47982
3683.19285	0.47459
3681.26448	0.46977
3679.33611	0.46531
3677.40773	0.46121
3675.47936	0.45432
3673.55099	0.44483
3671.62261	0.43713
3669.69424	0.42694
3667.76587	0.41379
3665.83749	0.40290
3663.90912	0.39363
3661.98075	0.38465
3660.05237	0.37591
3658.12400	0.36676
3656.19563	0.35531
3654.26725	0.34412
3652.33888	0.33614
3650.41051	0.32755
3648.48213	0.31393
3646.55376	0.29946
3644.62539	0.28811
3642.69701	0.27807
3640.76864	0.26785
3638.84027	0.25773
3636.91189	0.24838
3634.98352	0.23935
3633.05515	0.23037
3631.12678	0.22211
3629.19840	0.21238
3627.27003	0.20095
3625.34166	0.19207
3623.41328	0.18486
3621.48491	0.17775
3619.55654	0.16988
3617.62816	0.16200
3615.69979	0.15516
3613.77142	0.14833
3611.84304	0.14151
3609.91467	0.13530
3607.98630	0.12872
3606.05792	0.12203
3604.12955	0.11643
3602.20118	0.11112
3600.27280	0.10523
3598.34443	0.09916
3596.41606	0.09373
3594.48768	0.08901
3592.55931	0.08468
3590.63094	0.08097
3588.70256	0.07738
3586.77419	0.07330
3584.84582	0.06931
3582.91744	0.06561
3580.98907	0.06182
3579.06070	0.05801
3577.13233	0.05453
3575.20395	0.05132
3573.27558	0.04834
3571.34721	0.04574
3569.41883	0.04342
3567.49046	0.04116
3565.56209	0.03874
3563.63371	0.03613
3561.70534	0.03355
3559.77697	0.03151
3557.84859	0.02976
3555.92022	0.02784
3553.99185	0.02583
3552.06347	0.02393
3550.13510	0.02236
3548.20673	0.02096
3546.27835	0.01967
3544.34998	0.01856
3542.42161	0.01748
3540.49323	0.01631
3538.56486	0.01490
3536.63649	0.01340
3534.70811	0.01236
3532.77974	0.01184
3530.85137	0.01120
3528.92299	0.01008
3526.99462	0.00882
3525.06625	0.00804
3523.13787	0.00760
3521.20950	0.00695
3519.28113	0.00611
3517.35276	0.00525
3515.42438	0.00471
3513.49601	0.00444
3511.56764	0.00390
3509.63926	0.00278
3507.71089	0.00215
3505.78252	0.00207
3503.85414	0.00179
3501.92577	0.00119
3499.99740	0.00071
3498.06902	0.00068
3496.14065	0.00060
3494.21228	0.00043
3492.28390	0.00049
3490.35553	0.00071
3488.42716	0.00084
3486.49878	0.00103
3484.57041	0.00088
3482.64204	0.00073
3480.71366	0.00093
3478.78529	0.00091
3476.85692	0.00154
3474.92854	0.00179
3473.00017	0.00163
3471.07180	0.00147
3469.14342	0.00121
3467.21505	0.00094
3465.28668	0.00096
3463.35831	0.00132
3461.42993	0.00124
3459.50156	0.00125
3457.57319	0.00133
3455.64481	0.00141
3453.71644	0.00179
3451.78807	0.00160
3449.85969	0.00084
3447.93132	0.00073
3446.00295	0.00085
3444.07457	0.00062
3442.14620	0.00063
3440.21783	0.00087
3438.28945	0.00101
3436.36108	0.00083
3434.43271	0.00036
3432.50433	0.00026
3430.57596	0.00050
3428.64759	0.00072
3426.71921	0.00099
3424.79084	0.00125
3422.86247	0.00114
3420.93409	0.00082
3419.00572	0.00023
3417.07735	0.00102
3415.14897	0.00145
3413.22060	0.00103
3411.29223	0.00086
3409.36385	0.00110
3407.43548	0.00073
3405.50711	0.00062
3403.57874	0.00050
3401.65036	0.00092
3399.72199	0.00087
3397.79362	0.00071
3395.86524	0.00096
3393.93687	0.00086
3392.00850	0.00069
3390.08012	0.00070
3388.15175	0.00068
3386.22338	0.00062
3384.29500	0.00057
3382.36663	0.00066
3380.43826	0.00087
3378.50988	0.00101
3376.58151	0.00105
3374.65314	0.00104
3372.72476	0.00076
3370.79639	0.00063
3368.86802	0.00066
3366.93964	0.00092
3365.01127	0.00121
3363.08290	0.00142
3361.15452	0.00168
3359.22615	0.00153
3357.29778	0.00115
3355.36940	0.00093
3353.44103	0.00044
3351.51266	0.00035
3349.58428	0.00054
3347.65591	0.00065
3345.72754	0.00076
3343.79917	0.00083
3341.87079	0.00133
3339.94242	0.00163
3338.01405	0.00147
3336.08567	0.00119
3334.15730	0.00085
3332.22893	0.00070
3330.30055	0.00051
3328.37218	0.00039
3326.44381	0.00104
3324.51543	0.00167
3322.58706	0.00166
3320.65869	0.00124
3318.73031	0.00061
3316.80194	0.00082
3314.87357	0.00074
3312.94519	0.00089
3311.01682	0.00075
3309.08845	0.00040
3307.16007	0.00053
3305.23170	0.00088
3303.30333	0.00098
3301.37495	0.00064
3299.44658	0.00103
3297.51821	0.00152
3295.58983	0.00157
3293.66146	0.00113
3291.73309	0.00063
3289.80472	0.00078
3287.87634	0.00083
3285.94797	0.00079
3284.01960	0.00070
3282.09122	0.00052
3280.16285	0.00031
3278.23448	0.00070
3276.30610	0.00080
3274.37773	0.00079
3272.44936	0.00102
3270.52098	0.00075
3268.59261	0.00078
3266.66424	0.00101
3264.73586	0.00093
3262.80749	0.00133
3260.87912	0.00158
3258.95074	0.00132
3257.02237	0.00071
3255.09400	0.00050
3253.16562	0.00034
3251.23725	0.00071
3249.30888	0.00103
3247.38050	0.00104
3245.45213	0.00058
3243.52376	0.00014
3241.59538	0.00033
3239.66701	0.00017
3237.73864	0.00059
3235.81026	0.00096
3233.88189	0.00103
3231.95352	0.00051
3230.02515	0.00060
3228.09677	0.00084
3226.16840	0.00075
3224.24003	0.00084
3222.31165	0.00133
3220.38328	0.00128
3218.45491	0.00083
3216.52653	0.00082
3214.59816	0.00065
3212.66979	0.00074
3210.74141	0.00049
3208.81304	0.00083
3206.88467	0.00117
3204.95629	0.00095
3203.02792	0.00092
3201.09955	0.00145
3199.17117	0.00152
3197.24280	0.00110
3195.31443	0.00033
3193.38605	0.00063
3191.45768	0.00053
3189.52931	0.00047
3187.60093	0.00062
3185.67256	0.00096
3183.74419	0.00106
3181.81581	0.00071
3179.88744	0.00051
3177.95907	0.00083
3176.03070	0.00120
3174.10232	0.00085
3172.17395	0.00060
3170.24558	0.00098
3168.31720	0.00119
3166.38883	0.00110
3164.46046	0.00089
3162.53208	0.00095
3160.60371	0.00113
3158.67534	0.00116
3156.74696	0.00124
3154.81859	0.00125
3152.89022	0.00087
3150.96184	0.00113
3149.03347	0.00148
3147.10510	0.00179
3145.17672	0.00174
3143.24835	0.00179
3141.31998	0.00205
3139.39160	0.00191
3137.46323	0.00138
3135.53486	0.00104
3133.60648	0.00109
3131.67811	0.00133
3129.74974	0.00149
3127.82136	0.00154
3125.89299	0.00162
3123.96462	0.00134
3122.03624	0.00062
3120.10787	0.00120
3118.17950	0.00130
3116.25113	0.00099
3114.32275	0.00104
3112.39438	0.00152
3110.46601	0.00154
3108.53763	0.00093
3106.60926	0.00057
3104.68089	0.00088
3102.75251	0.00128
3100.82414	0.00140
3098.89577	0.00126
3096.96739	0.00085
3095.03902	0.00054
3093.11065	0.00042
3091.18227	0.00048
3089.25390	0.00100
3087.32553	0.00167
3085.39715	0.00204
3083.46878	0.00215
3081.54041	0.00211
3079.61203	0.00182
3077.68366	0.00161
3075.75529	0.00163
3073.82691	0.00172
3071.89854	0.00200
3069.97017	0.00228
3068.04179	0.00244
3066.11342	0.00251
3064.18505	0.00268
3062.25668	0.00288
3060.32830	0.00315
3058.39993	0.00315
3056.47156	0.00258
3054.54318	0.00221
3052.61481	0.00242
3050.68644	0.00271
3048.75806	0.00299
3046.82969	0.00316
3044.90132	0.00340
3042.97294	0.00387
3041.04457	0.00449
3039.11620	0.00503
3037.18782	0.00524
3035.25945	0.00492
3033.33108	0.00420
3031.40270	0.00386
3029.47433	0.00420
3027.54596	0.00476
3025.61758	0.00494
3023.68921	0.00478
3021.76084	0.00476
3019.83246	0.00509
3017.90409	0.00550
3015.97572	0.00556
3014.04734	0.00532
3012.11897	0.00543
3010.19060	0.00598
3008.26222	0.00639
3006.33385	0.00657
3004.40548	0.00688
3002.47711	0.00695
3000.54873	0.00656
2998.62036	0.00630
2996.69199	0.00647
2994.76361	0.00669
2992.83524	0.00666
2990.90687	0.00639
2988.97849	0.00606
2987.05012	0.00581
2985.12175	0.00545
2983.19337	0.00487
2981.26500	0.00459
2979.33663	0.00473
2977.40825	0.00469
2975.47988	0.00416
2973.55151	0.00334
2971.62313	0.00241
2969.69476	0.00173
2967.76639	0.00178
2965.83801	0.00182
2963.90964	0.00185
2961.98127	0.00217
2960.05289	0.00260
2958.12452	0.00289
2956.19615	0.00303
2954.26777	0.00302
2952.33940	0.00306
2950.41103	0.00311
2948.48266	0.00334
2946.55428	0.00367
2944.62591	0.00386
2942.69754	0.00368
2940.76916	0.00328
2938.84079	0.00326
2936.91242	0.00342
2934.98404	0.00305
2933.05567	0.00223
2931.12730	0.00134
2929.19892	0.00129
2927.27055	0.00180
2925.34218	0.00250
2923.41380	0.00344
2921.48543	0.00426
2919.55706	0.00422
2917.62868	0.00388
2915.70031	0.00424
2913.77194	0.00507
2911.84356	0.00595
2909.91519	0.00671
2907.98682	0.00700
2906.05844	0.00675
2904.13007	0.00667
2902.20170	0.00708
2900.27332	0.00734
2898.34495	0.00722
2896.41658	0.00715
2894.48820	0.00708
2892.55983	0.00688
2890.63146	0.00669
2888.70309	0.00649
2886.77471	0.00630
2884.84634	0.00631
2882.91797	0.00663
2880.98959	0.00712
2879.06122	0.00744
2877.13285	0.00751
2875.20447	0.00755
2873.27610	0.00783
2871.34773	0.00850
2869.41935	0.00930
2867.49098	0.00990
2865.56261	0.01044
2863.63423	0.01106
2861.70586	0.01148
2859.77749	0.01153
2857.84911	0.01169
2855.92074	0.01226
2853.99237	0.01301
2852.06399	0.01384
2850.13562	0.01500
2848.20725	0.01655
2846.27887	0.01816
2844.35050	0.01951
2842.42213	0.02067
2840.49375	0.02168
2838.56538	0.02248
2836.63701	0.02309
2834.70863	0.02356
2832.78026	0.02390
2830.85189	0.02425
2828.92352	0.02469
2826.99514	0.02502
2825.06677	0.02520
2823.13840	0.02547
2821.21002	0.02591
2819.28165	0.02627
2817.35328	0.02647
2815.42490	0.02678
2813.49653	0.02715
2811.56816	0.02734
2809.63978	0.02773
2807.71141	0.02869
2805.78304	0.02975
2803.85466	0.03035
2801.92629	0.03060
2799.99792	0.03087
2798.06954	0.03112
2796.14117	0.03132
2794.21280	0.03178
2792.28442	0.03274
2790.35605	0.03378
2788.42768	0.03449
2786.49930	0.03512
2784.57093	0.03575
2782.64256	0.03631
2780.71418	0.03694
2778.78581	0.03770
2776.85744	0.03849
2774.92907	0.03902
2773.00069	0.03922
2771.07232	0.03933
2769.14395	0.03967
2767.21557	0.04035
2765.28720	0.04106
2763.35883	0.04159
2761.43045	0.04219
2759.50208	0.04313
2757.57371	0.04425
2755.64533	0.04530
2753.71696	0.04626
2751.78859	0.04726
2749.86021	0.04826
2747.93184	0.04904
2746.00347	0.04959
2744.07509	0.05022
2742.14672	0.05107
2740.21835	0.05215
2738.28997	0.05344
2736.36160	0.05480
2734.43323	0.05592
2732.50485	0.05664
2730.57648	0.05732
2728.64811	0.05828
2726.71973	0.05930
2724.79136	0.06007
2722.86299	0.06062
2720.93461	0.06121
2719.00624	0.06219
2717.07787	0.06353
2715.14950	0.06458
2713.22112	0.06495
2711.29275	0.06531
2709.36438	0.06621
2707.43600	0.06711
2705.50763	0.06752
2703.57926	0.06783
2701.65088	0.06851
2699.72251	0.06947
2697.79414	0.07039
2695.86576	0.07112
2693.93739	0.07157
2692.00902	0.07181
2690.08064	0.07216
2688.15227	0.07256
2686.22390	0.07294
2684.29552	0.07370
2682.36715	0.07468
2680.43878	0.07525
2678.51040	0.07564
2676.58203	0.07653
2674.65366	0.07786
2672.72528	0.07905
2670.79691	0.07984
2668.86854	0.08057
2666.94016	0.08141
2665.01179	0.08217
2663.08342	0.08280
2661.15505	0.08346
2659.22667	0.08443
2657.29830	0.08563
2655.36993	0.08655
2653.44155	0.08718
2651.51318	0.08784
2649.58481	0.08860
2647.65643	0.08963
2645.72806	0.09106
2643.79969	0.09249
2641.87131	0.09333
2639.94294	0.09384
2638.01457	0.09454
2636.08619	0.09540
2634.15782	0.09621
2632.22945	0.09709
2630.30107	0.09816
2628.37270	0.09932
2626.44433	0.10039
2624.51595	0.10142
2622.58758	0.10261
2620.65921	0.10392
2618.73083	0.10521
2616.80246	0.10647
2614.87409	0.10783
2612.94571	0.10934
2611.01734	0.11084
2609.08897	0.11220
2607.16059	0.11350
2605.23222	0.11477
2603.30385	0.11615
2601.37548	0.11752
2599.44710	0.11853
2597.51873	0.11950
2595.59036	0.12067
2593.66198	0.12186
2591.73361	0.12316
2589.80524	0.12467
2587.87686	0.12611
2585.94849	0.12735
2584.02012	0.12848
2582.09174	0.12962
2580.16337	0.13072
2578.23500	0.13178
2576.30662	0.13296
2574.37825	0.13446
2572.44988	0.13611
2570.52150	0.13758
2568.59313	0.13889
2566.66476	0.14022
2564.73638	0.14159
2562.80801	0.14282
2560.87964	0.14394
2558.95126	0.14512
2557.02289	0.14650
2555.09452	0.14812
2553.16614	0.14990
2551.23777	0.15148
2549.30940	0.15257
2547.38103	0.15349
2545.45265	0.15467
2543.52428	0.15592
2541.59591	0.15713
2539.66753	0.15855
2537.73916	0.16011
2535.81079	0.16136
2533.88241	0.16224
2531.95404	0.16304
2530.02567	0.16400
2528.09729	0.16511
2526.16892	0.16630
2524.24055	0.16757
2522.31217	0.16882
2520.38380	0.16994
2518.45543	0.17116
2516.52705	0.17254
2514.59868	0.17384
2512.67031	0.17528
2510.74193	0.17694
2508.81356	0.17835
2506.88519	0.17935
2504.95681	0.18025
2503.02844	0.18125
2501.10007	0.18245
2499.17169	0.18383
2497.24332	0.18522
2495.31495	0.18654
2493.38657	0.18786
2491.45820	0.18923
2489.52983	0.19061
2487.60146	0.19186
2485.67308	0.19299
2483.74471	0.19411
2481.81634	0.19515
2479.88796	0.19619
2477.95959	0.19737
2476.03122	0.19863
2474.10284	0.19985
2472.17447	0.20111
2470.24610	0.20257
2468.31772	0.20427
2466.38935	0.20606
2464.46098	0.20762
2462.53260	0.20896
2460.60423	0.21034
2458.67586	0.21177
2456.74748	0.21326
2454.81911	0.21486
2452.89074	0.21645
2450.96236	0.21799
2449.03399	0.21947
2447.10562	0.22095
2445.17724	0.22277
2443.24887	0.22473
2441.32050	0.22621
2439.39212	0.22740
2437.46375	0.22873
2435.53538	0.23023
2433.60700	0.23186
2431.67863	0.23350
2429.75026	0.23496
2427.82189	0.23639
2425.89351	0.23795
2423.96514	0.23943
2422.03677	0.24080
2420.10839	0.24240
2418.18002	0.24430
2416.25165	0.24600
2414.32327	0.24735
2412.39490	0.24895
2410.46653	0.25084
2408.53815	0.25260
2406.60978	0.25431
2404.68141	0.25611
2402.75303	0.25792
2400.82466	0.25980
2398.89629	0.26179
2396.96791	0.26380
2395.03954	0.26580
2393.11117	0.26774
2391.18279	0.26939
2389.25442	0.27095
2387.32605	0.27279
2385.39767	0.27476
2383.46930	0.27662
2381.54093	0.27871
2379.61255	0.28159
2377.68418	0.28535
2375.75581	0.28945
2373.82744	0.29324
2371.89906	0.29709
2369.97069	0.30170
2368.04232	0.30592
2366.11394	0.30842
2364.18557	0.31042
2362.25720	0.31353
2360.32882	0.31698
2358.40045	0.31908
2356.47208	0.31918
2354.54370	0.31736
2352.61533	0.31445
2350.68696	0.31204
2348.75858	0.31157
2346.83021	0.31360
2344.90184	0.31733
2342.97346	0.32043
2341.04509	0.32209
2339.11672	0.32302
2337.18834	0.32321
2335.25997	0.32262
2333.33160	0.32204
2331.40322	0.32198
2329.47485	0.32214
2327.54648	0.32253
2325.61810	0.32320
2323.68973	0.32385
2321.76136	0.32409
2319.83298	0.32395
2317.90461	0.32376
2315.97624	0.32371
2314.04787	0.32436
2312.11949	0.32598
2310.19112	0.32762
2308.26275	0.32880
2306.33437	0.33011
2304.40600	0.33172
2302.47763	0.33321
2300.54925	0.33453
2298.62088	0.33587
2296.69251	0.33709
2294.76413	0.33823
2292.83576	0.33960
2290.90739	0.34105
2288.97901	0.34225
2287.05064	0.34326
2285.12227	0.34427
2283.19389	0.34538
2281.26552	0.34661
2279.33715	0.34780
2277.40877	0.34892
2275.48040	0.35007
2273.55203	0.35115
2271.62365	0.35208
2269.69528	0.35300
2267.76691	0.35392
2265.83853	0.35454
2263.91016	0.35481
2261.98179	0.35518
2260.05342	0.35596
2258.12504	0.35690
2256.19667	0.35756
2254.26830	0.35800
2252.33992	0.35863
2250.41155	0.35951
2248.48318	0.36023
2246.55480	0.36062
2244.62643	0.36081
2242.69806	0.36105
2240.76968	0.36154
2238.84131	0.36212
2236.91294	0.36259
2234.98456	0.36300
2233.05619	0.36335
2231.12782	0.36371
2229.19944	0.36419
2227.27107	0.36469
2225.34270	0.36517
2223.41432	0.36567
2221.48595	0.36627
2219.55758	0.36708
2217.62920	0.36792
2215.70083	0.36846
2213.77246	0.36888
2211.84408	0.36961
2209.91571	0.37058
2207.98734	0.37152
2206.05896	0.37234
2204.13059	0.37305
2202.20222	0.37383
2200.27385	0.37462
2198.34547	0.37527
2196.41710	0.37590
2194.48873	0.37660
2192.56035	0.37732
2190.63198	0.37811
2188.70361	0.37897
2186.77523	0.37990
2184.84686	0.38090
2182.91849	0.38175
2180.99011	0.38228
2179.06174	0.38266
2177.13337	0.38318
2175.20499	0.38384
2173.27662	0.38449
2171.34825	0.38500
2169.41987	0.38542
2167.49150	0.38572
2165.56313	0.38582
2163.63475	0.38597
2161.70638	0.38630
2159.77801	0.38651
2157.84963	0.38655
2155.92126	0.38669
2153.99289	0.38701
2152.06451	0.38733
2150.13614	0.38752
2148.20777	0.38754
2146.27940	0.38735
2144.35102	0.38708
2142.42265	0.38697
2140.49428	0.38701
2138.56590	0.38711
2136.63753	0.38721
2134.70916	0.38735
2132.78078	0.38759
2130.85241	0.38791
2128.92404	0.38837
2126.99566	0.38906
2125.06729	0.38966
2123.13892	0.39008
2121.21054	0.39060
2119.28217	0.39135
2117.35380	0.39216
2115.42542	0.39272
2113.49705	0.39323
2111.56868	0.39411
2109.64030	0.39519
2107.71193	0.39612
2105.78356	0.39707
2103.85518	0.39808
2101.92681	0.39899
2099.99844	0.39989
2098.07006	0.40070
2096.14169	0.40140
2094.21332	0.40218
2092.28494	0.40300
2090.35657	0.40377
2088.42820	0.40454
2086.49983	0.40527
2084.57145	0.40598
2082.64308	0.40674
2080.71471	0.40739
2078.78633	0.40785
2076.85796	0.40832
2074.92959	0.40880
2073.00121	0.40911
2071.07284	0.40926
2069.14447	0.40947
2067.21609	0.40976
2065.28772	0.40997
2063.35935	0.41010
2061.43097	0.41039
2059.50260	0.41084
2057.57423	0.41122
2055.64585	0.41168
2053.71748	0.41233
2051.78911	0.41271
2049.86073	0.41266
2047.93236	0.41266
2046.00399	0.41301
2044.07561	0.41345
2042.14724	0.41370
2040.21887	0.41375
2038.29049	0.41377
2036.36212	0.41391
2034.43375	0.41402
2032.50538	0.41400
2030.57700	0.41384
2028.64863	0.41349
2026.72026	0.41310
2024.79188	0.41305
2022.86351	0.41322
2020.93514	0.41320
2019.00676	0.41306
2017.07839	0.41300
2015.15002	0.41293
2013.22164	0.41287
2011.29327	0.41301
2009.36490	0.41335
2007.43652	0.41375
2005.50815	0.41403
2003.57978	0.41435
2001.65140	0.41507
1999.72303	0.41600
1997.79466	0.41677
1995.86628	0.41754
1993.93791	0.41857
1992.00954	0.41956
1990.08116	0.42016
1988.15279	0.42050
1986.22442	0.42088
1984.29604	0.42141
1982.36767	0.42205
1980.43930	0.42275
1978.51092	0.42347
1976.58255	0.42417
1974.65418	0.42474
1972.72581	0.42525
1970.79743	0.42604
1968.86906	0.42717
1966.94069	0.42798
1965.01231	0.42798
1963.08394	0.42769
1961.15557	0.42769
1959.22719	0.42800
1957.29882	0.42826
1955.37045	0.42825
1953.44207	0.42816
1951.51370	0.42818
1949.58533	0.42823
1947.65695	0.42828
1945.72858	0.42835
1943.80021	0.42849
1941.87183	0.42843
1939.94346	0.42789
1938.01509	0.42708
1936.08671	0.42625
1934.15834	0.42555
1932.22997	0.42495
1930.30159	0.42441
1928.37322	0.42394
1926.44485	0.42370
1924.51647	0.42382
1922.58810	0.42375
1920.65973	0.42327
1918.73135	0.42290
1916.80298	0.42250
1914.87461	0.42179
1912.94624	0.42136
1911.01786	0.42152
1909.08949	0.42165
1907.16112	0.42135
1905.23274	0.42117
1903.30437	0.42132
1901.37600	0.42141
1899.44762	0.42142
1897.51925	0.42179
1895.59088	0.42238
1893.66250	0.42268
1891.73413	0.42289
1889.80576	0.42313
1887.87738	0.42289
1885.94901	0.42247
1884.02064	0.42232
1882.09226	0.42238
1880.16389	0.42264
1878.23552	0.42288
1876.30714	0.42279
1874.37877	0.42242
1872.45040	0.42221
1870.52202	0.42246
1868.59365	0.42236
1866.66528	0.42095
1864.73690	0.41906
1862.80853	0.41752
1860.88016	0.41612
1858.95179	0.41481
1857.02341	0.41369
1855.09504	0.41249
1853.16667	0.41113
1851.23829	0.40988
1849.30992	0.40887
1847.38155	0.40809
1845.45317	0.40726
1843.52480	0.40537
1841.59643	0.40281
1839.66805	0.40102
1837.73968	0.39977
1835.81131	0.39848
1833.88293	0.39744
1831.95456	0.39690
1830.02619	0.39622
1828.09781	0.39478
1826.16944	0.39309
1824.24107	0.39113
1822.31269	0.38890
1820.38432	0.38684
1818.45595	0.38504
1816.52757	0.38328
1814.59920	0.38143
1812.67083	0.37955
1810.74245	0.37700
1808.81408	0.37357
1806.88571	0.37005
1804.95733	0.36675
1803.02896	0.36346
1801.10059	0.35947
1799.17222	0.35429
1797.24384	0.34854
1795.31547	0.34304
1793.38710	0.33700
1791.45872	0.32886
1789.53035	0.32041
1787.60198	0.31341
1785.67360	0.30686
1783.74523	0.30028
1781.81686	0.29392
1779.88848	0.28731
1777.96011	0.28072
1776.03174	0.27510
1774.10336	0.26993
1772.17499	0.26335
1770.24662	0.25536
1768.31824	0.24739
1766.38987	0.23938
1764.46150	0.23167
1762.53312	0.22286
1760.60475	0.21200
1758.67638	0.20041
1756.74800	0.18690
1754.81963	0.17252
1752.89126	0.15842
1750.96288	0.14136
1749.03451	0.12122
1747.10614	0.10235
1745.17777	0.08550
1743.24939	0.07003
1741.32102	0.05584
1739.39265	0.04291
1737.46427	0.03343
1735.53590	0.02653
1733.60753	0.01906
1731.67915	0.01312
1729.75078	0.00968
1727.82241	0.00727
1725.89403	0.00556
1723.96566	0.00417
1722.03729	0.00271
1720.10891	0.00146
1718.18054	0.00085
1716.25217	0.00075
1714.32379	0.00085
1712.39542	0.00099
1710.46705	0.00100
1708.53867	0.00081
1706.61030	0.00097
1704.68193	0.00070
1702.75355	0.00076
1700.82518	0.00082
1698.89681	0.00123
1696.96843	0.00127
1695.04006	0.00048
1693.11169	0.00054
1691.18331	0.00037
1689.25494	0.00048
1687.32657	0.00093
1685.39820	0.00122
1683.46982	0.00103
1681.54145	0.00084
1679.61308	0.00073
1677.68470	0.00050
1675.75633	0.00026
1673.82796	0.00074
1671.89958	0.00092
1669.97121	0.00057
1668.04284	0.00063
1666.11446	0.00060
1664.18609	0.00040
1662.25772	0.00073
1660.32934	0.00075
1658.40097	0.00079
1656.47260	0.00077
1654.54422	0.00074
1652.61585	0.00116
1650.68748	0.00127
1648.75910	0.00103
1646.83073	0.00118
1644.90236	0.00082
1642.97398	0.00029
1641.04561	0.00014
1639.11724	0.00054
1637.18886	0.00115
1635.26049	0.00123
1633.33212	0.00113
1631.40375	0.00098
1629.47537	0.00076
1627.54700	0.00049
1625.61863	0.00058
1623.69025	0.00079
1621.76188	0.00091
1619.83351	0.00052
1617.90513	0.00046
1615.97676	0.00062
1614.04839	0.00054
1612.12001	0.00078
1610.19164	0.00069
1608.26327	0.00073
1606.33489	0.00062
1604.40652	0.00045
1602.47815	0.00050
1600.54977	0.00046
1598.62140	0.00020
1596.69303	0.00025
1594.76465	0.00043
1592.83628	0.00048
1590.90791	0.00044
1588.97953	0.00032
1587.05116	0.00038
1585.12279	0.00048
1583.19441	0.00048
1581.26604	0.00055
1579.33767	0.00036
1577.40929	0.00042
1575.48092	0.00096
1573.55255	0.00089
1571.62418	0.00033
1569.69580	0.00041
1567.76743	0.00071
1565.83906	0.00079
1563.91068	0.00075
1561.98231	0.00066
1560.05394	0.00092
1558.12556	0.00110
1556.19719	0.00062
1554.26882	0.00034
1552.34044	0.00047
1550.41207	0.00045
1548.48370	0.00035
1546.55532	0.00056
1544.62695	0.00081
1542.69858	0.00072
1540.77020	0.00046
1538.84183	0.00031
1536.91346	0.00014
1534.98508	0.00029
1533.05671	0.00034
1531.12834	0.00056
1529.19996	0.00067
1527.27159	0.00068
1525.34322	0.00035
1523.41484	0.00037
1521.48647	0.00075
1519.55810	0.00103
1517.62972	0.00072
1515.70135	0.00057
1513.77298	0.00076
1511.84461	0.00094
1509.91623	0.00098
1507.98786	0.00126
1506.05949	0.00134
1504.13111	0.00155
1502.20274	0.00165
1500.27437	0.00167
1498.34599	0.00220
1496.41762	0.00296
1494.48925	0.00337
1492.56087	0.00360
1490.63250	0.00424
1488.70413	0.00551
1486.77575	0.00659
1484.84738	0.00711
1482.91901	0.00751
1480.99063	0.00797
1479.06226	0.00816
1477.13389	0.00799
1475.20551	0.00785
1473.27714	0.00773
1471.34877	0.00718
1469.42039	0.00648
1467.49202	0.00586
1465.56365	0.00530
1463.63527	0.00469
1461.70690	0.00398
1459.77853	0.00320
1457.85016	0.00262
1455.92178	0.00279
1453.99341	0.00340
1452.06504	0.00308
1450.13666	0.00219
1448.20829	0.00149
1446.27992	0.00135
1444.35154	0.00156
1442.42317	0.00195
1440.49480	0.00228
1438.56642	0.00226
1436.63805	0.00199
1434.70968	0.00159
1432.78130	0.00128
1430.85293	0.00139
1428.92456	0.00155
1426.99618	0.00161
1425.06781	0.00169
1423.13944	0.00169
1421.21106	0.00147
1419.28269	0.00125
1417.35432	0.00138
1415.42594	0.00172
1413.49757	0.00187
1411.56920	0.00178
1409.64082	0.00182
1407.71245	0.00191
1405.78408	0.00185
1403.85570	0.00194
1401.92733	0.00207
1399.99896	0.00198
1398.07059	0.00177
1396.14221	0.00144
1394.21384	0.00099
1392.28547	0.00124
1390.35709	0.00169
1388.42872	0.00154
1386.50035	0.00101
1384.57197	0.00074
1382.64360	0.00090
1380.71523	0.00108
1378.78685	0.00102
1376.85848	0.00098
1374.93011	0.00119
1373.00173	0.00149
1371.07336	0.00160
1369.14499	0.00146
1367.21661	0.00165
1365.28824	0.00175
1363.35987	0.00243
1361.43149	0.00367
1359.50312	0.00443
1357.57475	0.00475
1355.64637	0.00508
1353.71800	0.00564
1351.78963	0.00622
1349.86125	0.00638
1347.93288	0.00613
1346.00451	0.00596
1344.07614	0.00604
1342.14776	0.00602
1340.21939	0.00569
1338.29102	0.00535
1336.36264	0.00499
1334.43427	0.00431
1332.50590	0.00340
1330.57752	0.00277
1328.64915	0.00254
1326.72078	0.00252
1324.79240	0.00288
1322.86403	0.00364
1320.93566	0.00413
1319.00728	0.00408
1317.07891	0.00384
1315.15054	0.00373
1313.22216	0.00357
1311.29379	0.00334
1309.36542	0.00336
1307.43704	0.00338
1305.50867	0.00315
1303.58030	0.00311
1301.65192	0.00348
1299.72355	0.00395
1297.79518	0.00454
1295.86680	0.00511
1293.93843	0.00515
1292.01006	0.00475
1290.08168	0.00471
1288.15331	0.00519
1286.22494	0.00546
1284.29657	0.00529
1282.36819	0.00534
1280.43982	0.00588
1278.51145	0.00635
1276.58307	0.00629
1274.65470	0.00590
1272.72633	0.00541
1270.79795	0.00512
1268.86958	0.00519
1266.94121	0.00501
1265.01283	0.00489
1263.08446	0.00524
1261.15609	0.00530
1259.22771	0.00500
1257.29934	0.00492
1255.37097	0.00476
1253.44259	0.00429
1251.51422	0.00427
1249.58585	0.00499
1247.65747	0.00539
1245.72910	0.00518
1243.80073	0.00519
1241.87235	0.00552
1239.94398	0.00560
1238.01561	0.00577
1236.08723	0.00654
1234.15886	0.00747
1232.23049	0.00813
1230.30212	0.00859
1228.37374	0.00887
1226.44537	0.00917
1224.51700	0.01010
1222.58862	0.01150
1220.66025	0.01254
1218.73188	0.01293
1216.80350	0.01323
1214.87513	0.01398
1212.94676	0.01437
1211.01838	0.01355
1209.09001	0.01210
1207.16164	0.01127
1205.23326	0.01149
1203.30489	0.01275
1201.37652	0.01477
1199.44814	0.01658
1197.51977	0.01812
1195.59140	0.02010
1193.66302	0.02218
1191.73465	0.02357
1189.80628	0.02449
1187.87790	0.02544
1185.94953	0.02588
1184.02116	0.02523
1182.09278	0.02413
1180.16441	0.02285
1178.23604	0.02075
1176.30766	0.01809
1174.37929	0.01571
1172.45092	0.01350
1170.52255	0.01057
1168.59417	0.00718
1166.66580	0.00504
1164.73743	0.00426
1162.80905	0.00329
1160.88068	0.00171
1158.95231	0.00100
1157.02393	0.00168
1155.09556	0.00212
1153.16719	0.00333
1151.23881	0.00522
1149.31044	0.00757
1147.38207	0.01038
1145.45369	0.01326
1143.52532	0.01614
1141.59695	0.01893
1139.66857	0.02031
1137.74020	0.01981
1135.81183	0.01880
1133.88345	0.01778
1131.95508	0.01575
1130.02671	0.01279
1128.09833	0.00973
1126.16996	0.00716
1124.24159	0.00529
1122.31321	0.00345
1120.38484	0.00202
1118.45647	0.00196
1116.52809	0.00195
1114.59972	0.00235
1112.67135	0.00350
1110.74298	0.00439
1108.81460	0.00497
1106.88623	0.00527
1104.95786	0.00618
1103.02948	0.00741
1101.10111	0.00818
1099.17274	0.00828
1097.24436	0.00777
1095.31599	0.00659
1093.38762	0.00507
1091.45924	0.00366
1089.53087	0.00275
1087.60250	0.00284
1085.67412	0.00258
1083.74575	0.00176
1081.81738	0.00075
1079.88900	0.00117
1077.96063	0.00195
1076.03226	0.00139
1074.10388	0.00060
1072.17551	0.00105
1070.24714	0.00191
1068.31876	0.00316
1066.39039	0.00306
1064.46202	0.00204
1062.53364	0.00244
1060.60527	0.00333
1058.67690	0.00374
1056.74853	0.00445
1054.82015	0.00535
1052.89178	0.00613
1050.96341	0.00665
1049.03503	0.00658
1047.10666	0.00597
1045.17829	0.00482
1043.24991	0.00345
1041.32154	0.00243
1039.39317	0.00168
1037.46479	0.00127
1035.53642	0.00150
1033.60805	0.00180
1031.67967	0.00140
1029.75130	0.00091
1027.82293	0.00054
1025.89455	0.00096
1023.96618	0.00133
1022.03781	0.00176
1020.10943	0.00253
1018.18106	0.00328
1016.25269	0.00376
1014.32431	0.00445
1012.39594	0.00596
1010.46757	0.00826
1008.53919	0.01098
1006.61082	0.01414
1004.68245	0.01775
1002.75407	0.02157
1000.82570	0.02611
998.89733	0.03158
996.96896	0.03683
995.04058	0.04133
993.11221	0.04552
991.18384	0.04927
989.25546	0.05288
987.32709	0.05680
985.39872	0.05968
983.47034	0.05998
981.54197	0.05806
979.61360	0.05505
977.68522	0.05221
975.75685	0.05152
973.82848	0.05437
971.90010	0.06028
969.97173	0.06806
968.04336	0.07652
966.11498	0.08392
964.18661	0.08812
962.25824	0.08686
960.32986	0.07846
958.40149	0.06496
956.47312	0.05272
954.54474	0.04769
952.61637	0.05082
950.68800	0.05907
948.75962	0.06980
946.83125	0.08183
944.90288	0.09301
942.97451	0.10166
941.04613	0.10883
939.11776	0.11544
937.18939	0.12095
935.26101	0.12497
933.33264	0.12739
931.40427	0.12840
929.47589	0.12855
927.54752	0.12770
925.61915	0.12545
923.69077	0.12256
921.76240	0.12037
919.83403	0.11973
917.90565	0.12075
915.97728	0.12280
914.04891	0.12460
912.12053	0.12424
910.19216	0.12078
908.26379	0.11498
906.33541	0.10743
904.40704	0.09938
902.47867	0.09255
900.55029	0.08690
898.62192	0.08254
896.69355	0.08011
894.76517	0.07922
892.83680	0.07959
890.90843	0.08123
888.98005	0.08360
887.05168	0.08590
885.12331	0.08757
883.19494	0.08855
881.26656	0.08872
879.33819	0.08866
877.40982	0.08932
875.48144	0.09024
873.55307	0.09060
871.62470	0.09048
869.69632	0.09017
867.76795	0.09008
865.83958	0.09038
863.91120	0.09016
861.98283	0.08869
860.05446	0.08691
858.12608	0.08558
856.19771	0.08375
854.26934	0.08132
852.34096	0.07955
850.41259	0.07866
848.48422	0.07834
846.55584	0.07841
844.62747	0.07826
842.69910	0.07724
840.77072	0.07498
838.84235	0.07166
836.91398	0.06850
834.98560	0.06647
833.05723	0.06475
831.12886	0.06283
829.20049	0.06175
827.27211	0.06166
825.34374	0.06156
823.41537	0.06097
821.48699	0.06002
819.55862	0.05924
817.63025	0.05883
815.70187	0.05814
813.77350	0.05659
811.84513	0.05433
809.91675	0.05185
807.98838	0.04985
806.06001	0.04834
804.13163	0.04658
802.20326	0.04424
800.27489	0.04197
798.34651	0.04044
796.41814	0.03935
794.48977	0.03790
792.56139	0.03558
790.63302	0.03309
788.70465	0.03230
786.77627	0.03295
784.84790	0.03276
782.91953	0.03144
780.99115	0.03058
779.06278	0.03035
777.13441	0.02958
775.20603	0.02808
773.27766	0.02617
771.34929	0.02436
769.42092	0.02412
767.49254	0.02558
765.56417	0.02708
763.63580	0.02735
761.70742	0.02566
759.77905	0.02280
757.85068	0.02035
755.92230	0.01807
753.99393	0.01571
752.06556	0.01424
750.13718	0.01397
748.20881	0.01475
746.28044	0.01630
744.35206	0.01785
742.42369	0.01818
740.49532	0.01710
738.56694	0.01616
736.63857	0.01643
734.71020	0.01763
732.78182	0.01892
730.85345	0.01926
728.92508	0.01853
726.99670	0.01735
725.06833	0.01583
723.13996	0.01412
721.21158	0.01279
719.28321	0.01238
717.35484	0.01222
715.42647	0.01174
713.49809	0.01079
711.56972	0.01030
709.64135	0.01072
707.71297	0.01146
705.78460	0.01186
703.85623	0.01158
701.92785	0.01109
699.99948	0.01105
698.07111	0.01163
696.14273	0.01261
694.21436	0.01365
692.28599	0.01385
690.35761	0.01352
688.42924	0.01445
686.50087	0.01678
684.57249	0.01853
682.64412	0.01910
680.71575	0.01962
678.78737	0.02042
676.85900	0.02098
674.93063	0.02047
673.00225	0.01999
671.07388	0.01995
669.14551	0.01944
667.21713	0.01771
665.28876	0.01689
663.36039	0.01783
661.43201	0.01885
659.50364	0.01904
657.57527	0.01848
655.64690	0.01746
653.71852	0.01810
651.79015	0.01911
649.86178	0.01973
647.93340	0.02035
646.00503	0.01939
644.07666	0.01822
642.14828	0.01694
640.21991	0.01324
638.29154	0.00987
636.36316	0.01153
634.43479	0.01395
632.50642	0.01426
630.57804	0.01365
628.64967	0.01238
626.72130	0.01111
624.79292	0.01199
622.86455	0.01340
620.93618	0.01173
619.00780	0.00877
617.07943	0.00833
615.15106	0.00858
613.22268	0.00962
611.29431	0.01169
609.36594	0.01345
607.43756	0.01653
605.50919	0.02019
603.58082	0.01863
601.65244	0.01226
599.72407	0.00807
