3997.51769	0.29393
3995.58931	0.29383
3993.66094	0.29384
3991.73257	0.29405
3989.80419	0.29453
3987.87582	0.29476
3985.94745	0.29477
3984.01907	0.29484
3982.09070	0.29482
3980.16233	0.29473
3978.23396	0.29476
3976.30558	0.29499
3974.37721	0.29534
3972.44884	0.29560
3970.52046	0.29560
3968.59209	0.29529
3966.66372	0.29516
3964.73534	0.29583
3962.80697	0.29704
3960.87860	0.29794
3958.95022	0.29838
3957.02185	0.29878
3955.09348	0.29900
3953.16510	0.29879
3951.23673	0.29857
3949.30836	0.29862
3947.37998	0.29876
3945.45161	0.29900
3943.52324	0.29943
3941.59486	0.29999
3939.66649	0.30063
3937.73812	0.30104
3935.80974	0.30110
3933.88137	0.30144
3931.95300	0.30223
3930.02462	0.30248
3928.09625	0.30230
3926.16788	0.30264
3924.23950	0.30279
3922.31113	0.30235
3920.38276	0.30263
3918.45439	0.30365
3916.52601	0.30414
3914.59764	0.30390
3912.66927	0.30364
3910.74089	0.30387
3908.81252	0.30470
3906.88415	0.30603
3904.95577	0.30767
3903.02740	0.30914
3901.09903	0.30943
3899.17065	0.30810
3897.24228	0.30683
3895.31391	0.30722
3893.38553	0.30889
3891.45716	0.31038
3889.52879	0.31068
3887.60041	0.31071
3885.67204	0.31076
3883.74367	0.31064
3881.81529	0.31112
3879.88692	0.31143
3877.95855	0.31092
3876.03017	0.31123
3874.10180	0.31278
3872.17343	0.31459
3870.24505	0.31584
3868.31668	0.31569
3866.38831	0.31513
3864.45994	0.31533
3862.53156	0.31544
3860.60319	0.31491
3858.67482	0.31462
3856.74644	0.31543
3854.81807	0.31758
3852.88970	0.31855
3850.96132	0.31650
3849.03295	0.31495
3847.10458	0.31457
3845.17620	0.31479
3843.24783	0.31564
3841.31946	0.31747
3839.39108	0.31950
3837.46271	0.31980
3835.53434	0.31863
3833.60596	0.31766
3831.67759	0.31683
3829.74922	0.31588
3827.82084	0.31557
3825.89247	0.31641
3823.96410	0.31834
3822.03572	0.32060
3820.10735	0.32090
3818.17898	0.31973
3816.25060	0.31908
3814.32223	0.31824
3812.39386	0.31739
3810.46548	0.31731
3808.53711	0.31798
3806.60874	0.31863
3804.68037	0.31894
3802.75199	0.31983
3800.82362	0.32030
3798.89525	0.31924
3796.96687	0.31824
3795.03850	0.31781
3793.11013	0.31761
3791.18175	0.31759
3789.25338	0.31796
3787.32501	0.31865
3785.39663	0.31906
3783.46826	0.31896
3781.53989	0.31881
3779.61151	0.31870
3777.68314	0.31831
3775.75477	0.31807
3773.82639	0.31838
3771.89802	0.31876
3769.96965	0.31869
3768.04127	0.31856
3766.11290	0.31893
3764.18453	0.31931
3762.25615	0.31958
3760.32778	0.32018
3758.39941	0.32055
3756.47103	0.32038
3754.54266	0.32083
3752.61429	0.32250
3750.68591	0.32367
3748.75754	0.32285
3746.82917	0.32243
3744.90080	0.32250
3742.97242	0.32139
3741.04405	0.32038
3739.11568	0.32082
3737.18730	0.32256
3735.25893	0.32364
3733.33056	0.32177
3731.40218	0.31875
3729.47381	0.31696
3727.54544	0.31679
3725.61706	0.31739
3723.68869	0.31716
3721.76032	0.31585
3719.83194	0.31436
3717.90357	0.31342
3715.97520	0.31330
3714.04682	0.31394
3712.11845	0.31522
3710.19008	0.31507
3708.26170	0.31226
3706.33333	0.30942
3704.40496	0.30812
3702.47658	0.30760
3700.54821	0.30637
3698.61984	0.30470
3696.69146	0.30337
3694.76309	0.30238
3692.83472	0.30176
3690.90635	0.30096
3688.97797	0.29795
3687.04960	0.29261
3685.12123	0.28781
3683.19285	0.28431
3681.26448	0.28159
3679.33611	0.27931
3677.40773	0.27718
3675.47936	0.27336
3673.55099	0.26742
3671.62261	0.26209
3669.69424	0.25586
3667.76587	0.24845
3665.83749	0.24203
3663.90912	0.23646
3661.98075	0.23131
3660.05237	0.22624
3658.12400	0.22084
3656.19563	0.21442
3654.26725	0.20825
3652.33888	0.20358
3650.41051	0.19840
3648.48213	0.19051
3646.55376	0.18155
3644.62539	0.17385
3642.69701	0.16760
3640.76864	0.16209
3638.84027	0.15630
3636.91189	0.15038
3634.98352	0.14511
3633.05515	0.14048
3631.12678	0.13610
3629.19840	0.13007
3627.27003	0.12259
3625.34166	0.11702
3623.41328	0.11270
3621.48491	0.10866
3619.55654	0.10408
3617.62816	0.09877
3615.69979	0.09435
3613.77142	0.09080
3611.84304	0.08706
3609.91467	0.08306
3607.98630	0.07888
3606.05792	0.07490
3604.12955	0.07153
3602.20118	0.06798
3600.27280	0.06392
3598.34443	0.06038
3596.41606	0.05779
3594.48768	0.05521
3592.55931	0.05232
3590.63094	0.04978
3588.70256	0.04722
3586.77419	0.04412
3584.84582	0.04117
3582.91744	0.03880
3580.98907	0.03687
3579.06070	0.03506
3577.13233	0.03313
3575.20395	0.03117
3573.27558	0.02959
3571.34721	0.02862
3569.41883	0.02803
3567.49046	0.02692
3565.56209	0.02464
3563.63371	0.02224
3561.70534	0.02031
3559.77697	0.01891
3557.84859	0.01803
3555.92022	0.01729
3553.99185	0.01636
3552.06347	0.01539
3550.13510	0.01436
3548.20673	0.01299
3546.27835	0.01162
3544.34998	0.01086
3542.42161	0.01064
3540.49323	0.01027
3538.56486	0.00954
3536.63649	0.00865
3534.70811	0.00763
3532.77974	0.00674
3530.85137	0.00604
3528.92299	0.00531
3526.99462	0.00476
3525.06625	0.00460
3523.13787	0.00439
3521.20950	0.00388
3519.28113	0.00348
3517.35276	0.00342
3515.42438	0.00330
3513.49601	0.00268
3511.56764	0.00206
3509.63926	0.00199
3507.71089	0.00201
3505.78252	0.00182
3503.85414	0.00185
3501.92577	0.00194
3499.99740	0.00168
3498.06902	0.00124
3496.14065	0.00095
3494.21228	0.00135
3492.28390	0.00175
3490.35553	0.00149
3488.42716	0.00086
3486.49878	0.00080
3484.57041	0.00103
3482.64204	0.00092
3480.71366	0.00069
3478.78529	0.00055
3476.85692	0.00073
3474.92854	0.00078
3473.00017	0.00081
3471.07180	0.00087
3469.14342	0.00085
3467.21505	0.00105
3465.28668	0.00113
3463.35831	0.00077
3461.42993	0.00066
3459.50156	0.00102
3457.57319	0.00126
3455.64481	0.00111
3453.71644	0.00063
3451.78807	0.00074
3449.85969	0.00098
3447.93132	0.00088
3446.00295	0.00073
3444.07457	0.00053
3442.14620	0.00070
3440.21783	0.00146
3438.28945	0.00200
3436.36108	0.00200
3434.43271	0.00176
3432.50433	0.00135
3430.57596	0.00078
3428.64759	0.00053
3426.71921	0.00072
3424.79084	0.00074
3422.86247	0.00087
3420.93409	0.00107
3419.00572	0.00097
3417.07735	0.00084
3415.14897	0.00092
3413.22060	0.00070
3411.29223	0.00038
3409.36385	0.00034
3407.43548	0.00062
3405.50711	0.00085
3403.57874	0.00102
3401.65036	0.00109
3399.72199	0.00094
3397.79362	0.00094
3395.86524	0.00095
3393.93687	0.00101
3392.00850	0.00121
3390.08012	0.00108
3388.15175	0.00134
3386.22338	0.00130
3384.29500	0.00067
3382.36663	0.00024
3380.43826	0.00046
3378.50988	0.00089
3376.58151	0.00091
3374.65314	0.00063
3372.72476	0.00050
3370.79639	0.00046
3368.86802	0.00029
3366.93964	0.00076
3365.01127	0.00121
3363.08290	0.00100
3361.15452	0.00054
3359.22615	0.00032
3357.29778	0.00072
3355.36940	0.00085
3353.44103	0.00102
3351.51266	0.00089
3349.58428	0.00061
3347.65591	0.00078
3345.72754	0.00109
3343.79917	0.00088
3341.87079	0.00072
3339.94242	0.00073
3338.01405	0.00083
3336.08567	0.00042
3334.15730	0.00086
3332.22893	0.00111
3330.30055	0.00123
3328.37218	0.00126
3326.44381	0.00093
3324.51543	0.00040
3322.58706	0.00037
3320.65869	0.00056
3318.73031	0.00061
3316.80194	0.00076
3314.87357	0.00063
3312.94519	0.00055
3311.01682	0.00089
3309.08845	0.00087
3307.16007	0.00064
3305.23170	0.00050
3303.30333	0.00056
3301.37495	0.00043
3299.44658	0.00046
3297.51821	0.00107
3295.58983	0.00087
3293.66146	0.00059
3291.73309	0.00123
3289.80472	0.00123
3287.87634	0.00053
3285.94797	0.00037
3284.01960	0.00075
3282.09122	0.00068
3280.16285	0.00109
3278.23448	0.00109
3276.30610	0.00102
3274.37773	0.00134
3272.44936	0.00157
3270.52098	0.00141
3268.59261	0.00146
3266.66424	0.00127
3264.73586	0.00095
3262.80749	0.00083
3260.87912	0.00072
3258.95074	0.00045
3257.02237	0.00021
3255.09400	0.00024
3253.16562	0.00044
3251.23725	0.00049
3249.30888	0.00083
3247.38050	0.00101
3245.45213	0.00074
3243.52376	0.00079
3241.59538	0.00157
3239.66701	0.00205
3237.73864	0.00190
3235.81026	0.00137
3233.88189	0.00075
3231.95352	0.00069
3230.02515	0.00079
3228.09677	0.00056
3226.16840	0.00059
3224.24003	0.00067
3222.31165	0.00083
3220.38328	0.00076
3218.45491	0.00074
3216.52653	0.00089
3214.59816	0.00060
3212.66979	0.00091
3210.74141	0.00078
3208.81304	0.00062
3206.88467	0.00059
3204.95629	0.00041
3203.02792	0.00049
3201.09955	0.00090
3199.17117	0.00086
3197.24280	0.00087
3195.31443	0.00090
3193.38605	0.00135
3191.45768	0.00151
3189.52931	0.00137
3187.60093	0.00134
3185.67256	0.00132
3183.74419	0.00106
3181.81581	0.00118
3179.88744	0.00129
3177.95907	0.00097
3176.03070	0.00062
3174.10232	0.00072
3172.17395	0.00095
3170.24558	0.00078
3168.31720	0.00068
3166.38883	0.00097
3164.46046	0.00066
3162.53208	0.00083
3160.60371	0.00108
3158.67534	0.00109
3156.74696	0.00098
3154.81859	0.00098
3152.89022	0.00113
3150.96184	0.00139
3149.03347	0.00142
3147.10510	0.00109
3145.17672	0.00094
3143.24835	0.00116
3141.31998	0.00125
3139.39160	0.00096
3137.46323	0.00060
3135.53486	0.00068
3133.60648	0.00076
3131.67811	0.00104
3129.74974	0.00121
3127.82136	0.00111
3125.89299	0.00088
3123.96462	0.00085
3122.03624	0.00128
3120.10787	0.00131
3118.17950	0.00105
3116.25113	0.00060
3114.32275	0.00069
3112.39438	0.00097
3110.46601	0.00144
3108.53763	0.00179
3106.60926	0.00172
3104.68089	0.00155
3102.75251	0.00122
3100.82414	0.00089
3098.89577	0.00088
3096.96739	0.00120
3095.03902	0.00145
3093.11065	0.00128
3091.18227	0.00121
3089.25390	0.00092
3087.32553	0.00093
3085.39715	0.00089
3083.46878	0.00095
3081.54041	0.00115
3079.61203	0.00101
3077.68366	0.00076
3075.75529	0.00101
3073.82691	0.00082
3071.89854	0.00082
3069.97017	0.00085
3068.04179	0.00110
3066.11342	0.00116
3064.18505	0.00103
3062.25668	0.00132
3060.32830	0.00170
3058.39993	0.00193
3056.47156	0.00190
3054.54318	0.00153
3052.61481	0.00110
3050.68644	0.00097
3048.75806	0.00141
3046.82969	0.00195
3044.90132	0.00177
3042.97294	0.00141
3041.04457	0.00184
3039.11620	0.00268
3037.18782	0.00311
3035.25945	0.00286
3033.33108	0.00215
3031.40270	0.00185
3029.47433	0.00239
3027.54596	0.00318
3025.61758	0.00345
3023.68921	0.00335
3021.76084	0.00330
3019.83246	0.00351
3017.90409	0.00397
3015.97572	0.00406
3014.04734	0.00368
3012.11897	0.00362
3010.19060	0.00394
3008.26222	0.00416
3006.33385	0.00426
3004.40548	0.00417
3002.47711	0.00394
3000.54873	0.00398
2998.62036	0.00428
2996.69199	0.00440
2994.76361	0.00446
2992.83524	0.00466
2990.90687	0.00462
2988.97849	0.00431
2987.05012	0.00381
2985.12175	0.00326
2983.19337	0.00291
2981.26500	0.00264
2979.33663	0.00211
2977.40825	0.00199
2975.47988	0.00225
2973.55151	0.00258
2971.62313	0.00300
2969.69476	0.00307
2967.76639	0.00272
2965.83801	0.00250
2963.90964	0.00219
2961.98127	0.00195
2960.05289	0.00208
2958.12452	0.00221
2956.19615	0.00226
2954.26777	0.00214
2952.33940	0.00186
2950.41103	0.00173
2948.48266	0.00189
2946.55428	0.00222
2944.62591	0.00240
2942.69754	0.00248
2940.76916	0.00235
2938.84079	0.00229
2936.91242	0.00255
2934.98404	0.00261
2933.05567	0.00245
2931.12730	0.00196
2929.19892	0.00132
2927.27055	0.00067
2925.34218	0.00043
2923.41380	0.00050
2921.48543	0.00100
2919.55706	0.00170
2917.62868	0.00260
2915.70031	0.00361
2913.77194	0.00434
2911.84356	0.00456
2909.91519	0.00448
2907.98682	0.00415
2906.05844	0.00374
2904.13007	0.00375
2902.20170	0.00401
2900.27332	0.00400
2898.34495	0.00388
2896.41658	0.00413
2894.48820	0.00450
2892.55983	0.00464
2890.63146	0.00481
2888.70309	0.00507
2886.77471	0.00517
2884.84634	0.00514
2882.91797	0.00507
2880.98959	0.00492
2879.06122	0.00434
2877.13285	0.00374
2875.20447	0.00371
2873.27610	0.00435
2871.34773	0.00521
2869.41935	0.00585
2867.49098	0.00611
2865.56261	0.00631
2863.63423	0.00664
2861.70586	0.00712
2859.77749	0.00773
2857.84911	0.00817
2855.92074	0.00841
2853.99237	0.00889
2852.06399	0.00946
2850.13562	0.00986
2848.20725	0.01037
2846.27887	0.01102
2844.35050	0.01165
2842.42213	0.01237
2840.49375	0.01295
2838.56538	0.01320
2836.63701	0.01359
2834.70863	0.01419
2832.78026	0.01464
2830.85189	0.01510
2828.92352	0.01574
2826.99514	0.01620
2825.06677	0.01611
2823.13840	0.01568
2821.21002	0.01560
2819.28165	0.01617
2817.35328	0.01688
2815.42490	0.01734
2813.49653	0.01759
2811.56816	0.01789
2809.63978	0.01838
2807.71141	0.01886
2805.78304	0.01923
2803.85466	0.01949
2801.92629	0.01958
2799.99792	0.01972
2798.06954	0.02014
2796.14117	0.02065
2794.21280	0.02104
2792.28442	0.02132
2790.35605	0.02145
2788.42768	0.02148
2786.49930	0.02188
2784.57093	0.02285
2782.64256	0.02373
2780.71418	0.02417
2778.78581	0.02451
2776.85744	0.02479
2774.92907	0.02496
2773.00069	0.02531
2771.07232	0.02587
2769.14395	0.02638
2767.21557	0.02671
2765.28720	0.02695
2763.35883	0.02715
2761.43045	0.02741
2759.50208	0.02789
2757.57371	0.02859
2755.64533	0.02934
2753.71696	0.02997
2751.78859	0.03037
2749.86021	0.03054
2747.93184	0.03079
2746.00347	0.03157
2744.07509	0.03270
2742.14672	0.03342
2740.21835	0.03385
2738.28997	0.03457
2736.36160	0.03525
2734.43323	0.03548
2732.50485	0.03566
2730.57648	0.03618
2728.64811	0.03708
2726.71973	0.03816
2724.79136	0.03910
2722.86299	0.03982
2720.93461	0.04047
2719.00624	0.04112
2717.07787	0.04177
2715.14950	0.04223
2713.22112	0.04235
2711.29275	0.04260
2709.36438	0.04329
2707.43600	0.04393
2705.50763	0.04436
2703.57926	0.04500
2701.65088	0.04576
2699.72251	0.04622
2697.79414	0.04636
2695.86576	0.04639
2693.93739	0.04646
2692.00902	0.04673
2690.08064	0.04738
2688.15227	0.04817
2686.22390	0.04867
2684.29552	0.04910
2682.36715	0.04972
2680.43878	0.05020
2678.51040	0.05038
2676.58203	0.05064
2674.65366	0.05116
2672.72528	0.05184
2670.79691	0.05262
2668.86854	0.05346
2666.94016	0.05419
2665.01179	0.05476
2663.08342	0.05540
2661.15505	0.05609
2659.22667	0.05667
2657.29830	0.05724
2655.36993	0.05778
2653.44155	0.05820
2651.51318	0.05864
2649.58481	0.05922
2647.65643	0.05984
2645.72806	0.06044
2643.79969	0.06118
2641.87131	0.06201
2639.94294	0.06265
2638.01457	0.06313
2636.08619	0.06361
2634.15782	0.06407
2632.22945	0.06467
2630.30107	0.06544
2628.37270	0.06618
2626.44433	0.06687
2624.51595	0.06752
2622.58758	0.06799
2620.65921	0.06850
2618.73083	0.06935
2616.80246	0.07040
2614.87409	0.07146
2612.94571	0.07250
2611.01734	0.07333
2609.08897	0.07396
2607.16059	0.07482
2605.23222	0.07595
2603.30385	0.07699
2601.37548	0.07779
2599.44710	0.07853
2597.51873	0.07938
2595.59036	0.08036
2593.66198	0.08144
2591.73361	0.08247
2589.80524	0.08326
2587.87686	0.08381
2585.94849	0.08441
2584.02012	0.08531
2582.09174	0.08638
2580.16337	0.08738
2578.23500	0.08813
2576.30662	0.08873
2574.37825	0.08955
2572.44988	0.09079
2570.52150	0.09218
2568.59313	0.09325
2566.66476	0.09408
2564.73638	0.09499
2562.80801	0.09595
2560.87964	0.09690
2558.95126	0.09804
2557.02289	0.09935
2555.09452	0.10051
2553.16614	0.10144
2551.23777	0.10232
2549.30940	0.10320
2547.38103	0.10405
2545.45265	0.10485
2543.52428	0.10566
2541.59591	0.10670
2539.66753	0.10765
2537.73916	0.10803
2535.81079	0.10836
2533.88241	0.10915
2531.95404	0.10999
2530.02567	0.11076
2528.09729	0.11165
2526.16892	0.11237
2524.24055	0.11294
2522.31217	0.11380
2520.38380	0.11468
2518.45543	0.11530
2516.52705	0.11599
2514.59868	0.11677
2512.67031	0.11752
2510.74193	0.11854
2508.81356	0.11979
2506.88519	0.12083
2504.95681	0.12161
2503.02844	0.12230
2501.10007	0.12301
2499.17169	0.12381
2497.24332	0.12466
2495.31495	0.12547
2493.38657	0.12618
2491.45820	0.12695
2489.52983	0.12792
2487.60146	0.12898
2485.67308	0.12990
2483.74471	0.13067
2481.81634	0.13154
2479.88796	0.13254
2477.95959	0.13357
2476.03122	0.13455
2474.10284	0.13530
2472.17447	0.13601
2470.24610	0.13701
2468.31772	0.13827
2466.38935	0.13940
2464.46098	0.14041
2462.53260	0.14152
2460.60423	0.14264
2458.67586	0.14382
2456.74748	0.14519
2454.81911	0.14654
2452.89074	0.14781
2450.96236	0.14915
2449.03399	0.15038
2447.10562	0.15135
2445.17724	0.15244
2443.24887	0.15378
2441.32050	0.15495
2439.39212	0.15576
2437.46375	0.15656
2435.53538	0.15762
2433.60700	0.15876
2431.67863	0.15982
2429.75026	0.16103
2427.82189	0.16237
2425.89351	0.16339
2423.96514	0.16404
2422.03677	0.16484
2420.10839	0.16597
2418.18002	0.16710
2416.25165	0.16805
2414.32327	0.16908
2412.39490	0.17027
2410.46653	0.17143
2408.53815	0.17253
2406.60978	0.17362
2404.68141	0.17476
2402.75303	0.17603
2400.82466	0.17737
2398.89629	0.17871
2396.96791	0.17997
2395.03954	0.18119
2393.11117	0.18232
2391.18279	0.18325
2389.25442	0.18418
2387.32605	0.18537
2385.39767	0.18687
2383.46930	0.18859
2381.54093	0.19031
2379.61255	0.19195
2377.68418	0.19400
2375.75581	0.19687
2373.82744	0.20012
2371.89906	0.20326
2369.97069	0.20628
2368.04232	0.20906
2366.11394	0.21179
2364.18557	0.21463
2362.25720	0.21666
2360.32882	0.21759
2358.40045	0.21810
2356.47208	0.21811
2354.54370	0.21746
2352.61533	0.21627
2350.68696	0.21490
2348.75858	0.21440
2346.83021	0.21569
2344.90184	0.21855
2342.97346	0.22059
2341.04509	0.22052
2339.11672	0.22021
2337.18834	0.22091
2335.25997	0.22180
2333.33160	0.22219
2331.40322	0.22268
2329.47485	0.22374
2327.54648	0.22476
2325.61810	0.22522
2323.68973	0.22546
2321.76136	0.22580
2319.83298	0.22598
2317.90461	0.22580
2315.97624	0.22559
2314.04787	0.22582
2312.11949	0.22661
2310.19112	0.22754
2308.26275	0.22830
2306.33437	0.22904
2304.40600	0.22987
2302.47763	0.23070
2300.54925	0.23147
2298.62088	0.23238
2296.69251	0.23348
2294.76413	0.23440
2292.83576	0.23493
2290.90739	0.23525
2288.97901	0.23578
2287.05064	0.23676
2285.12227	0.23786
2283.19389	0.23861
2281.26552	0.23907
2279.33715	0.23974
2277.40877	0.24069
2275.48040	0.24158
2273.55203	0.24209
2271.62365	0.24238
2269.69528	0.24282
2267.76691	0.24322
2265.83853	0.24337
2263.91016	0.24380
2261.98179	0.24472
2260.05342	0.24553
2258.12504	0.24611
2256.19667	0.24684
2254.26830	0.24752
2252.33992	0.24796
2250.41155	0.24859
2248.48318	0.24957
2246.55480	0.25065
2244.62643	0.25148
2242.69806	0.25188
2240.76968	0.25208
2238.84131	0.25245
2236.91294	0.25303
2234.98456	0.25367
2233.05619	0.25416
2231.12782	0.25446
2229.19944	0.25482
2227.27107	0.25535
2225.34270	0.25601
2223.41432	0.25687
2221.48595	0.25778
2219.55758	0.25833
2217.62920	0.25862
2215.70083	0.25898
2213.77246	0.25937
2211.84408	0.25971
2209.91571	0.26004
2207.98734	0.26047
2206.05896	0.26116
2204.13059	0.26186
2202.20222	0.26227
2200.27385	0.26257
2198.34547	0.26299
2196.41710	0.26357
2194.48873	0.26423
2192.56035	0.26470
2190.63198	0.26491
2188.70361	0.26515
2186.77523	0.26557
2184.84686	0.26612
2182.91849	0.26666
2180.99011	0.26712
2179.06174	0.26750
2177.13337	0.26784
2175.20499	0.26802
2173.27662	0.26810
2171.34825	0.26825
2169.41987	0.26856
2167.49150	0.26891
2165.56313	0.26912
2163.63475	0.26927
2161.70638	0.26946
2159.77801	0.26969
2157.84963	0.27008
2155.92126	0.27055
2153.99289	0.27087
2152.06451	0.27110
2150.13614	0.27139
2148.20777	0.27166
2146.27940	0.27185
2144.35102	0.27199
2142.42265	0.27208
2140.49428	0.27234
2138.56590	0.27292
2136.63753	0.27354
2134.70916	0.27386
2132.78078	0.27410
2130.85241	0.27457
2128.92404	0.27521
2126.99566	0.27579
2125.06729	0.27630
2123.13892	0.27688
2121.21054	0.27768
2119.28217	0.27860
2117.35380	0.27946
2115.42542	0.28010
2113.49705	0.28065
2111.56868	0.28127
2109.64030	0.28190
2107.71193	0.28264
2105.78356	0.28360
2103.85518	0.28440
2101.92681	0.28495
2099.99844	0.28555
2098.07006	0.28622
2096.14169	0.28673
2094.21332	0.28718
2092.28494	0.28774
2090.35657	0.28835
2088.42820	0.28892
2086.49983	0.28929
2084.57145	0.28930
2082.64308	0.28927
2080.71471	0.28953
2078.78633	0.28996
2076.85796	0.29031
2074.92959	0.29060
2073.00121	0.29078
2071.07284	0.29066
2069.14447	0.29053
2067.21609	0.29076
2065.28772	0.29105
2063.35935	0.29121
2061.43097	0.29143
2059.50260	0.29181
2057.57423	0.29235
2055.64585	0.29302
2053.71748	0.29358
2051.78911	0.29382
2049.86073	0.29395
2047.93236	0.29444
2046.00399	0.29528
2044.07561	0.29599
2042.14724	0.29633
2040.21887	0.29671
2038.29049	0.29742
2036.36212	0.29807
2034.43375	0.29840
2032.50538	0.29869
2030.57700	0.29901
2028.64863	0.29927
2026.72026	0.29961
2024.79188	0.30002
2022.86351	0.30032
2020.93514	0.30056
2019.00676	0.30083
2017.07839	0.30105
2015.15002	0.30116
2013.22164	0.30128
2011.29327	0.30164
2009.36490	0.30228
2007.43652	0.30287
2005.50815	0.30315
2003.57978	0.30325
2001.65140	0.30348
1999.72303	0.30407
1997.79466	0.30481
1995.86628	0.30550
1993.93791	0.30637
1992.00954	0.30718
1990.08116	0.30732
1988.15279	0.30706
1986.22442	0.30692
1984.29604	0.30695
1982.36767	0.30724
1980.43930	0.30772
1978.51092	0.30808
1976.58255	0.30830
1974.65418	0.30849
1972.72581	0.30873
1970.79743	0.30906
1968.86906	0.30950
1966.94069	0.30989
1965.01231	0.30998
1963.08394	0.30982
1961.15557	0.30982
1959.22719	0.31010
1957.29882	0.31051
1955.37045	0.31094
1953.44207	0.31138
1951.51370	0.31177
1949.58533	0.31212
1947.65695	0.31243
1945.72858	0.31275
1943.80021	0.31328
1941.87183	0.31378
1939.94346	0.31375
1938.01509	0.31347
1936.08671	0.31344
1934.15834	0.31364
1932.22997	0.31374
1930.30159	0.31369
1928.37322	0.31382
1926.44485	0.31428
1924.51647	0.31507
1922.58810	0.31579
1920.65973	0.31619
1918.73135	0.31640
1916.80298	0.31614
1914.87461	0.31553
1912.94624	0.31531
1911.01786	0.31561
1909.08949	0.31592
1907.16112	0.31599
1905.23274	0.31602
1903.30437	0.31616
1901.37600	0.31619
1899.44762	0.31607
1897.51925	0.31613
1895.59088	0.31636
1893.66250	0.31638
1891.73413	0.31629
1889.80576	0.31628
1887.87738	0.31595
1885.94901	0.31543
1884.02064	0.31512
1882.09226	0.31485
1880.16389	0.31467
1878.23552	0.31467
1876.30714	0.31458
1874.37877	0.31428
1872.45040	0.31422
1870.52202	0.31469
1868.59365	0.31482
1866.66528	0.31373
1864.73690	0.31231
1862.80853	0.31135
1860.88016	0.31077
1858.95179	0.31021
1857.02341	0.30950
1855.09504	0.30887
1853.16667	0.30847
1851.23829	0.30820
1849.30992	0.30804
1847.38155	0.30809
1845.45317	0.30810
1843.52480	0.30743
1841.59643	0.30622
1839.66805	0.30532
1837.73968	0.30464
1835.81131	0.30399
1833.88293	0.30366
1831.95456	0.30376
1830.02619	0.30369
1828.09781	0.30303
1826.16944	0.30223
1824.24107	0.30103
1822.31269	0.29930
1820.38432	0.29775
1818.45595	0.29649
1816.52757	0.29514
1814.59920	0.29374
1812.67083	0.29243
1810.74245	0.29067
1808.81408	0.28815
1806.88571	0.28522
1804.95733	0.28225
1803.02896	0.27948
1801.10059	0.27629
1799.17222	0.27204
1797.24384	0.26746
1795.31547	0.26338
1793.38710	0.25906
1791.45872	0.25317
1789.53035	0.24690
1787.60198	0.24168
1785.67360	0.23701
1783.74523	0.23232
1781.81686	0.22758
1779.88848	0.22279
1777.96011	0.21828
1776.03174	0.21438
1774.10336	0.21061
1772.17499	0.20582
1770.24662	0.19983
1768.31824	0.19367
1766.38987	0.18764
1764.46150	0.18207
1762.53312	0.17567
1760.60475	0.16744
1758.67638	0.15858
1756.74800	0.14818
1754.81963	0.13676
1752.89126	0.12551
1750.96288	0.11229
1749.03451	0.09679
1747.10614	0.08214
1745.17777	0.06896
1743.24939	0.05681
1741.32102	0.04568
1739.39265	0.03532
1737.46427	0.02725
1735.53590	0.02107
1733.60753	0.01489
1731.67915	0.01043
1729.75078	0.00784
1727.82241	0.00578
1725.89403	0.00416
1723.96566	0.00297
1722.03729	0.00201
1720.10891	0.00119
1718.18054	0.00097
1716.25217	0.00082
1714.32379	0.00124
1712.39542	0.00117
1710.46705	0.00122
1708.53867	0.00119
1706.61030	0.00111
1704.68193	0.00131
1702.75355	0.00132
1700.82518	0.00113
1698.89681	0.00065
1696.96843	0.00069
1695.04006	0.00073
1693.11169	0.00068
1691.18331	0.00072
1689.25494	0.00061
1687.32657	0.00037
1685.39820	0.00066
1683.46982	0.00057
1681.54145	0.00090
1679.61308	0.00072
1677.68470	0.00043
1675.75633	0.00029
1673.82796	0.00030
1671.89958	0.00071
1669.97121	0.00085
1668.04284	0.00068
1666.11446	0.00064
1664.18609	0.00068
1662.25772	0.00070
1660.32934	0.00048
1658.40097	0.00051
1656.47260	0.00065
1654.54422	0.00095
1652.61585	0.00098
1650.68748	0.00049
1648.75910	0.00053
1646.83073	0.00095
1644.90236	0.00146
1642.97398	0.00134
1641.04561	0.00068
1639.11724	0.00065
1637.18886	0.00061
1635.26049	0.00064
1633.33212	0.00062
1631.40375	0.00024
1629.47537	0.00044
1627.54700	0.00057
1625.61863	0.00079
1623.69025	0.00103
1621.76188	0.00082
1619.83351	0.00033
1617.90513	0.00068
1615.97676	0.00074
1614.04839	0.00052
1612.12001	0.00048
1610.19164	0.00067
1608.26327	0.00055
1606.33489	0.00009
1604.40652	0.00057
1602.47815	0.00075
1600.54977	0.00055
1598.62140	0.00042
1596.69303	0.00045
1594.76465	0.00038
1592.83628	0.00058
1590.90791	0.00093
1588.97953	0.00088
1587.05116	0.00063
1585.12279	0.00061
1583.19441	0.00088
1581.26604	0.00086
1579.33767	0.00075
1577.40929	0.00081
1575.48092	0.00105
1573.55255	0.00104
1571.62418	0.00099
1569.69580	0.00086
1567.76743	0.00070
1565.83906	0.00062
1563.91068	0.00060
1561.98231	0.00076
1560.05394	0.00131
1558.12556	0.00142
1556.19719	0.00074
1554.26882	0.00052
1552.34044	0.00043
1550.41207	0.00043
1548.48370	0.00057
1546.55532	0.00079
1544.62695	0.00100
1542.69858	0.00123
1540.77020	0.00207
1538.84183	0.00202
1536.91346	0.00110
1534.98508	0.00053
1533.05671	0.00125
1531.12834	0.00124
1529.19996	0.00081
1527.27159	0.00072
1525.34322	0.00080
1523.41484	0.00085
1521.48647	0.00089
1519.55810	0.00100
1517.62972	0.00104
1515.70135	0.00075
1513.77298	0.00098
1511.84461	0.00104
1509.91623	0.00091
1507.98786	0.00093
1506.05949	0.00101
1504.13111	0.00125
1502.20274	0.00119
1500.27437	0.00122
1498.34599	0.00109
1496.41762	0.00112
1494.48925	0.00162
1492.56087	0.00250
1490.63250	0.00332
1488.70413	0.00388
1486.77575	0.00432
1484.84738	0.00495
1482.91901	0.00569
1480.99063	0.00621
1479.06226	0.00637
1477.13389	0.00623
1475.20551	0.00574
1473.27714	0.00519
1471.34877	0.00493
1469.42039	0.00484
1467.49202	0.00467
1465.56365	0.00420
1463.63527	0.00361
1461.70690	0.00321
1459.77853	0.00282
1457.85016	0.00214
1455.92178	0.00157
1453.99341	0.00155
1452.06504	0.00160
1450.13666	0.00155
1448.20829	0.00132
1446.27992	0.00116
1444.35154	0.00139
1442.42317	0.00144
1440.49480	0.00120
1438.56642	0.00112
1436.63805	0.00118
1434.70968	0.00108
1432.78130	0.00131
1430.85293	0.00172
1428.92456	0.00203
1426.99618	0.00171
1425.06781	0.00139
1423.13944	0.00135
1421.21106	0.00118
1419.28269	0.00106
1417.35432	0.00100
1415.42594	0.00116
1413.49757	0.00147
1411.56920	0.00159
1409.64082	0.00158
1407.71245	0.00178
1405.78408	0.00201
1403.85570	0.00206
1401.92733	0.00190
1399.99896	0.00175
1398.07059	0.00175
1396.14221	0.00143
1394.21384	0.00114
1392.28547	0.00111
1390.35709	0.00096
1388.42872	0.00080
1386.50035	0.00050
1384.57197	0.00036
1382.64360	0.00055
1380.71523	0.00074
1378.78685	0.00086
1376.85848	0.00063
1374.93011	0.00063
1373.00173	0.00077
1371.07336	0.00076
1369.14499	0.00042
1367.21661	0.00126
1365.28824	0.00201
1363.35987	0.00225
1361.43149	0.00233
1359.50312	0.00274
1357.57475	0.00357
1355.64637	0.00434
1353.71800	0.00466
1351.78963	0.00458
1349.86125	0.00425
1347.93288	0.00398
1346.00451	0.00398
1344.07614	0.00407
1342.14776	0.00405
1340.21939	0.00379
1338.29102	0.00352
1336.36264	0.00339
1334.43427	0.00351
1332.50590	0.00360
1330.57752	0.00333
1328.64915	0.00284
1326.72078	0.00244
1324.79240	0.00230
1322.86403	0.00220
1320.93566	0.00216
1319.00728	0.00215
1317.07891	0.00205
1315.15054	0.00233
1313.22216	0.00259
1311.29379	0.00248
1309.36542	0.00237
1307.43704	0.00257
1305.50867	0.00308
1303.58030	0.00343
1301.65192	0.00342
1299.72355	0.00338
1297.79518	0.00336
1295.86680	0.00358
1293.93843	0.00403
1292.01006	0.00406
1290.08168	0.00381
1288.15331	0.00389
1286.22494	0.00441
1284.29657	0.00495
1282.36819	0.00511
1280.43982	0.00487
1278.51145	0.00462
1276.58307	0.00461
1274.65470	0.00464
1272.72633	0.00428
1270.79795	0.00353
1268.86958	0.00290
1266.94121	0.00251
1265.01283	0.00246
1263.08446	0.00299
1261.15609	0.00351
1259.22771	0.00360
1257.29934	0.00353
1255.37097	0.00370
1253.44259	0.00392
1251.51422	0.00383
1249.58585	0.00355
1247.65747	0.00365
1245.72910	0.00401
1243.80073	0.00425
1241.87235	0.00458
1239.94398	0.00473
1238.01561	0.00466
1236.08723	0.00457
1234.15886	0.00463
1232.23049	0.00508
1230.30212	0.00601
1228.37374	0.00688
1226.44537	0.00740
1224.51700	0.00798
1222.58862	0.00885
1220.66025	0.00984
1218.73188	0.01036
1216.80350	0.01031
1214.87513	0.01042
1212.94676	0.01031
1211.01838	0.00927
1209.09001	0.00792
1207.16164	0.00751
1205.23326	0.00840
1203.30489	0.00954
1201.37652	0.01048
1199.44814	0.01177
1197.51977	0.01375
1195.59140	0.01593
1193.66302	0.01731
1191.73465	0.01769
1189.80628	0.01797
1187.87790	0.01863
1185.94953	0.01926
1184.02116	0.01939
1182.09278	0.01881
1180.16441	0.01761
1178.23604	0.01600
1176.30766	0.01389
1174.37929	0.01151
1172.45092	0.00943
1170.52255	0.00747
1168.59417	0.00511
1166.66580	0.00294
1164.73743	0.00189
1162.80905	0.00179
1160.88068	0.00140
1158.95231	0.00119
1157.02393	0.00172
1155.09556	0.00233
1153.16719	0.00270
1151.23881	0.00299
1149.31044	0.00395
1147.38207	0.00593
1145.45369	0.00865
1143.52532	0.01155
1141.59695	0.01360
1139.66857	0.01432
1137.74020	0.01435
1135.81183	0.01344
1133.88345	0.01140
1131.95508	0.00936
1130.02671	0.00774
1128.09833	0.00606
1126.16996	0.00458
1124.24159	0.00389
1122.31321	0.00396
1120.38484	0.00440
1118.45647	0.00452
1116.52809	0.00408
1114.59972	0.00282
1112.67135	0.00173
1110.74298	0.00158
1108.81460	0.00246
1106.88623	0.00390
1104.95786	0.00485
1103.02948	0.00511
1101.10111	0.00528
1099.17274	0.00542
1097.24436	0.00506
1095.31599	0.00470
1093.38762	0.00474
1091.45924	0.00467
1089.53087	0.00426
1087.60250	0.00333
1085.67412	0.00210
1083.74575	0.00085
1081.81738	0.00115
1079.88900	0.00242
1077.96063	0.00290
1076.03226	0.00235
1074.10388	0.00196
1072.17551	0.00284
1070.24714	0.00269
1068.31876	0.00153
1066.39039	0.00146
1064.46202	0.00266
1062.53364	0.00380
1060.60527	0.00406
1058.67690	0.00406
1056.74853	0.00431
1054.82015	0.00470
1052.89178	0.00536
1050.96341	0.00642
1049.03503	0.00647
1047.10666	0.00516
1045.17829	0.00384
1043.24991	0.00321
1041.32154	0.00265
1039.39317	0.00184
1037.46479	0.00136
1035.53642	0.00109
1033.60805	0.00083
1031.67967	0.00119
1029.75130	0.00135
1027.82293	0.00104
1025.89455	0.00077
1023.96618	0.00102
1022.03781	0.00132
1020.10943	0.00128
1018.18106	0.00158
1016.25269	0.00224
1014.32431	0.00358
1012.39594	0.00485
1010.46757	0.00646
1008.53919	0.00871
1006.61082	0.01135
1004.68245	0.01400
1002.75407	0.01699
1000.82570	0.02089
998.89733	0.02553
996.96896	0.02983
995.04058	0.03327
993.11221	0.03643
991.18384	0.03974
989.25546	0.04301
987.32709	0.04597
985.39872	0.04807
983.47034	0.04848
981.54197	0.04706
979.61360	0.04500
977.68522	0.04337
975.75685	0.04263
973.82848	0.04406
971.90010	0.04852
969.97173	0.05500
968.04336	0.06216
966.11498	0.06850
964.18661	0.07189
962.25824	0.07046
960.32986	0.06312
958.40149	0.05186
956.47312	0.04240
954.54474	0.03918
952.61637	0.04238
950.68800	0.05011
948.75962	0.05973
946.83125	0.06886
944.90288	0.07656
942.97451	0.08337
941.04613	0.08985
939.11776	0.09529
937.18939	0.09890
935.26101	0.10132
933.33264	0.10330
931.40427	0.10414
929.47589	0.10357
927.54752	0.10245
925.61915	0.10103
923.69077	0.09952
921.76240	0.09854
919.83403	0.09825
917.90565	0.09873
915.97728	0.09981
914.04891	0.10049
912.12053	0.09963
910.19216	0.09701
908.26379	0.09307
906.33541	0.08821
904.40704	0.08284
902.47867	0.07742
900.55029	0.07242
898.62192	0.06876
896.69355	0.06735
894.76517	0.06770
892.83680	0.06853
890.90843	0.06932
888.98005	0.07024
887.05168	0.07169
885.12331	0.07381
883.19494	0.07582
881.26656	0.07673
879.33819	0.07669
877.40982	0.07626
875.48144	0.07543
873.55307	0.07444
871.62470	0.07409
869.69632	0.07489
867.76795	0.07604
865.83958	0.07628
863.91120	0.07585
861.98283	0.07555
860.05446	0.07468
858.12608	0.07213
856.19771	0.06916
854.26934	0.06757
852.34096	0.06649
850.41259	0.06544
848.48422	0.06517
846.55584	0.06490
844.62747	0.06394
842.69910	0.06308
840.77072	0.06241
838.84235	0.06098
836.91398	0.05864
834.98560	0.05644
833.05723	0.05478
831.12886	0.05377
829.20049	0.05387
827.27211	0.05402
825.34374	0.05283
823.41537	0.05072
821.48699	0.04939
819.55862	0.04952
817.63025	0.04940
815.70187	0.04823
813.77350	0.04686
811.84513	0.04549
809.91675	0.04412
807.98838	0.04273
806.06001	0.04158
804.13163	0.04082
802.20326	0.03894
800.27489	0.03521
798.34651	0.03157
796.41814	0.02957
794.48977	0.02880
792.56139	0.02830
790.63302	0.02785
788.70465	0.02777
786.77627	0.02768
784.84790	0.02696
782.91953	0.02563
780.99115	0.02459
779.06278	0.02424
777.13441	0.02385
775.20603	0.02285
773.27766	0.02168
771.34929	0.02108
769.42092	0.02091
767.49254	0.02127
765.56417	0.02244
763.63580	0.02310
761.70742	0.02185
759.77905	0.01952
757.85068	0.01725
755.92230	0.01518
753.99393	0.01372
752.06556	0.01351
750.13718	0.01376
748.20881	0.01341
746.28044	0.01350
744.35206	0.01510
742.42369	0.01643
740.49532	0.01637
738.56694	0.01580
736.63857	0.01550
734.71020	0.01573
732.78182	0.01585
730.85345	0.01603
728.92508	0.01632
726.99670	0.01594
725.06833	0.01459
723.13996	0.01311
721.21158	0.01226
719.28321	0.01138
717.35484	0.01015
715.42647	0.00957
713.49809	0.00947
711.56972	0.00898
709.64135	0.00821
707.71297	0.00830
705.78460	0.00965
703.85623	0.01023
701.92785	0.00996
699.99948	0.01058
698.07111	0.01128
696.14273	0.01132
694.21436	0.01146
692.28599	0.01204
690.35761	0.01157
688.42924	0.01055
686.50087	0.01107
684.57249	0.01278
682.64412	0.01414
680.71575	0.01448
678.78737	0.01431
676.85900	0.01453
674.93063	0.01513
673.00225	0.01518
671.07388	0.01523
669.14551	0.01572
667.21713	0.01654
665.28876	0.01780
663.36039	0.01825
661.43201	0.01721
659.50364	0.01659
657.57527	0.01701
655.64690	0.01694
653.71852	0.01613
651.79015	0.01555
649.86178	0.01536
647.93340	0.01548
646.00503	0.01571
644.07666	0.01517
642.14828	0.01360
640.21991	0.01145
638.29154	0.00853
636.36316	0.00688
634.43479	0.00752
632.50642	0.00743
630.57804	0.00703
628.64967	0.01018
626.72130	0.01300
624.79292	0.01326
622.86455	0.01309
620.93618	0.01363
619.00780	0.01262
617.07943	0.00891
615.15106	0.00727
613.22268	0.00929
611.29431	0.01162
609.36594	0.01245
607.43756	0.01218
605.50919	0.01090
603.58082	0.00984
601.65244	0.01237
599.72407	0.00917
