3997.51769	0.80155
3995.58931	0.80076
3993.66094	0.80048
3991.73257	0.80054
3989.80419	0.80082
3987.87582	0.80154
3985.94745	0.80219
3984.01907	0.80221
3982.09070	0.80194
3980.16233	0.80180
3978.23396	0.80149
3976.30558	0.80055
3974.37721	0.79972
3972.44884	0.79981
3970.52046	0.80044
3968.59209	0.80172
3966.66372	0.80359
3964.73534	0.80416
3962.80697	0.80263
3960.87860	0.80158
3958.95022	0.80234
3957.02185	0.80357
3955.09348	0.80449
3953.16510	0.80372
3951.23673	0.79995
3949.30836	0.79611
3947.37998	0.79693
3945.45161	0.79904
3943.52324	0.79773
3941.59486	0.79887
3939.66649	0.80508
3937.73812	0.80969
3935.80974	0.80856
3933.88137	0.80177
3931.95300	0.79535
3930.02462	0.79696
3928.09625	0.80201
3926.16788	0.80172
3924.23950	0.79936
3922.31113	0.80086
3920.38276	0.80132
3918.45439	0.79854
3916.52601	0.80041
3914.59764	0.80968
3912.66927	0.81852
3910.74089	0.82177
3908.81252	0.81848
3906.88415	0.80588
3904.95577	0.78644
3903.02740	0.77313
3901.09903	0.77364
3899.17065	0.78520
3897.24228	0.80246
3895.31391	0.81282
3893.38553	0.80866
3891.45716	0.80191
3889.52879	0.80576
3887.60041	0.80720
3885.67204	0.79996
3883.74367	0.79611
3881.81529	0.79480
3879.88692	0.79804
3877.95855	0.81022
3876.03017	0.81310
3874.10180	0.80245
3872.17343	0.79101
3870.24505	0.78528
3868.31668	0.79036
3866.38831	0.79626
3864.45994	0.79429
3862.53156	0.79867
3860.60319	0.81166
3858.67482	0.81619
3856.74644	0.80478
3854.81807	0.77993
3852.88970	0.76431
3850.96132	0.78554
3849.03295	0.81355
3847.10458	0.82630
3845.17620	0.82193
3843.24783	0.80744
3841.31946	0.79136
3839.39108	0.77898
3837.46271	0.77867
3835.53434	0.79076
3833.60596	0.80271
3831.67759	0.81194
3829.74922	0.81922
3827.82084	0.82063
3825.89247	0.81801
3823.96410	0.81051
3822.03572	0.79288
3820.10735	0.78379
3818.17898	0.79301
3816.25060	0.80335
3814.32223	0.81899
3812.39386	0.83618
3810.46548	0.84000
3808.53711	0.82857
3806.60874	0.81523
3804.68037	0.80885
3802.75199	0.79856
3800.82362	0.79277
3798.89525	0.80301
3796.96687	0.81476
3795.03850	0.82770
3793.11013	0.84186
3791.18175	0.84899
3789.25338	0.84912
3787.32501	0.84460
3785.39663	0.83841
3783.46826	0.83597
3781.53989	0.83281
3779.61151	0.82718
3777.68314	0.83127
3775.75477	0.84224
3773.82639	0.84493
3771.89802	0.83494
3769.96965	0.82178
3768.04127	0.81793
3766.11290	0.82105
3764.18453	0.82625
3762.25615	0.82697
3760.32778	0.81672
3758.39941	0.80698
3756.47103	0.80690
3754.54266	0.80182
3752.61429	0.78119
3750.68591	0.76096
3748.75754	0.76420
3746.82917	0.77149
3744.90080	0.77131
3742.97242	0.78038
3741.04405	0.79372
3739.11568	0.79242
3737.18730	0.77312
3735.25893	0.75286
3733.33056	0.75886
3731.40218	0.78529
3729.47381	0.80486
3727.54544	0.80637
3725.61706	0.79818
3723.68869	0.79375
3721.76032	0.79654
3719.83194	0.80370
3717.90357	0.81059
3715.97520	0.81012
3714.04682	0.79567
3712.11845	0.77186
3710.19008	0.76442
3708.26170	0.78160
3706.33333	0.79894
3704.40496	0.80086
3702.47658	0.79146
3700.54821	0.78750
3698.61984	0.79171
3696.69146	0.79184
3694.76309	0.78308
3692.83472	0.76394
3690.90635	0.73694
3688.97797	0.72104
3687.04960	0.72912
3685.12123	0.74092
3683.19285	0.74075
3681.26448	0.72713
3679.33611	0.70369
3677.40773	0.67279
3675.47936	0.64342
3673.55099	0.63494
3671.62261	0.63113
3669.69424	0.61979
3667.76587	0.61855
3665.83749	0.62276
3663.90912	0.61719
3661.98075	0.60278
3660.05237	0.58427
3658.12400	0.56187
3656.19563	0.53785
3654.26725	0.51786
3652.33888	0.49439
3650.41051	0.45910
3648.48213	0.42974
3646.55376	0.42552
3644.62539	0.42881
3642.69701	0.42413
3640.76864	0.41145
3638.84027	0.39593
3636.91189	0.37960
3634.98352	0.36213
3633.05515	0.34403
3631.12678	0.32447
3629.19840	0.30215
3627.27003	0.28806
3625.34166	0.28406
3623.41328	0.27695
3621.48491	0.26275
3619.55654	0.24490
3617.62816	0.23086
3615.69979	0.22141
3613.77142	0.21167
3611.84304	0.20200
3609.91467	0.19304
3607.98630	0.18406
3606.05792	0.17683
3604.12955	0.17067
3602.20118	0.16254
3600.27280	0.15316
3598.34443	0.14471
3596.41606	0.13698
3594.48768	0.12976
3592.55931	0.12343
3590.63094	0.11705
3588.70256	0.10899
3586.77419	0.10141
3584.84582	0.09721
3582.91744	0.09390
3580.98907	0.08943
3579.06070	0.08440
3577.13233	0.07962
3575.20395	0.07491
3573.27558	0.07029
3571.34721	0.06575
3569.41883	0.06067
3567.49046	0.05532
3565.56209	0.05135
3563.63371	0.04907
3561.70534	0.04692
3559.77697	0.04442
3557.84859	0.04170
3555.92022	0.03879
3553.99185	0.03583
3552.06347	0.03303
3550.13510	0.03073
3548.20673	0.02861
3546.27835	0.02638
3544.34998	0.02431
3542.42161	0.02257
3540.49323	0.02098
3538.56486	0.01932
3536.63649	0.01776
3534.70811	0.01623
3532.77974	0.01470
3530.85137	0.01326
3528.92299	0.01202
3526.99462	0.01090
3525.06625	0.00967
3523.13787	0.00835
3521.20950	0.00709
3519.28113	0.00612
3517.35276	0.00531
3515.42438	0.00458
3513.49601	0.00394
3511.56764	0.00310
3509.63926	0.00231
3507.71089	0.00185
3505.78252	0.00151
3503.85414	0.00110
3501.92577	0.00071
3499.99740	0.00048
3498.06902	0.00064
3496.14065	0.00077
3494.21228	0.00086
3492.28390	0.00095
3490.35553	0.00105
3488.42716	0.00117
3486.49878	0.00130
3484.57041	0.00144
3482.64204	0.00129
3480.71366	0.00114
3478.78529	0.00113
3476.85692	0.00104
3474.92854	0.00092
3473.00017	0.00100
3471.07180	0.00123
3469.14342	0.00141
3467.21505	0.00146
3465.28668	0.00132
3463.35831	0.00111
3461.42993	0.00099
3459.50156	0.00098
3457.57319	0.00122
3455.64481	0.00146
3453.71644	0.00128
3451.78807	0.00096
3449.85969	0.00094
3447.93132	0.00101
3446.00295	0.00083
3444.07457	0.00090
3442.14620	0.00110
3440.21783	0.00107
3438.28945	0.00110
3436.36108	0.00153
3434.43271	0.00196
3432.50433	0.00196
3430.57596	0.00173
3428.64759	0.00165
3426.71921	0.00181
3424.79084	0.00197
3422.86247	0.00185
3420.93409	0.00164
3419.00572	0.00163
3417.07735	0.00169
3415.14897	0.00155
3413.22060	0.00127
3411.29223	0.00113
3409.36385	0.00126
3407.43548	0.00145
3405.50711	0.00160
3403.57874	0.00175
3401.65036	0.00174
3399.72199	0.00151
3397.79362	0.00136
3395.86524	0.00131
3393.93687	0.00122
3392.00850	0.00128
3390.08012	0.00134
3388.15175	0.00136
3386.22338	0.00144
3384.29500	0.00148
3382.36663	0.00145
3380.43826	0.00148
3378.50988	0.00165
3376.58151	0.00179
3374.65314	0.00175
3372.72476	0.00156
3370.79639	0.00131
3368.86802	0.00117
3366.93964	0.00128
3365.01127	0.00150
3363.08290	0.00145
3361.15452	0.00114
3359.22615	0.00105
3357.29778	0.00133
3355.36940	0.00151
3353.44103	0.00134
3351.51266	0.00107
3349.58428	0.00103
3347.65591	0.00126
3345.72754	0.00143
3343.79917	0.00148
3341.87079	0.00158
3339.94242	0.00160
3338.01405	0.00153
3336.08567	0.00152
3334.15730	0.00151
3332.22893	0.00147
3330.30055	0.00152
3328.37218	0.00158
3326.44381	0.00148
3324.51543	0.00132
3322.58706	0.00127
3320.65869	0.00119
3318.73031	0.00109
3316.80194	0.00126
3314.87357	0.00154
3312.94519	0.00160
3311.01682	0.00164
3309.08845	0.00163
3307.16007	0.00142
3305.23170	0.00131
3303.30333	0.00143
3301.37495	0.00155
3299.44658	0.00157
3297.51821	0.00149
3295.58983	0.00144
3293.66146	0.00140
3291.73309	0.00123
3289.80472	0.00097
3287.87634	0.00082
3285.94797	0.00104
3284.01960	0.00124
3282.09122	0.00141
3280.16285	0.00148
3278.23448	0.00144
3276.30610	0.00148
3274.37773	0.00148
3272.44936	0.00144
3270.52098	0.00128
3268.59261	0.00115
3266.66424	0.00121
3264.73586	0.00132
3262.80749	0.00136
3260.87912	0.00142
3258.95074	0.00168
3257.02237	0.00197
3255.09400	0.00189
3253.16562	0.00151
3251.23725	0.00131
3249.30888	0.00127
3247.38050	0.00121
3245.45213	0.00108
3243.52376	0.00095
3241.59538	0.00084
3239.66701	0.00069
3237.73864	0.00069
3235.81026	0.00098
3233.88189	0.00126
3231.95352	0.00138
3230.02515	0.00140
3228.09677	0.00122
3226.16840	0.00106
3224.24003	0.00115
3222.31165	0.00134
3220.38328	0.00141
3218.45491	0.00141
3216.52653	0.00149
3214.59816	0.00154
3212.66979	0.00144
3210.74141	0.00146
3208.81304	0.00154
3206.88467	0.00136
3204.95629	0.00114
3203.02792	0.00111
3201.09955	0.00112
3199.17117	0.00104
3197.24280	0.00101
3195.31443	0.00123
3193.38605	0.00143
3191.45768	0.00129
3189.52931	0.00098
3187.60093	0.00095
3185.67256	0.00116
3183.74419	0.00140
3181.81581	0.00164
3179.88744	0.00180
3177.95907	0.00174
3176.03070	0.00155
3174.10232	0.00138
3172.17395	0.00141
3170.24558	0.00154
3168.31720	0.00169
3166.38883	0.00183
3164.46046	0.00188
3162.53208	0.00184
3160.60371	0.00180
3158.67534	0.00177
3156.74696	0.00180
3154.81859	0.00182
3152.89022	0.00189
3150.96184	0.00201
3149.03347	0.00213
3147.10510	0.00213
3145.17672	0.00209
3143.24835	0.00202
3141.31998	0.00194
3139.39160	0.00193
3137.46323	0.00192
3135.53486	0.00185
3133.60648	0.00178
3131.67811	0.00169
3129.74974	0.00166
3127.82136	0.00171
3125.89299	0.00170
3123.96462	0.00172
3122.03624	0.00179
3120.10787	0.00182
3118.17950	0.00183
3116.25113	0.00189
3114.32275	0.00191
3112.39438	0.00187
3110.46601	0.00178
3108.53763	0.00175
3106.60926	0.00173
3104.68089	0.00168
3102.75251	0.00162
3100.82414	0.00161
3098.89577	0.00156
3096.96739	0.00154
3095.03902	0.00173
3093.11065	0.00199
3091.18227	0.00213
3089.25390	0.00210
3087.32553	0.00199
3085.39715	0.00185
3083.46878	0.00180
3081.54041	0.00199
3079.61203	0.00225
3077.68366	0.00244
3075.75529	0.00258
3073.82691	0.00266
3071.89854	0.00264
3069.97017	0.00268
3068.04179	0.00283
3066.11342	0.00296
3064.18505	0.00302
3062.25668	0.00309
3060.32830	0.00336
3058.39993	0.00365
3056.47156	0.00373
3054.54318	0.00379
3052.61481	0.00398
3050.68644	0.00416
3048.75806	0.00431
3046.82969	0.00457
3044.90132	0.00484
3042.97294	0.00501
3041.04457	0.00508
3039.11620	0.00515
3037.18782	0.00535
3035.25945	0.00573
3033.33108	0.00620
3031.40270	0.00655
3029.47433	0.00664
3027.54596	0.00660
3025.61758	0.00672
3023.68921	0.00703
3021.76084	0.00733
3019.83246	0.00747
3017.90409	0.00755
3015.97572	0.00766
3014.04734	0.00776
3012.11897	0.00793
3010.19060	0.00829
3008.26222	0.00870
3006.33385	0.00884
3004.40548	0.00878
3002.47711	0.00879
3000.54873	0.00879
2998.62036	0.00858
2996.69199	0.00838
2994.76361	0.00839
2992.83524	0.00842
2990.90687	0.00828
2988.97849	0.00783
2987.05012	0.00717
2985.12175	0.00655
2983.19337	0.00612
2981.26500	0.00583
2979.33663	0.00554
2977.40825	0.00518
2975.47988	0.00486
2973.55151	0.00469
2971.62313	0.00455
2969.69476	0.00432
2967.76639	0.00395
2965.83801	0.00345
2963.90964	0.00313
2961.98127	0.00326
2960.05289	0.00357
2958.12452	0.00359
2956.19615	0.00344
2954.26777	0.00368
2952.33940	0.00442
2950.41103	0.00501
2948.48266	0.00507
2946.55428	0.00482
2944.62591	0.00450
2942.69754	0.00414
2940.76916	0.00372
2938.84079	0.00340
2936.91242	0.00325
2934.98404	0.00318
2933.05567	0.00311
2931.12730	0.00297
2929.19892	0.00287
2927.27055	0.00310
2925.34218	0.00348
2923.41380	0.00371
2921.48543	0.00396
2919.55706	0.00440
2917.62868	0.00503
2915.70031	0.00574
2913.77194	0.00630
2911.84356	0.00671
2909.91519	0.00723
2907.98682	0.00778
2906.05844	0.00826
2904.13007	0.00875
2902.20170	0.00913
2900.27332	0.00923
2898.34495	0.00921
2896.41658	0.00921
2894.48820	0.00921
2892.55983	0.00924
2890.63146	0.00949
2888.70309	0.00991
2886.77471	0.01022
2884.84634	0.01047
2882.91797	0.01073
2880.98959	0.01094
2879.06122	0.01097
2877.13285	0.01078
2875.20447	0.01068
2873.27610	0.01106
2871.34773	0.01183
2869.41935	0.01275
2867.49098	0.01367
2865.56261	0.01455
2863.63423	0.01541
2861.70586	0.01612
2859.77749	0.01660
2857.84911	0.01696
2855.92074	0.01743
2853.99237	0.01822
2852.06399	0.01935
2850.13562	0.02079
2848.20725	0.02262
2846.27887	0.02476
2844.35050	0.02682
2842.42213	0.02849
2840.49375	0.02985
2838.56538	0.03094
2836.63701	0.03179
2834.70863	0.03251
2832.78026	0.03321
2830.85189	0.03393
2828.92352	0.03458
2826.99514	0.03505
2825.06677	0.03546
2823.13840	0.03601
2821.21002	0.03673
2819.28165	0.03739
2817.35328	0.03782
2815.42490	0.03818
2813.49653	0.03875
2811.56816	0.03956
2809.63978	0.04042
2807.71141	0.04114
2805.78304	0.04183
2803.85466	0.04257
2801.92629	0.04328
2799.99792	0.04405
2798.06954	0.04498
2796.14117	0.04600
2794.21280	0.04704
2792.28442	0.04807
2790.35605	0.04905
2788.42768	0.04996
2786.49930	0.05080
2784.57093	0.05162
2782.64256	0.05248
2780.71418	0.05346
2778.78581	0.05451
2776.85744	0.05551
2774.92907	0.05634
2773.00069	0.05704
2771.07232	0.05776
2769.14395	0.05861
2767.21557	0.05959
2765.28720	0.06067
2763.35883	0.06173
2761.43045	0.06278
2759.50208	0.06387
2757.57371	0.06502
2755.64533	0.06621
2753.71696	0.06743
2751.78859	0.06858
2749.86021	0.06974
2747.93184	0.07107
2746.00347	0.07256
2744.07509	0.07401
2742.14672	0.07540
2740.21835	0.07677
2738.28997	0.07819
2736.36160	0.07975
2734.43323	0.08134
2732.50485	0.08281
2730.57648	0.08417
2728.64811	0.08547
2726.71973	0.08672
2724.79136	0.08802
2722.86299	0.08941
2720.93461	0.09086
2719.00624	0.09231
2717.07787	0.09371
2715.14950	0.09510
2713.22112	0.09641
2711.29275	0.09757
2709.36438	0.09867
2707.43600	0.09977
2705.50763	0.10082
2703.57926	0.10186
2701.65088	0.10294
2699.72251	0.10403
2697.79414	0.10503
2695.86576	0.10583
2693.93739	0.10656
2692.00902	0.10733
2690.08064	0.10819
2688.15227	0.10916
2686.22390	0.11021
2684.29552	0.11118
2682.36715	0.11215
2680.43878	0.11328
2678.51040	0.11454
2676.58203	0.11587
2674.65366	0.11736
2672.72528	0.11892
2670.79691	0.12035
2668.86854	0.12169
2666.94016	0.12315
2665.01179	0.12469
2663.08342	0.12619
2661.15505	0.12768
2659.22667	0.12911
2657.29830	0.13044
2655.36993	0.13177
2653.44155	0.13317
2651.51318	0.13456
2649.58481	0.13592
2647.65643	0.13737
2645.72806	0.13891
2643.79969	0.14038
2641.87131	0.14175
2639.94294	0.14316
2638.01457	0.14474
2636.08619	0.14639
2634.15782	0.14806
2632.22945	0.14980
2630.30107	0.15158
2628.37270	0.15325
2626.44433	0.15487
2624.51595	0.15659
2622.58758	0.15848
2620.65921	0.16046
2618.73083	0.16245
2616.80246	0.16446
2614.87409	0.16653
2612.94571	0.16875
2611.01734	0.17109
2609.08897	0.17333
2607.16059	0.17543
2605.23222	0.17750
2603.30385	0.17962
2601.37548	0.18175
2599.44710	0.18384
2597.51873	0.18595
2595.59036	0.18814
2593.66198	0.19039
2591.73361	0.19255
2589.80524	0.19449
2587.87686	0.19638
2585.94849	0.19843
2584.02012	0.20058
2582.09174	0.20275
2580.16337	0.20497
2578.23500	0.20725
2576.30662	0.20946
2574.37825	0.21163
2572.44988	0.21385
2570.52150	0.21615
2568.59313	0.21848
2566.66476	0.22090
2564.73638	0.22336
2562.80801	0.22585
2560.87964	0.22840
2558.95126	0.23094
2557.02289	0.23338
2555.09452	0.23574
2553.16614	0.23809
2551.23777	0.24048
2549.30940	0.24289
2547.38103	0.24523
2545.45265	0.24741
2543.52428	0.24936
2541.59591	0.25111
2539.66753	0.25289
2537.73916	0.25474
2535.81079	0.25659
2533.88241	0.25840
2531.95404	0.26020
2530.02567	0.26199
2528.09729	0.26378
2526.16892	0.26565
2524.24055	0.26754
2522.31217	0.26951
2520.38380	0.27154
2518.45543	0.27357
2516.52705	0.27569
2514.59868	0.27786
2512.67031	0.27980
2510.74193	0.28155
2508.81356	0.28348
2506.88519	0.28563
2504.95681	0.28777
2503.02844	0.28977
2501.10007	0.29176
2499.17169	0.29389
2497.24332	0.29604
2495.31495	0.29814
2493.38657	0.30019
2491.45820	0.30220
2489.52983	0.30426
2487.60146	0.30648
2485.67308	0.30877
2483.74471	0.31096
2481.81634	0.31309
2479.88796	0.31524
2477.95959	0.31748
2476.03122	0.31986
2474.10284	0.32231
2472.17447	0.32475
2470.24610	0.32714
2468.31772	0.32963
2466.38935	0.33238
2464.46098	0.33529
2462.53260	0.33812
2460.60423	0.34081
2458.67586	0.34356
2456.74748	0.34648
2454.81911	0.34941
2452.89074	0.35223
2450.96236	0.35495
2449.03399	0.35768
2447.10562	0.36042
2445.17724	0.36310
2443.24887	0.36577
2441.32050	0.36846
2439.39212	0.37114
2437.46375	0.37381
2435.53538	0.37649
2433.60700	0.37914
2431.67863	0.38173
2429.75026	0.38421
2427.82189	0.38667
2425.89351	0.38922
2423.96514	0.39178
2422.03677	0.39427
2420.10839	0.39669
2418.18002	0.39909
2416.25165	0.40151
2414.32327	0.40404
2412.39490	0.40667
2410.46653	0.40936
2408.53815	0.41217
2406.60978	0.41512
2404.68141	0.41813
2402.75303	0.42111
2400.82466	0.42407
2398.89629	0.42704
2396.96791	0.43006
2395.03954	0.43307
2393.11117	0.43596
2391.18279	0.43880
2389.25442	0.44149
2387.32605	0.44371
2385.39767	0.44532
2383.46930	0.44647
2381.54093	0.44711
2379.61255	0.44721
2377.68418	0.44713
2375.75581	0.44713
2373.82744	0.44700
2371.89906	0.44655
2369.97069	0.44577
2368.04232	0.44500
2366.11394	0.44488
2364.18557	0.44550
2362.25720	0.44665
2360.32882	0.44846
2358.40045	0.45124
2356.47208	0.45555
2354.54370	0.46135
2352.61533	0.46760
2350.68696	0.47270
2348.75858	0.47546
2346.83021	0.47591
2344.90184	0.47511
2342.97346	0.47499
2341.04509	0.47644
2339.11672	0.47873
2337.18834	0.48111
2335.25997	0.48314
2333.33160	0.48458
2331.40322	0.48606
2329.47485	0.48830
2327.54648	0.49082
2325.61810	0.49312
2323.68973	0.49572
2321.76136	0.49922
2319.83298	0.50344
2317.90461	0.50766
2315.97624	0.51140
2314.04787	0.51487
2312.11949	0.51845
2310.19112	0.52222
2308.26275	0.52622
2306.33437	0.53052
2304.40600	0.53474
2302.47763	0.53842
2300.54925	0.54172
2298.62088	0.54489
2296.69251	0.54798
2294.76413	0.55096
2292.83576	0.55385
2290.90739	0.55660
2288.97901	0.55918
2287.05064	0.56160
2285.12227	0.56386
2283.19389	0.56600
2281.26552	0.56787
2279.33715	0.56927
2277.40877	0.57039
2275.48040	0.57165
2273.55203	0.57311
2271.62365	0.57462
2269.69528	0.57615
2267.76691	0.57767
2265.83853	0.57913
2263.91016	0.58052
2261.98179	0.58194
2260.05342	0.58351
2258.12504	0.58518
2256.19667	0.58683
2254.26830	0.58847
2252.33992	0.59024
2250.41155	0.59212
2248.48318	0.59396
2246.55480	0.59568
2244.62643	0.59735
2242.69806	0.59897
2240.76968	0.60038
2238.84131	0.60160
2236.91294	0.60274
2234.98456	0.60379
2233.05619	0.60480
2231.12782	0.60588
2229.19944	0.60695
2227.27107	0.60794
2225.34270	0.60893
2223.41432	0.60986
2221.48595	0.61072
2219.55758	0.61167
2217.62920	0.61265
2215.70083	0.61353
2213.77246	0.61438
2211.84408	0.61532
2209.91571	0.61623
2207.98734	0.61704
2206.05896	0.61782
2204.13059	0.61857
2202.20222	0.61932
2200.27385	0.62004
2198.34547	0.62062
2196.41710	0.62109
2194.48873	0.62167
2192.56035	0.62232
2190.63198	0.62287
2188.70361	0.62333
2186.77523	0.62383
2184.84686	0.62446
2182.91849	0.62518
2180.99011	0.62581
2179.06174	0.62633
2177.13337	0.62682
2175.20499	0.62723
2173.27662	0.62756
2171.34825	0.62789
2169.41987	0.62821
2167.49150	0.62849
2165.56313	0.62877
2163.63475	0.62906
2161.70638	0.62935
2159.77801	0.62974
2157.84963	0.63027
2155.92126	0.63097
2153.99289	0.63175
2152.06451	0.63244
2150.13614	0.63300
2148.20777	0.63343
2146.27940	0.63386
2144.35102	0.63445
2142.42265	0.63518
2140.49428	0.63588
2138.56590	0.63646
2136.63753	0.63705
2134.70916	0.63789
2132.78078	0.63892
2130.85241	0.63994
2128.92404	0.64097
2126.99566	0.64211
2125.06729	0.64334
2123.13892	0.64457
2121.21054	0.64589
2119.28217	0.64728
2117.35380	0.64862
2115.42542	0.64989
2113.49705	0.65116
2111.56868	0.65244
2109.64030	0.65372
2107.71193	0.65494
2105.78356	0.65605
2103.85518	0.65703
2101.92681	0.65793
2099.99844	0.65882
2098.07006	0.65967
2096.14169	0.66048
2094.21332	0.66114
2092.28494	0.66140
2090.35657	0.66149
2088.42820	0.66191
2086.49983	0.66266
2084.57145	0.66334
2082.64308	0.66374
2080.71471	0.66387
2078.78633	0.66382
2076.85796	0.66379
2074.92959	0.66388
2073.00121	0.66401
2071.07284	0.66411
2069.14447	0.66396
2067.21609	0.66328
2065.28772	0.66279
2063.35935	0.66341
2061.43097	0.66461
2059.50260	0.66558
2057.57423	0.66644
2055.64585	0.66725
2053.71748	0.66811
2051.78911	0.66918
2049.86073	0.67029
2047.93236	0.67127
2046.00399	0.67199
2044.07561	0.67231
2042.14724	0.67260
2040.21887	0.67368
2038.29049	0.67533
2036.36212	0.67670
2034.43375	0.67761
2032.50538	0.67829
2030.57700	0.67881
2028.64863	0.67920
2026.72026	0.67946
2024.79188	0.67965
2022.86351	0.67980
2020.93514	0.67939
2019.00676	0.67801
2017.07839	0.67727
2015.15002	0.67880
2013.22164	0.68102
2011.29327	0.68216
2009.36490	0.68270
2007.43652	0.68343
2005.50815	0.68439
2003.57978	0.68530
2001.65140	0.68592
1999.72303	0.68636
1997.79466	0.68693
1995.86628	0.68665
1993.93791	0.68415
1992.00954	0.68185
1990.08116	0.68303
1988.15279	0.68601
1986.22442	0.68837
1984.29604	0.68987
1982.36767	0.69051
1980.43930	0.69067
1978.51092	0.69078
1976.58255	0.69097
1974.65418	0.69124
1972.72581	0.69148
1970.79743	0.69077
1968.86906	0.68833
1966.94069	0.68683
1965.01231	0.68888
1963.08394	0.69183
1961.15557	0.69313
1959.22719	0.69357
1957.29882	0.69369
1955.37045	0.69379
1953.44207	0.69458
1951.51370	0.69564
1949.58533	0.69585
1947.65695	0.69467
1945.72858	0.69147
1943.80021	0.68707
1941.87183	0.68694
1939.94346	0.69259
1938.01509	0.69737
1936.08671	0.69847
1934.15834	0.69826
1932.22997	0.69832
1930.30159	0.69874
1928.37322	0.69890
1926.44485	0.69716
1924.51647	0.69259
1922.58810	0.68905
1920.65973	0.68825
1918.73135	0.68732
1916.80298	0.68925
1914.87461	0.69460
1912.94624	0.69659
1911.01786	0.69397
1909.08949	0.69190
1907.16112	0.69333
1905.23274	0.69575
1903.30437	0.69683
1901.37600	0.69709
1899.44762	0.69649
1897.51925	0.69397
1895.59088	0.69092
1893.66250	0.68955
1891.73413	0.68687
1889.80576	0.68304
1887.87738	0.68421
1885.94901	0.68825
1884.02064	0.69005
1882.09226	0.69029
1880.16389	0.68991
1878.23552	0.68913
1876.30714	0.68832
1874.37877	0.68661
1872.45040	0.68036
1870.52202	0.66723
1868.59365	0.65676
1866.66528	0.66103
1864.73690	0.67158
1862.80853	0.67656
1860.88016	0.67631
1858.95179	0.67496
1857.02341	0.67416
1855.09504	0.67342
1853.16667	0.67208
1851.23829	0.66931
1849.30992	0.66371
1847.38155	0.65447
1845.45317	0.64353
1843.52480	0.64106
1841.59643	0.64999
1839.66805	0.65667
1837.73968	0.65650
1835.81131	0.65514
1833.88293	0.65240
1831.95456	0.64247
1830.02619	0.63066
1828.09781	0.62815
1826.16944	0.63003
1824.24107	0.63203
1822.31269	0.63648
1820.38432	0.63853
1818.45595	0.63572
1816.52757	0.63158
1814.59920	0.62607
1812.67083	0.61677
1810.74245	0.60729
1808.81408	0.60303
1806.88571	0.60073
1804.95733	0.59405
1803.02896	0.58108
1801.10059	0.56628
1799.17222	0.55658
1797.24384	0.54973
1795.31547	0.53771
1793.38710	0.51911
1791.45872	0.50543
1789.53035	0.50375
1787.60198	0.50127
1785.67360	0.49103
1783.74523	0.47773
1781.81686	0.46491
1779.88848	0.45392
1777.96011	0.44498
1776.03174	0.43300
1774.10336	0.41424
1772.17499	0.39531
1770.24662	0.38676
1768.31824	0.38389
1766.38987	0.37839
1764.46150	0.36702
1762.53312	0.34872
1760.60475	0.32911
1758.67638	0.31115
1756.74800	0.29002
1754.81963	0.26682
1752.89126	0.24058
1750.96288	0.20743
1749.03451	0.17391
1747.10614	0.14703
1745.17777	0.12347
1743.24939	0.10064
1741.32102	0.07913
1739.39265	0.05991
1737.46427	0.04558
1735.53590	0.03446
1733.60753	0.02366
1731.67915	0.01641
1729.75078	0.01244
1727.82241	0.00937
1725.89403	0.00683
1723.96566	0.00483
1722.03729	0.00325
1720.10891	0.00206
1718.18054	0.00118
1716.25217	0.00080
1714.32379	0.00075
1712.39542	0.00080
1710.46705	0.00086
1708.53867	0.00095
1706.61030	0.00123
1704.68193	0.00141
1702.75355	0.00144
1700.82518	0.00157
1698.89681	0.00178
1696.96843	0.00173
1695.04006	0.00162
1693.11169	0.00158
1691.18331	0.00159
1689.25494	0.00157
1687.32657	0.00153
1685.39820	0.00173
1683.46982	0.00177
1681.54145	0.00146
1679.61308	0.00126
1677.68470	0.00124
1675.75633	0.00132
1673.82796	0.00136
1671.89958	0.00135
1669.97121	0.00131
1668.04284	0.00124
1666.11446	0.00121
1664.18609	0.00133
1662.25772	0.00144
1660.32934	0.00135
1658.40097	0.00121
1656.47260	0.00125
1654.54422	0.00159
1652.61585	0.00173
1650.68748	0.00149
1648.75910	0.00155
1646.83073	0.00171
1644.90236	0.00156
1642.97398	0.00130
1641.04561	0.00123
1639.11724	0.00141
1637.18886	0.00168
1635.26049	0.00173
1633.33212	0.00151
1631.40375	0.00138
1629.47537	0.00137
1627.54700	0.00135
1625.61863	0.00128
1623.69025	0.00131
1621.76188	0.00141
1619.83351	0.00150
1617.90513	0.00163
1615.97676	0.00162
1614.04839	0.00147
1612.12001	0.00140
1610.19164	0.00142
1608.26327	0.00145
1606.33489	0.00140
1604.40652	0.00129
1602.47815	0.00116
1600.54977	0.00111
1598.62140	0.00112
1596.69303	0.00115
1594.76465	0.00120
1592.83628	0.00127
1590.90791	0.00126
1588.97953	0.00116
1587.05116	0.00113
1585.12279	0.00114
1583.19441	0.00101
1581.26604	0.00091
1579.33767	0.00102
1577.40929	0.00130
1575.48092	0.00145
1573.55255	0.00131
1571.62418	0.00119
1569.69580	0.00123
1567.76743	0.00127
1565.83906	0.00128
1563.91068	0.00131
1561.98231	0.00143
1560.05394	0.00180
1558.12556	0.00205
1556.19719	0.00184
1554.26882	0.00161
1552.34044	0.00143
1550.41207	0.00124
1548.48370	0.00112
1546.55532	0.00116
1544.62695	0.00133
1542.69858	0.00166
1540.77020	0.00211
1538.84183	0.00212
1536.91346	0.00173
1534.98508	0.00151
1533.05671	0.00142
1531.12834	0.00130
1529.19996	0.00128
1527.27159	0.00141
1525.34322	0.00163
1523.41484	0.00188
1521.48647	0.00197
1519.55810	0.00177
1517.62972	0.00155
1515.70135	0.00137
1513.77298	0.00127
1511.84461	0.00129
1509.91623	0.00142
1507.98786	0.00164
1506.05949	0.00168
1504.13111	0.00142
1502.20274	0.00141
1500.27437	0.00170
1498.34599	0.00235
1496.41762	0.00339
1494.48925	0.00453
1492.56087	0.00538
1490.63250	0.00622
1488.70413	0.00763
1486.77575	0.00940
1484.84738	0.01090
1482.91901	0.01197
1480.99063	0.01262
1479.06226	0.01279
1477.13389	0.01241
1475.20551	0.01143
1473.27714	0.01000
1471.34877	0.00882
1469.42039	0.00816
1467.49202	0.00751
1465.56365	0.00668
1463.63527	0.00588
1461.70690	0.00515
1459.77853	0.00430
1457.85016	0.00333
1455.92178	0.00279
1453.99341	0.00269
1452.06504	0.00259
1450.13666	0.00238
1448.20829	0.00223
1446.27992	0.00217
1444.35154	0.00209
1442.42317	0.00200
1440.49480	0.00200
1438.56642	0.00213
1436.63805	0.00229
1434.70968	0.00235
1432.78130	0.00242
1430.85293	0.00255
1428.92456	0.00264
1426.99618	0.00265
1425.06781	0.00256
1423.13944	0.00244
1421.21106	0.00245
1419.28269	0.00257
1417.35432	0.00254
1415.42594	0.00237
1413.49757	0.00233
1411.56920	0.00247
1409.64082	0.00257
1407.71245	0.00251
1405.78408	0.00252
1403.85570	0.00275
1401.92733	0.00301
1399.99896	0.00312
1398.07059	0.00302
1396.14221	0.00265
1394.21384	0.00225
1392.28547	0.00203
1390.35709	0.00193
1388.42872	0.00193
1386.50035	0.00197
1384.57197	0.00196
1382.64360	0.00198
1380.71523	0.00194
1378.78685	0.00178
1376.85848	0.00173
1374.93011	0.00189
1373.00173	0.00196
1371.07336	0.00184
1369.14499	0.00189
1367.21661	0.00244
1365.28824	0.00327
1363.35987	0.00411
1361.43149	0.00500
1359.50312	0.00586
1357.57475	0.00658
1355.64637	0.00725
1353.71800	0.00798
1351.78963	0.00863
1349.86125	0.00897
1347.93288	0.00900
1346.00451	0.00882
1344.07614	0.00859
1342.14776	0.00831
1340.21939	0.00790
1338.29102	0.00746
1336.36264	0.00698
1334.43427	0.00635
1332.50590	0.00567
1330.57752	0.00505
1328.64915	0.00450
1326.72078	0.00417
1324.79240	0.00423
1322.86403	0.00448
1320.93566	0.00471
1319.00728	0.00483
1317.07891	0.00485
1315.15054	0.00487
1313.22216	0.00500
1311.29379	0.00522
1309.36542	0.00535
1307.43704	0.00527
1305.50867	0.00513
1303.58030	0.00518
1301.65192	0.00542
1299.72355	0.00564
1297.79518	0.00578
1295.86680	0.00607
1293.93843	0.00655
1292.01006	0.00685
1290.08168	0.00676
1288.15331	0.00669
1286.22494	0.00692
1284.29657	0.00728
1282.36819	0.00758
1280.43982	0.00778
1278.51145	0.00791
1276.58307	0.00791
1274.65470	0.00767
1272.72633	0.00728
1270.79795	0.00687
1268.86958	0.00640
1266.94121	0.00592
1265.01283	0.00553
1263.08446	0.00533
1261.15609	0.00538
1259.22771	0.00563
1257.29934	0.00601
1255.37097	0.00641
1253.44259	0.00679
1251.51422	0.00724
1249.58585	0.00775
1247.65747	0.00820
1245.72910	0.00856
1243.80073	0.00887
1241.87235	0.00909
1239.94398	0.00923
1238.01561	0.00932
1236.08723	0.00961
1234.15886	0.01030
1232.23049	0.01122
1230.30212	0.01211
1228.37374	0.01301
1226.44537	0.01406
1224.51700	0.01531
1222.58862	0.01666
1220.66025	0.01799
1218.73188	0.01930
1216.80350	0.02045
1214.87513	0.02098
1212.94676	0.02038
1211.01838	0.01885
1209.09001	0.01735
1207.16164	0.01673
1205.23326	0.01735
1203.30489	0.01914
1201.37652	0.02169
1199.44814	0.02458
1197.51977	0.02768
1195.59140	0.03119
1193.66302	0.03474
1191.73465	0.03739
1189.80628	0.03867
1187.87790	0.03887
1185.94953	0.03846
1184.02116	0.03744
1182.09278	0.03563
1180.16441	0.03320
1178.23604	0.03020
1176.30766	0.02675
1174.37929	0.02309
1172.45092	0.01919
1170.52255	0.01514
1168.59417	0.01134
1166.66580	0.00803
1164.73743	0.00544
1162.80905	0.00391
1160.88068	0.00345
1158.95231	0.00365
1157.02393	0.00395
1155.09556	0.00413
1153.16719	0.00485
1151.23881	0.00715
1149.31044	0.01112
1147.38207	0.01601
1145.45369	0.02106
1143.52532	0.02548
1141.59695	0.02830
1139.66857	0.02895
1137.74020	0.02809
1135.81183	0.02657
1133.88345	0.02406
1131.95508	0.02016
1130.02671	0.01558
1128.09833	0.01139
1126.16996	0.00841
1124.24159	0.00666
1122.31321	0.00559
1120.38484	0.00501
1118.45647	0.00491
1116.52809	0.00493
1114.59972	0.00492
1112.67135	0.00534
1110.74298	0.00621
1108.81460	0.00731
1106.88623	0.00861
1104.95786	0.00998
1103.02948	0.01128
1101.10111	0.01230
1099.17274	0.01238
1097.24436	0.01121
1095.31599	0.00952
1093.38762	0.00784
1091.45924	0.00621
1089.53087	0.00494
1087.60250	0.00432
1085.67412	0.00423
1083.74575	0.00456
1081.81738	0.00507
1079.88900	0.00539
1077.96063	0.00548
1076.03226	0.00533
1074.10388	0.00491
1072.17551	0.00429
1070.24714	0.00374
1068.31876	0.00366
1066.39039	0.00414
1064.46202	0.00474
1062.53364	0.00521
1060.60527	0.00569
1058.67690	0.00645
1056.74853	0.00749
1054.82015	0.00846
1052.89178	0.00923
1050.96341	0.00990
1049.03503	0.01020
1047.10666	0.00984
1045.17829	0.00881
1043.24991	0.00736
1041.32154	0.00591
1039.39317	0.00474
1037.46479	0.00410
1035.53642	0.00394
1033.60805	0.00385
1031.67967	0.00386
1029.75130	0.00398
1027.82293	0.00393
1025.89455	0.00380
1023.96618	0.00399
1022.03781	0.00443
1020.10943	0.00472
1018.18106	0.00499
1016.25269	0.00566
1014.32431	0.00686
1012.39594	0.00868
1010.46757	0.01141
1008.53919	0.01528
1006.61082	0.02044
1004.68245	0.02700
1002.75407	0.03474
1000.82570	0.04312
998.89733	0.05135
996.96896	0.05880
995.04058	0.06547
993.11221	0.07195
991.18384	0.07878
989.25546	0.08582
987.32709	0.09199
985.39872	0.09583
983.47034	0.09656
981.54197	0.09441
979.61360	0.09030
977.68522	0.08623
975.75685	0.08509
973.82848	0.08913
971.90010	0.09869
969.97173	0.11243
968.04336	0.12779
966.11498	0.14119
964.18661	0.14864
962.25824	0.14618
960.32986	0.13136
958.40149	0.10808
956.47312	0.08764
954.54474	0.07970
952.61637	0.08519
950.68800	0.09988
948.75962	0.11911
946.83125	0.13859
944.90288	0.15550
942.97451	0.16949
941.04613	0.18138
939.11776	0.19170
937.18939	0.20014
935.26101	0.20595
933.33264	0.20926
931.40427	0.21101
929.47589	0.21143
927.54752	0.20993
925.61915	0.20646
923.69077	0.20227
921.76240	0.19908
919.83403	0.19810
917.90565	0.19944
915.97728	0.20201
914.04891	0.20384
912.12053	0.20294
910.19216	0.19838
908.26379	0.19017
906.33541	0.17885
904.40704	0.16601
902.47867	0.15387
900.55029	0.14404
898.62192	0.13733
896.69355	0.13387
894.76517	0.13316
892.83680	0.13431
890.90843	0.13668
888.98005	0.13992
887.05168	0.14338
885.12331	0.14618
883.19494	0.14770
881.26656	0.14802
879.33819	0.14787
877.40982	0.14783
875.48144	0.14795
873.55307	0.14818
871.62470	0.14812
869.69632	0.14756
867.76795	0.14697
865.83958	0.14631
863.91120	0.14495
861.98283	0.14311
860.05446	0.14132
858.12608	0.13915
856.19771	0.13628
854.26934	0.13317
852.34096	0.13019
850.41259	0.12750
848.48422	0.12556
846.55584	0.12435
844.62747	0.12288
842.69910	0.12053
840.77072	0.11785
838.84235	0.11548
836.91398	0.11321
834.98560	0.11035
833.05723	0.10710
831.12886	0.10413
829.20049	0.10139
827.27211	0.09881
825.34374	0.09663
823.41537	0.09492
821.48699	0.09363
819.55862	0.09251
817.63025	0.09105
815.70187	0.08924
813.77350	0.08738
811.84513	0.08548
809.91675	0.08328
807.98838	0.08073
806.06001	0.07780
804.13163	0.07420
802.20326	0.06988
800.27489	0.06532
798.34651	0.06118
796.41814	0.05759
794.48977	0.05428
792.56139	0.05128
790.63302	0.04892
788.70465	0.04747
786.77627	0.04678
784.84790	0.04629
782.91953	0.04588
780.99115	0.04567
779.06278	0.04533
777.13441	0.04417
775.20603	0.04201
773.27766	0.03990
771.34929	0.03903
769.42092	0.03924
767.49254	0.03965
765.56417	0.03971
763.63580	0.03907
761.70742	0.03733
759.77905	0.03434
757.85068	0.03042
755.92230	0.02638
753.99393	0.02316
752.06556	0.02147
750.13718	0.02135
748.20881	0.02222
746.28044	0.02371
744.35206	0.02538
742.42369	0.02671
740.49532	0.02765
738.56694	0.02842
736.63857	0.02904
734.71020	0.02954
732.78182	0.02981
730.85345	0.02939
728.92508	0.02821
726.99670	0.02672
725.06833	0.02530
723.13996	0.02416
721.21158	0.02305
719.28321	0.02167
717.35484	0.02046
715.42647	0.01988
713.49809	0.01954
711.56972	0.01894
709.64135	0.01833
707.71297	0.01767
705.78460	0.01700
703.85623	0.01686
701.92785	0.01736
699.99948	0.01810
698.07111	0.01890
696.14273	0.01961
694.21436	0.02023
692.28599	0.02119
690.35761	0.02245
688.42924	0.02352
686.50087	0.02436
684.57249	0.02509
682.64412	0.02564
680.71575	0.02633
678.78737	0.02754
676.85900	0.02874
674.93063	0.02972
673.00225	0.03092
671.07388	0.03193
669.14551	0.03201
667.21713	0.03093
665.28876	0.03027
663.36039	0.03069
661.43201	0.03120
659.50364	0.03131
657.57527	0.03140
655.64690	0.03114
653.71852	0.03046
651.79015	0.03026
649.86178	0.03070
647.93340	0.03121
646.00503	0.03116
644.07666	0.02983
642.14828	0.02745
640.21991	0.02496
638.29154	0.02283
636.36316	0.02144
634.43479	0.02112
632.50642	0.02124
630.57804	0.02151
628.64967	0.02159
626.72130	0.02111
624.79292	0.02111
622.86455	0.02208
620.93618	0.02245
619.00780	0.02199
617.07943	0.02249
615.15106	0.02434
613.22268	0.02644
611.29431	0.02829
609.36594	0.03001
607.43756	0.03200
605.50919	0.03430
603.58082	0.03612
601.65244	0.03747
599.72407	0.03975
