3997.51769	0.88718
3995.58931	0.88633
3993.66094	0.88585
3991.73257	0.88608
3989.80419	0.88669
3987.87582	0.88759
3985.94745	0.88844
3984.01907	0.88879
3982.09070	0.88878
3980.16233	0.88873
3978.23396	0.88852
3976.30558	0.88766
3974.37721	0.88670
3972.44884	0.88681
3970.52046	0.88794
3968.59209	0.88978
3966.66372	0.89184
3964.73534	0.89238
3962.80697	0.89085
3960.87860	0.88988
3958.95022	0.89077
3957.02185	0.89215
3955.09348	0.89324
3953.16510	0.89254
3951.23673	0.88863
3949.30836	0.88479
3947.37998	0.88600
3945.45161	0.88832
3943.52324	0.88683
3941.59486	0.88828
3939.66649	0.89526
3937.73812	0.90011
3935.80974	0.89857
3933.88137	0.89118
3931.95300	0.88436
3930.02462	0.88619
3928.09625	0.89169
3926.16788	0.89126
3924.23950	0.88873
3922.31113	0.89059
3920.38276	0.89116
3918.45439	0.88812
3916.52601	0.89046
3914.59764	0.90102
3912.66927	0.91072
3910.74089	0.91414
3908.81252	0.91045
3906.88415	0.89647
3904.95577	0.87530
3903.02740	0.86129
3901.09903	0.86208
3899.17065	0.87488
3897.24228	0.89402
3895.31391	0.90472
3893.38553	0.89918
3891.45716	0.89212
3889.52879	0.89721
3887.60041	0.89859
3885.67204	0.89053
3883.74367	0.88693
3881.81529	0.88603
3879.88692	0.89019
3877.95855	0.90360
3876.03017	0.90604
3874.10180	0.89390
3872.17343	0.88146
3870.24505	0.87576
3868.31668	0.88187
3866.38831	0.88811
3864.45994	0.88588
3862.53156	0.89102
3860.60319	0.90500
3858.67482	0.90907
3856.74644	0.89559
3854.81807	0.86807
3852.88970	0.85231
3850.96132	0.87668
3849.03295	0.90694
3847.10458	0.91998
3845.17620	0.91458
3843.24783	0.89863
3841.31946	0.88080
3839.39108	0.86701
3837.46271	0.86725
3835.53434	0.88092
3833.60596	0.89362
3831.67759	0.90324
3829.74922	0.91089
3827.82084	0.91225
3825.89247	0.90930
3823.96410	0.90058
3822.03572	0.88079
3820.10735	0.87103
3818.17898	0.88108
3816.25060	0.89250
3814.32223	0.91020
3812.39386	0.92904
3810.46548	0.93283
3808.53711	0.92011
3806.60874	0.90560
3804.68037	0.89840
3802.75199	0.88710
3800.82362	0.88167
3798.89525	0.89289
3796.96687	0.90483
3795.03850	0.91879
3793.11013	0.93437
3791.18175	0.94188
3789.25338	0.94182
3787.32501	0.93685
3785.39663	0.93000
3783.46826	0.92729
3781.53989	0.92392
3779.61151	0.91808
3777.68314	0.92297
3775.75477	0.93497
3773.82639	0.93736
3771.89802	0.92569
3769.96965	0.91107
3768.04127	0.90702
3766.11290	0.91050
3764.18453	0.91622
3762.25615	0.91666
3760.32778	0.90512
3758.39941	0.89468
3756.47103	0.89428
3754.54266	0.88776
3752.61429	0.86474
3750.68591	0.84307
3748.75754	0.84662
3746.82917	0.85377
3744.90080	0.85325
3742.97242	0.86326
3741.04405	0.87717
3739.11568	0.87488
3737.18730	0.85341
3735.25893	0.83134
3733.33056	0.83813
3731.40218	0.86712
3729.47381	0.88813
3727.54544	0.88915
3725.61706	0.87990
3723.68869	0.87481
3721.76032	0.87734
3719.83194	0.88498
3717.90357	0.89255
3715.97520	0.89160
3714.04682	0.87503
3712.11845	0.84874
3710.19008	0.84098
3708.26170	0.85970
3706.33333	0.87789
3704.40496	0.87908
3702.47658	0.86854
3700.54821	0.86446
3698.61984	0.86896
3696.69146	0.86901
3694.76309	0.85948
3692.83472	0.83824
3690.90635	0.80836
3688.97797	0.79163
3687.04960	0.80176
3685.12123	0.81528
3683.19285	0.81504
3681.26448	0.79990
3679.33611	0.77398
3677.40773	0.73999
3675.47936	0.70873
3673.55099	0.70092
3671.62261	0.69729
3669.69424	0.68512
3667.76587	0.68397
3665.83749	0.68848
3663.90912	0.68241
3661.98075	0.66707
3660.05237	0.64713
3658.12400	0.62254
3656.19563	0.59649
3654.26725	0.57522
3652.33888	0.54958
3650.41051	0.51084
3648.48213	0.47959
3646.55376	0.47630
3644.62539	0.48044
3642.69701	0.47534
3640.76864	0.46160
3638.84027	0.44504
3636.91189	0.42764
3634.98352	0.40867
3633.05515	0.38863
3631.12678	0.36688
3629.19840	0.34260
3627.27003	0.32830
3625.34166	0.32499
3623.41328	0.31752
3621.48491	0.30190
3619.55654	0.28233
3617.62816	0.26700
3615.69979	0.25662
3613.77142	0.24596
3611.84304	0.23544
3609.91467	0.22558
3607.98630	0.21576
3606.05792	0.20823
3604.12955	0.20182
3602.20118	0.19268
3600.27280	0.18182
3598.34443	0.17217
3596.41606	0.16328
3594.48768	0.15475
3592.55931	0.14756
3590.63094	0.14065
3588.70256	0.13178
3586.77419	0.12341
3584.84582	0.11874
3582.91744	0.11493
3580.98907	0.10980
3579.06070	0.10392
3577.13233	0.09820
3575.20395	0.09276
3573.27558	0.08757
3571.34721	0.08236
3569.41883	0.07647
3567.49046	0.07019
3565.56209	0.06551
3563.63371	0.06290
3561.70534	0.06027
3559.77697	0.05710
3557.84859	0.05396
3555.92022	0.05074
3553.99185	0.04736
3552.06347	0.04408
3550.13510	0.04122
3548.20673	0.03841
3546.27835	0.03565
3544.34998	0.03331
3542.42161	0.03127
3540.49323	0.02919
3538.56486	0.02701
3536.63649	0.02501
3534.70811	0.02319
3532.77974	0.02146
3530.85137	0.01971
3528.92299	0.01789
3526.99462	0.01605
3525.06625	0.01446
3523.13787	0.01320
3521.20950	0.01193
3519.28113	0.01079
3517.35276	0.00988
3515.42438	0.00885
3513.49601	0.00758
3511.56764	0.00633
3509.63926	0.00525
3507.71089	0.00420
3505.78252	0.00325
3503.85414	0.00245
3501.92577	0.00187
3499.99740	0.00146
3498.06902	0.00118
3496.14065	0.00114
3494.21228	0.00112
3492.28390	0.00128
3490.35553	0.00162
3488.42716	0.00182
3486.49878	0.00212
3484.57041	0.00241
3482.64204	0.00244
3480.71366	0.00219
3478.78529	0.00185
3476.85692	0.00161
3474.92854	0.00149
3473.00017	0.00149
3471.07180	0.00165
3469.14342	0.00182
3467.21505	0.00189
3465.28668	0.00196
3463.35831	0.00208
3461.42993	0.00223
3459.50156	0.00233
3457.57319	0.00232
3455.64481	0.00230
3453.71644	0.00240
3451.78807	0.00247
3449.85969	0.00242
3447.93132	0.00234
3446.00295	0.00231
3444.07457	0.00232
3442.14620	0.00236
3440.21783	0.00232
3438.28945	0.00221
3436.36108	0.00240
3434.43271	0.00277
3432.50433	0.00277
3430.57596	0.00239
3428.64759	0.00209
3426.71921	0.00222
3424.79084	0.00239
3422.86247	0.00223
3420.93409	0.00198
3419.00572	0.00195
3417.07735	0.00201
3415.14897	0.00201
3413.22060	0.00201
3411.29223	0.00213
3409.36385	0.00225
3407.43548	0.00216
3405.50711	0.00199
3403.57874	0.00183
3401.65036	0.00170
3399.72199	0.00176
3397.79362	0.00195
3395.86524	0.00200
3393.93687	0.00199
3392.00850	0.00198
3390.08012	0.00202
3388.15175	0.00216
3386.22338	0.00227
3384.29500	0.00231
3382.36663	0.00235
3380.43826	0.00228
3378.50988	0.00219
3376.58151	0.00224
3374.65314	0.00227
3372.72476	0.00223
3370.79639	0.00214
3368.86802	0.00195
3366.93964	0.00183
3365.01127	0.00196
3363.08290	0.00216
3361.15452	0.00223
3359.22615	0.00231
3357.29778	0.00233
3355.36940	0.00219
3353.44103	0.00202
3351.51266	0.00207
3349.58428	0.00231
3347.65591	0.00255
3345.72754	0.00261
3343.79917	0.00242
3341.87079	0.00221
3339.94242	0.00227
3338.01405	0.00245
3336.08567	0.00240
3334.15730	0.00213
3332.22893	0.00193
3330.30055	0.00192
3328.37218	0.00195
3326.44381	0.00196
3324.51543	0.00212
3322.58706	0.00250
3320.65869	0.00267
3318.73031	0.00256
3316.80194	0.00255
3314.87357	0.00269
3312.94519	0.00273
3311.01682	0.00253
3309.08845	0.00223
3307.16007	0.00211
3305.23170	0.00216
3303.30333	0.00220
3301.37495	0.00224
3299.44658	0.00226
3297.51821	0.00223
3295.58983	0.00231
3293.66146	0.00239
3291.73309	0.00232
3289.80472	0.00236
3287.87634	0.00246
3285.94797	0.00242
3284.01960	0.00229
3282.09122	0.00220
3280.16285	0.00208
3278.23448	0.00195
3276.30610	0.00201
3274.37773	0.00218
3272.44936	0.00226
3270.52098	0.00212
3268.59261	0.00196
3266.66424	0.00189
3264.73586	0.00196
3262.80749	0.00205
3260.87912	0.00206
3258.95074	0.00218
3257.02237	0.00236
3255.09400	0.00248
3253.16562	0.00241
3251.23725	0.00221
3249.30888	0.00207
3247.38050	0.00207
3245.45213	0.00208
3243.52376	0.00197
3241.59538	0.00175
3239.66701	0.00160
3237.73864	0.00169
3235.81026	0.00184
3233.88189	0.00189
3231.95352	0.00193
3230.02515	0.00207
3228.09677	0.00222
3226.16840	0.00221
3224.24003	0.00211
3222.31165	0.00205
3220.38328	0.00214
3218.45491	0.00218
3216.52653	0.00205
3214.59816	0.00187
3212.66979	0.00189
3210.74141	0.00206
3208.81304	0.00214
3206.88467	0.00212
3204.95629	0.00206
3203.02792	0.00195
3201.09955	0.00192
3199.17117	0.00205
3197.24280	0.00219
3195.31443	0.00225
3193.38605	0.00225
3191.45768	0.00213
3189.52931	0.00191
3187.60093	0.00185
3185.67256	0.00199
3183.74419	0.00217
3181.81581	0.00217
3179.88744	0.00207
3177.95907	0.00202
3176.03070	0.00195
3174.10232	0.00187
3172.17395	0.00184
3170.24558	0.00188
3168.31720	0.00188
3166.38883	0.00189
3164.46046	0.00214
3162.53208	0.00244
3160.60371	0.00250
3158.67534	0.00241
3156.74696	0.00233
3154.81859	0.00236
3152.89022	0.00244
3150.96184	0.00258
3149.03347	0.00277
3147.10510	0.00284
3145.17672	0.00283
3143.24835	0.00298
3141.31998	0.00316
3139.39160	0.00305
3137.46323	0.00270
3135.53486	0.00251
3133.60648	0.00273
3131.67811	0.00302
3129.74974	0.00307
3127.82136	0.00299
3125.89299	0.00295
3123.96462	0.00288
3122.03624	0.00274
3120.10787	0.00259
3118.17950	0.00246
3116.25113	0.00240
3114.32275	0.00236
3112.39438	0.00229
3110.46601	0.00221
3108.53763	0.00214
3106.60926	0.00213
3104.68089	0.00221
3102.75251	0.00238
3100.82414	0.00249
3098.89577	0.00253
3096.96739	0.00261
3095.03902	0.00269
3093.11065	0.00267
3091.18227	0.00260
3089.25390	0.00242
3087.32553	0.00221
3085.39715	0.00234
3083.46878	0.00277
3081.54041	0.00309
3079.61203	0.00318
3077.68366	0.00321
3075.75529	0.00332
3073.82691	0.00346
3071.89854	0.00352
3069.97017	0.00359
3068.04179	0.00376
3066.11342	0.00401
3064.18505	0.00419
3062.25668	0.00431
3060.32830	0.00454
3058.39993	0.00484
3056.47156	0.00514
3054.54318	0.00537
3052.61481	0.00546
3050.68644	0.00549
3048.75806	0.00559
3046.82969	0.00582
3044.90132	0.00615
3042.97294	0.00644
3041.04457	0.00655
3039.11620	0.00673
3037.18782	0.00705
3035.25945	0.00740
3033.33108	0.00786
3031.40270	0.00833
3029.47433	0.00861
3027.54596	0.00878
3025.61758	0.00904
3023.68921	0.00940
3021.76084	0.00981
3019.83246	0.01030
3017.90409	0.01075
3015.97572	0.01100
3014.04734	0.01115
3012.11897	0.01134
3010.19060	0.01158
3008.26222	0.01183
3006.33385	0.01215
3004.40548	0.01253
3002.47711	0.01275
3000.54873	0.01269
2998.62036	0.01241
2996.69199	0.01210
2994.76361	0.01193
2992.83524	0.01184
2990.90687	0.01156
2988.97849	0.01114
2987.05012	0.01079
2985.12175	0.01042
2983.19337	0.00981
2981.26500	0.00894
2979.33663	0.00793
2977.40825	0.00710
2975.47988	0.00666
2973.55151	0.00638
2971.62313	0.00590
2969.69476	0.00531
2967.76639	0.00500
2965.83801	0.00494
2963.90964	0.00488
2961.98127	0.00476
2960.05289	0.00481
2958.12452	0.00512
2956.19615	0.00551
2954.26777	0.00590
2952.33940	0.00631
2950.41103	0.00661
2948.48266	0.00673
2946.55428	0.00673
2944.62591	0.00661
2942.69754	0.00632
2940.76916	0.00578
2938.84079	0.00510
2936.91242	0.00476
2934.98404	0.00480
2933.05567	0.00473
2931.12730	0.00449
2929.19892	0.00440
2927.27055	0.00467
2925.34218	0.00526
2923.41380	0.00606
2921.48543	0.00684
2919.55706	0.00737
2917.62868	0.00796
2915.70031	0.00895
2913.77194	0.01002
2911.84356	0.01075
2909.91519	0.01132
2907.98682	0.01196
2906.05844	0.01263
2904.13007	0.01329
2902.20170	0.01402
2900.27332	0.01457
2898.34495	0.01464
2896.41658	0.01444
2894.48820	0.01423
2892.55983	0.01410
2890.63146	0.01435
2888.70309	0.01504
2886.77471	0.01569
2884.84634	0.01603
2882.91797	0.01609
2880.98959	0.01594
2879.06122	0.01577
2877.13285	0.01581
2875.20447	0.01611
2873.27610	0.01668
2871.34773	0.01773
2869.41935	0.01926
2867.49098	0.02078
2865.56261	0.02204
2863.63423	0.02330
2861.70586	0.02439
2859.77749	0.02505
2857.84911	0.02557
2855.92074	0.02629
2853.99237	0.02727
2852.06399	0.02846
2850.13562	0.03004
2848.20725	0.03213
2846.27887	0.03466
2844.35050	0.03729
2842.42213	0.03954
2840.49375	0.04126
2838.56538	0.04261
2836.63701	0.04375
2834.70863	0.04465
2832.78026	0.04524
2830.85189	0.04574
2828.92352	0.04642
2826.99514	0.04719
2825.06677	0.04786
2823.13840	0.04841
2821.21002	0.04892
2819.28165	0.04949
2817.35328	0.05017
2815.42490	0.05090
2813.49653	0.05170
2811.56816	0.05260
2809.63978	0.05344
2807.71141	0.05422
2805.78304	0.05514
2803.85466	0.05616
2801.92629	0.05718
2799.99792	0.05825
2798.06954	0.05931
2796.14117	0.06037
2794.21280	0.06146
2792.28442	0.06255
2790.35605	0.06369
2788.42768	0.06490
2786.49930	0.06613
2784.57093	0.06731
2782.64256	0.06841
2780.71418	0.06943
2778.78581	0.07039
2776.85744	0.07144
2774.92907	0.07266
2773.00069	0.07391
2771.07232	0.07502
2769.14395	0.07610
2767.21557	0.07712
2765.28720	0.07803
2763.35883	0.07908
2761.43045	0.08041
2759.50208	0.08179
2757.57371	0.08306
2755.64533	0.08437
2753.71696	0.08586
2751.78859	0.08754
2749.86021	0.08928
2747.93184	0.09104
2746.00347	0.09274
2744.07509	0.09442
2742.14672	0.09614
2740.21835	0.09786
2738.28997	0.09956
2736.36160	0.10128
2734.43323	0.10309
2732.50485	0.10491
2730.57648	0.10667
2728.64811	0.10834
2726.71973	0.10994
2724.79136	0.11159
2722.86299	0.11330
2720.93461	0.11503
2719.00624	0.11681
2717.07787	0.11851
2715.14950	0.12000
2713.22112	0.12135
2711.29275	0.12268
2709.36438	0.12404
2707.43600	0.12547
2705.50763	0.12687
2703.57926	0.12821
2701.65088	0.12950
2699.72251	0.13072
2697.79414	0.13183
2695.86576	0.13277
2693.93739	0.13368
2692.00902	0.13481
2690.08064	0.13604
2688.15227	0.13711
2686.22390	0.13823
2684.29552	0.13958
2682.36715	0.14103
2680.43878	0.14253
2678.51040	0.14404
2676.58203	0.14552
2674.65366	0.14704
2672.72528	0.14870
2670.79691	0.15047
2668.86854	0.15225
2666.94016	0.15398
2665.01179	0.15566
2663.08342	0.15730
2661.15505	0.15894
2659.22667	0.16067
2657.29830	0.16256
2655.36993	0.16441
2653.44155	0.16611
2651.51318	0.16769
2649.58481	0.16918
2647.65643	0.17071
2645.72806	0.17234
2643.79969	0.17399
2641.87131	0.17570
2639.94294	0.17758
2638.01457	0.17949
2636.08619	0.18137
2634.15782	0.18326
2632.22945	0.18515
2630.30107	0.18702
2628.37270	0.18903
2626.44433	0.19115
2624.51595	0.19325
2622.58758	0.19537
2620.65921	0.19754
2618.73083	0.19969
2616.80246	0.20191
2614.87409	0.20432
2612.94571	0.20687
2611.01734	0.20933
2609.08897	0.21166
2607.16059	0.21401
2605.23222	0.21642
2603.30385	0.21895
2601.37548	0.22157
2599.44710	0.22409
2597.51873	0.22637
2595.59036	0.22856
2593.66198	0.23086
2591.73361	0.23332
2589.80524	0.23575
2587.87686	0.23803
2585.94849	0.24024
2584.02012	0.24256
2582.09174	0.24506
2580.16337	0.24763
2578.23500	0.25020
2576.30662	0.25276
2574.37825	0.25530
2572.44988	0.25783
2570.52150	0.26045
2568.59313	0.26320
2566.66476	0.26597
2564.73638	0.26872
2562.80801	0.27137
2560.87964	0.27394
2558.95126	0.27657
2557.02289	0.27936
2555.09452	0.28220
2553.16614	0.28499
2551.23777	0.28770
2549.30940	0.29026
2547.38103	0.29261
2545.45265	0.29482
2543.52428	0.29696
2541.59591	0.29907
2539.66753	0.30116
2537.73916	0.30320
2535.81079	0.30522
2533.88241	0.30725
2531.95404	0.30927
2530.02567	0.31126
2528.09729	0.31324
2526.16892	0.31517
2524.24055	0.31707
2522.31217	0.31903
2520.38380	0.32105
2518.45543	0.32311
2516.52705	0.32526
2514.59868	0.32745
2512.67031	0.32952
2510.74193	0.33152
2508.81356	0.33353
2506.88519	0.33563
2504.95681	0.33769
2503.02844	0.33964
2501.10007	0.34168
2499.17169	0.34392
2497.24332	0.34620
2495.31495	0.34846
2493.38657	0.35068
2491.45820	0.35281
2489.52983	0.35497
2487.60146	0.35729
2485.67308	0.35971
2483.74471	0.36202
2481.81634	0.36423
2479.88796	0.36649
2477.95959	0.36885
2476.03122	0.37127
2474.10284	0.37372
2472.17447	0.37626
2470.24610	0.37888
2468.31772	0.38158
2466.38935	0.38437
2464.46098	0.38721
2462.53260	0.39010
2460.60423	0.39307
2458.67586	0.39604
2456.74748	0.39894
2454.81911	0.40184
2452.89074	0.40478
2450.96236	0.40771
2449.03399	0.41064
2447.10562	0.41353
2445.17724	0.41622
2443.24887	0.41879
2441.32050	0.42144
2439.39212	0.42417
2437.46375	0.42682
2435.53538	0.42938
2433.60700	0.43194
2431.67863	0.43453
2429.75026	0.43708
2427.82189	0.43956
2425.89351	0.44199
2423.96514	0.44428
2422.03677	0.44641
2420.10839	0.44865
2418.18002	0.45107
2416.25165	0.45342
2414.32327	0.45571
2412.39490	0.45815
2410.46653	0.46069
2408.53815	0.46322
2406.60978	0.46586
2404.68141	0.46869
2402.75303	0.47157
2400.82466	0.47433
2398.89629	0.47704
2396.96791	0.47983
2395.03954	0.48271
2393.11117	0.48557
2391.18279	0.48831
2389.25442	0.49080
2387.32605	0.49288
2385.39767	0.49437
2383.46930	0.49518
2381.54093	0.49546
2379.61255	0.49537
2377.68418	0.49506
2375.75581	0.49466
2373.82744	0.49409
2371.89906	0.49314
2369.97069	0.49201
2368.04232	0.49120
2366.11394	0.49075
2364.18557	0.49072
2362.25720	0.49193
2360.32882	0.49476
2358.40045	0.49845
2356.47208	0.50262
2354.54370	0.50761
2352.61533	0.51346
2350.68696	0.51882
2348.75858	0.52182
2346.83021	0.52195
2344.90184	0.52052
2342.97346	0.52021
2341.04509	0.52159
2339.11672	0.52360
2337.18834	0.52565
2335.25997	0.52728
2333.33160	0.52860
2331.40322	0.53008
2329.47485	0.53186
2327.54648	0.53386
2325.61810	0.53588
2323.68973	0.53809
2321.76136	0.54107
2319.83298	0.54468
2317.90461	0.54825
2315.97624	0.55156
2314.04787	0.55471
2312.11949	0.55776
2310.19112	0.56089
2308.26275	0.56425
2306.33437	0.56779
2304.40600	0.57120
2302.47763	0.57420
2300.54925	0.57690
2298.62088	0.57949
2296.69251	0.58191
2294.76413	0.58426
2292.83576	0.58670
2290.90739	0.58908
2288.97901	0.59124
2287.05064	0.59325
2285.12227	0.59509
2283.19389	0.59669
2281.26552	0.59796
2279.33715	0.59898
2277.40877	0.59998
2275.48040	0.60110
2273.55203	0.60234
2271.62365	0.60357
2269.69528	0.60470
2267.76691	0.60580
2265.83853	0.60689
2263.91016	0.60803
2261.98179	0.60935
2260.05342	0.61079
2258.12504	0.61214
2256.19667	0.61337
2254.26830	0.61461
2252.33992	0.61599
2250.41155	0.61745
2248.48318	0.61888
2246.55480	0.62036
2244.62643	0.62185
2242.69806	0.62308
2240.76968	0.62394
2238.84131	0.62468
2236.91294	0.62549
2234.98456	0.62622
2233.05619	0.62680
2231.12782	0.62734
2229.19944	0.62789
2227.27107	0.62840
2225.34270	0.62890
2223.41432	0.62939
2221.48595	0.62974
2219.55758	0.62996
2217.62920	0.63022
2215.70083	0.63058
2213.77246	0.63099
2211.84408	0.63135
2209.91571	0.63155
2207.98734	0.63165
2206.05896	0.63178
2204.13059	0.63194
2202.20222	0.63207
2200.27385	0.63217
2198.34547	0.63221
2196.41710	0.63218
2194.48873	0.63215
2192.56035	0.63210
2190.63198	0.63206
2188.70361	0.63205
2186.77523	0.63211
2184.84686	0.63225
2182.91849	0.63242
2180.99011	0.63267
2179.06174	0.63300
2177.13337	0.63328
2175.20499	0.63344
2173.27662	0.63341
2171.34825	0.63326
2169.41987	0.63319
2167.49150	0.63327
2165.56313	0.63343
2163.63475	0.63357
2161.70638	0.63372
2159.77801	0.63393
2157.84963	0.63426
2155.92126	0.63471
2153.99289	0.63524
2152.06451	0.63567
2150.13614	0.63597
2148.20777	0.63633
2146.27940	0.63687
2144.35102	0.63751
2142.42265	0.63816
2140.49428	0.63878
2138.56590	0.63928
2136.63753	0.63968
2134.70916	0.64016
2132.78078	0.64087
2130.85241	0.64168
2128.92404	0.64237
2126.99566	0.64309
2125.06729	0.64405
2123.13892	0.64515
2121.21054	0.64617
2119.28217	0.64707
2117.35380	0.64784
2115.42542	0.64855
2113.49705	0.64933
2111.56868	0.65025
2109.64030	0.65121
2107.71193	0.65193
2105.78356	0.65242
2103.85518	0.65293
2101.92681	0.65347
2099.99844	0.65390
2098.07006	0.65427
2096.14169	0.65466
2094.21332	0.65487
2092.28494	0.65465
2090.35657	0.65434
2088.42820	0.65449
2086.49983	0.65484
2084.57145	0.65497
2082.64308	0.65497
2080.71471	0.65496
2078.78633	0.65486
2076.85796	0.65467
2074.92959	0.65440
2073.00121	0.65420
2071.07284	0.65424
2069.14447	0.65422
2067.21609	0.65358
2065.28772	0.65287
2063.35935	0.65322
2061.43097	0.65420
2059.50260	0.65507
2057.57423	0.65593
2055.64585	0.65684
2053.71748	0.65776
2051.78911	0.65882
2049.86073	0.65992
2047.93236	0.66089
2046.00399	0.66162
2044.07561	0.66211
2042.14724	0.66270
2040.21887	0.66404
2038.29049	0.66589
2036.36212	0.66735
2034.43375	0.66830
2032.50538	0.66903
2030.57700	0.66961
2028.64863	0.67008
2026.72026	0.67045
2024.79188	0.67070
2022.86351	0.67082
2020.93514	0.67040
2019.00676	0.66901
2017.07839	0.66822
2015.15002	0.66957
2013.22164	0.67152
2011.29327	0.67240
2009.36490	0.67268
2007.43652	0.67308
2005.50815	0.67368
2003.57978	0.67424
2001.65140	0.67455
1999.72303	0.67472
1997.79466	0.67497
1995.86628	0.67432
1993.93791	0.67144
1992.00954	0.66881
1990.08116	0.66979
1988.15279	0.67262
1986.22442	0.67481
1984.29604	0.67606
1982.36767	0.67646
1980.43930	0.67647
1978.51092	0.67646
1976.58255	0.67648
1974.65418	0.67658
1972.72581	0.67673
1970.79743	0.67609
1968.86906	0.67386
1966.94069	0.67252
1965.01231	0.67450
1963.08394	0.67728
1961.15557	0.67849
1959.22719	0.67899
1957.29882	0.67929
1955.37045	0.67955
1953.44207	0.68044
1951.51370	0.68163
1949.58533	0.68213
1947.65695	0.68131
1945.72858	0.67844
1943.80021	0.67440
1941.87183	0.67450
1939.94346	0.68024
1938.01509	0.68523
1936.08671	0.68660
1934.15834	0.68656
1932.22997	0.68671
1930.30159	0.68718
1928.37322	0.68737
1926.44485	0.68564
1924.51647	0.68111
1922.58810	0.67765
1920.65973	0.67694
1918.73135	0.67598
1916.80298	0.67772
1914.87461	0.68289
1912.94624	0.68480
1911.01786	0.68214
1909.08949	0.67996
1907.16112	0.68116
1905.23274	0.68330
1903.30437	0.68411
1901.37600	0.68413
1899.44762	0.68339
1897.51925	0.68076
1895.59088	0.67756
1893.66250	0.67605
1891.73413	0.67342
1889.80576	0.66975
1887.87738	0.67096
1885.94901	0.67485
1884.02064	0.67645
1882.09226	0.67668
1880.16389	0.67662
1878.23552	0.67630
1876.30714	0.67588
1874.37877	0.67452
1872.45040	0.66875
1870.52202	0.65637
1868.59365	0.64673
1866.66528	0.65146
1864.73690	0.66234
1862.80853	0.66786
1860.88016	0.66828
1858.95179	0.66762
1857.02341	0.66756
1855.09504	0.66758
1853.16667	0.66693
1851.23829	0.66475
1849.30992	0.65975
1847.38155	0.65119
1845.45317	0.64102
1843.52480	0.63919
1841.59643	0.64850
1839.66805	0.65553
1837.73968	0.65570
1835.81131	0.65464
1833.88293	0.65226
1831.95456	0.64281
1830.02619	0.63144
1828.09781	0.62926
1826.16944	0.63144
1824.24107	0.63375
1822.31269	0.63854
1820.38432	0.64096
1818.45595	0.63842
1816.52757	0.63451
1814.59920	0.62937
1812.67083	0.62057
1810.74245	0.61164
1808.81408	0.60803
1806.88571	0.60649
1804.95733	0.60057
1803.02896	0.58839
1801.10059	0.57452
1799.17222	0.56583
1797.24384	0.56004
1795.31547	0.54905
1793.38710	0.53150
1791.45872	0.51910
1789.53035	0.51877
1787.60198	0.51738
1785.67360	0.50802
1783.74523	0.49556
1781.81686	0.48348
1779.88848	0.47316
1777.96011	0.46478
1776.03174	0.45303
1774.10336	0.43424
1772.17499	0.41545
1770.24662	0.40764
1768.31824	0.40582
1766.38987	0.40125
1764.46150	0.39046
1762.53312	0.37250
1760.60475	0.35346
1758.67638	0.33623
1756.74800	0.31591
1754.81963	0.29354
1752.89126	0.26752
1750.96288	0.23374
1749.03451	0.19930
1747.10614	0.17151
1745.17777	0.14653
1743.24939	0.12162
1741.32102	0.09764
1739.39265	0.07576
1737.46427	0.05902
1735.53590	0.04560
1733.60753	0.03224
1731.67915	0.02303
1729.75078	0.01785
1727.82241	0.01375
1725.89403	0.01025
1723.96566	0.00741
1722.03729	0.00521
1720.10891	0.00354
1718.18054	0.00242
1716.25217	0.00174
1714.32379	0.00131
1712.39542	0.00113
1710.46705	0.00116
1708.53867	0.00123
1706.61030	0.00143
1704.68193	0.00175
1702.75355	0.00223
1700.82518	0.00275
1698.89681	0.00300
1696.96843	0.00297
1695.04006	0.00273
1693.11169	0.00233
1691.18331	0.00204
1689.25494	0.00197
1687.32657	0.00211
1685.39820	0.00260
1683.46982	0.00279
1681.54145	0.00241
1679.61308	0.00205
1677.68470	0.00196
1675.75633	0.00212
1673.82796	0.00216
1671.89958	0.00220
1669.97121	0.00239
1668.04284	0.00231
1666.11446	0.00201
1664.18609	0.00200
1662.25772	0.00216
1660.32934	0.00213
1658.40097	0.00208
1656.47260	0.00220
1654.54422	0.00250
1652.61585	0.00248
1650.68748	0.00207
1648.75910	0.00210
1646.83073	0.00237
1644.90236	0.00225
1642.97398	0.00196
1641.04561	0.00192
1639.11724	0.00209
1637.18886	0.00231
1635.26049	0.00230
1633.33212	0.00201
1631.40375	0.00181
1629.47537	0.00179
1627.54700	0.00190
1625.61863	0.00208
1623.69025	0.00223
1621.76188	0.00221
1619.83351	0.00206
1617.90513	0.00201
1615.97676	0.00206
1614.04839	0.00208
1612.12001	0.00204
1610.19164	0.00189
1608.26327	0.00181
1606.33489	0.00186
1604.40652	0.00183
1602.47815	0.00174
1600.54977	0.00167
1598.62140	0.00163
1596.69303	0.00168
1594.76465	0.00177
1592.83628	0.00180
1590.90791	0.00169
1588.97953	0.00152
1587.05116	0.00143
1585.12279	0.00145
1583.19441	0.00148
1581.26604	0.00157
1579.33767	0.00174
1577.40929	0.00187
1575.48092	0.00172
1573.55255	0.00152
1571.62418	0.00153
1569.69580	0.00168
1567.76743	0.00177
1565.83906	0.00175
1563.91068	0.00172
1561.98231	0.00193
1560.05394	0.00252
1558.12556	0.00276
1556.19719	0.00224
1554.26882	0.00180
1552.34044	0.00169
1550.41207	0.00177
1548.48370	0.00183
1546.55532	0.00194
1544.62695	0.00222
1542.69858	0.00259
1540.77020	0.00281
1538.84183	0.00251
1536.91346	0.00208
1534.98508	0.00202
1533.05671	0.00210
1531.12834	0.00204
1529.19996	0.00194
1527.27159	0.00195
1525.34322	0.00203
1523.41484	0.00220
1521.48647	0.00237
1519.55810	0.00220
1517.62972	0.00192
1515.70135	0.00171
1513.77298	0.00158
1511.84461	0.00165
1509.91623	0.00196
1507.98786	0.00240
1506.05949	0.00239
1504.13111	0.00181
1502.20274	0.00162
1500.27437	0.00199
1498.34599	0.00289
1496.41762	0.00439
1494.48925	0.00604
1492.56087	0.00733
1490.63250	0.00868
1488.70413	0.01075
1486.77575	0.01318
1484.84738	0.01525
1482.91901	0.01670
1480.99063	0.01756
1479.06226	0.01771
1477.13389	0.01690
1475.20551	0.01533
1473.27714	0.01361
1471.34877	0.01244
1469.42039	0.01175
1467.49202	0.01083
1465.56365	0.00957
1463.63527	0.00844
1461.70690	0.00756
1459.77853	0.00660
1457.85016	0.00550
1455.92178	0.00452
1453.99341	0.00385
1452.06504	0.00344
1450.13666	0.00318
1448.20829	0.00312
1446.27992	0.00308
1444.35154	0.00297
1442.42317	0.00292
1440.49480	0.00294
1438.56642	0.00295
1436.63805	0.00303
1434.70968	0.00324
1432.78130	0.00345
1430.85293	0.00362
1428.92456	0.00386
1426.99618	0.00406
1425.06781	0.00404
1423.13944	0.00383
1421.21106	0.00355
1419.28269	0.00340
1417.35432	0.00341
1415.42594	0.00340
1413.49757	0.00349
1411.56920	0.00374
1409.64082	0.00394
1407.71245	0.00404
1405.78408	0.00414
1403.85570	0.00420
1401.92733	0.00402
1399.99896	0.00357
1398.07059	0.00319
1396.14221	0.00306
1394.21384	0.00303
1392.28547	0.00289
1390.35709	0.00264
1388.42872	0.00243
1386.50035	0.00240
1384.57197	0.00244
1382.64360	0.00249
1380.71523	0.00255
1378.78685	0.00259
1376.85848	0.00260
1374.93011	0.00259
1373.00173	0.00256
1371.07336	0.00253
1369.14499	0.00275
1367.21661	0.00358
1365.28824	0.00479
1363.35987	0.00609
1361.43149	0.00741
1359.50312	0.00864
1357.57475	0.00973
1355.64637	0.01069
1353.71800	0.01152
1351.78963	0.01218
1349.86125	0.01264
1347.93288	0.01285
1346.00451	0.01285
1344.07614	0.01261
1342.14776	0.01208
1340.21939	0.01136
1338.29102	0.01060
1336.36264	0.00994
1334.43427	0.00932
1332.50590	0.00855
1330.57752	0.00773
1328.64915	0.00723
1326.72078	0.00722
1324.79240	0.00741
1322.86403	0.00760
1320.93566	0.00781
1319.00728	0.00797
1317.07891	0.00798
1315.15054	0.00791
1313.22216	0.00785
1311.29379	0.00781
1309.36542	0.00790
1307.43704	0.00820
1305.50867	0.00853
1303.58030	0.00870
1301.65192	0.00861
1299.72355	0.00841
1297.79518	0.00849
1295.86680	0.00897
1293.93843	0.00948
1292.01006	0.00968
1290.08168	0.00963
1288.15331	0.00952
1286.22494	0.00951
1284.29657	0.00958
1282.36819	0.00973
1280.43982	0.01000
1278.51145	0.01021
1276.58307	0.01023
1274.65470	0.01020
1272.72633	0.01008
1270.79795	0.00957
1268.86958	0.00880
1266.94121	0.00823
1265.01283	0.00793
1263.08446	0.00772
1261.15609	0.00766
1259.22771	0.00794
1257.29934	0.00847
1255.37097	0.00897
1253.44259	0.00936
1251.51422	0.00976
1249.58585	0.01026
1247.65747	0.01080
1245.72910	0.01121
1243.80073	0.01147
1241.87235	0.01181
1239.94398	0.01224
1238.01561	0.01260
1236.08723	0.01302
1234.15886	0.01370
1232.23049	0.01457
1230.30212	0.01564
1228.37374	0.01693
1226.44537	0.01833
1224.51700	0.01995
1222.58862	0.02191
1220.66025	0.02412
1218.73188	0.02611
1216.80350	0.02748
1214.87513	0.02810
1212.94676	0.02771
1211.01838	0.02644
1209.09001	0.02499
1207.16164	0.02415
1205.23326	0.02465
1203.30489	0.02685
1201.37652	0.03015
1199.44814	0.03369
1197.51977	0.03741
1195.59140	0.04150
1193.66302	0.04552
1191.73465	0.04878
1189.80628	0.05091
1187.87790	0.05174
1185.94953	0.05135
1184.02116	0.05024
1182.09278	0.04861
1180.16441	0.04635
1178.23604	0.04340
1176.30766	0.03975
1174.37929	0.03548
1172.45092	0.03084
1170.52255	0.02596
1168.59417	0.02072
1166.66580	0.01533
1164.73743	0.01075
1162.80905	0.00776
1160.88068	0.00621
1158.95231	0.00553
1157.02393	0.00551
1155.09556	0.00635
1153.16719	0.00862
1151.23881	0.01288
1149.31044	0.01901
1147.38207	0.02617
1145.45369	0.03332
1143.52532	0.03944
1141.59695	0.04333
1139.66857	0.04446
1137.74020	0.04358
1135.81183	0.04149
1133.88345	0.03799
1131.95508	0.03288
1130.02671	0.02683
1128.09833	0.02095
1126.16996	0.01605
1124.24159	0.01246
1122.31321	0.01010
1120.38484	0.00881
1118.45647	0.00837
1116.52809	0.00838
1114.59972	0.00866
1112.67135	0.00955
1110.74298	0.01122
1108.81460	0.01341
1106.88623	0.01599
1104.95786	0.01881
1103.02948	0.02128
1101.10111	0.02263
1099.17274	0.02245
1097.24436	0.02093
1095.31599	0.01857
1093.38762	0.01584
1091.45924	0.01305
1089.53087	0.01043
1087.60250	0.00833
1085.67412	0.00680
1083.74575	0.00569
1081.81738	0.00540
1079.88900	0.00564
1077.96063	0.00553
1076.03226	0.00527
1074.10388	0.00522
1072.17551	0.00524
1070.24714	0.00530
1068.31876	0.00575
1066.39039	0.00652
1064.46202	0.00730
1062.53364	0.00827
1060.60527	0.00990
1058.67690	0.01197
1056.74853	0.01415
1054.82015	0.01614
1052.89178	0.01752
1050.96341	0.01826
1049.03503	0.01836
1047.10666	0.01746
1045.17829	0.01550
1043.24991	0.01312
1041.32154	0.01100
1039.39317	0.00925
1037.46479	0.00789
1035.53642	0.00699
1033.60805	0.00636
1031.67967	0.00607
1029.75130	0.00611
1027.82293	0.00627
1025.89455	0.00656
1023.96618	0.00712
1022.03781	0.00798
1020.10943	0.00906
1018.18106	0.01025
1016.25269	0.01157
1014.32431	0.01332
1012.39594	0.01612
1010.46757	0.02032
1008.53919	0.02585
1006.61082	0.03282
1004.68245	0.04132
1002.75407	0.05078
1000.82570	0.06027
998.89733	0.06908
996.96896	0.07697
995.04058	0.08420
993.11221	0.09134
991.18384	0.09869
989.25546	0.10601
987.32709	0.11237
985.39872	0.11665
983.47034	0.11804
981.54197	0.11641
979.61360	0.11257
977.68522	0.10853
975.75685	0.10704
973.82848	0.11038
971.90010	0.11932
969.97173	0.13284
968.04336	0.14815
966.11498	0.16159
964.18661	0.16960
962.25824	0.16849
960.32986	0.15535
958.40149	0.13311
956.47312	0.11256
954.54474	0.10412
952.61637	0.10952
950.68800	0.12410
948.75962	0.14248
946.83125	0.16066
944.90288	0.17640
942.97451	0.18911
941.04613	0.19946
939.11776	0.20838
937.18939	0.21575
935.26101	0.22097
933.33264	0.22418
931.40427	0.22575
929.47589	0.22573
927.54752	0.22425
925.61915	0.22146
923.69077	0.21786
921.76240	0.21469
919.83403	0.21344
917.90565	0.21438
915.97728	0.21620
914.04891	0.21715
912.12053	0.21568
910.19216	0.21115
908.26379	0.20373
906.33541	0.19338
904.40704	0.18119
902.47867	0.16952
900.55029	0.15994
898.62192	0.15302
896.69355	0.14893
894.76517	0.14724
892.83680	0.14726
890.90843	0.14877
888.98005	0.15149
887.05168	0.15431
885.12331	0.15618
883.19494	0.15686
881.26656	0.15665
879.33819	0.15613
877.40982	0.15575
875.48144	0.15540
873.55307	0.15516
871.62470	0.15511
869.69632	0.15479
867.76795	0.15401
865.83958	0.15301
863.91120	0.15180
861.98283	0.15026
860.05446	0.14826
858.12608	0.14577
856.19771	0.14294
854.26934	0.13993
852.34096	0.13685
850.41259	0.13399
848.48422	0.13191
846.55584	0.13054
844.62747	0.12892
842.69910	0.12651
840.77072	0.12353
838.84235	0.12047
836.91398	0.11757
834.98560	0.11473
833.05723	0.11194
831.12886	0.10926
829.20049	0.10659
827.27211	0.10396
825.34374	0.10155
823.41537	0.09960
821.48699	0.09808
819.55862	0.09670
817.63025	0.09541
815.70187	0.09423
813.77350	0.09276
811.84513	0.09070
809.91675	0.08847
807.98838	0.08630
806.06001	0.08329
804.13163	0.07916
802.20326	0.07495
800.27489	0.07107
798.34651	0.06691
796.41814	0.06258
794.48977	0.05905
792.56139	0.05653
790.63302	0.05460
788.70465	0.05346
786.77627	0.05318
784.84790	0.05305
782.91953	0.05272
780.99115	0.05234
779.06278	0.05160
777.13441	0.05005
775.20603	0.04811
773.27766	0.04680
771.34929	0.04625
769.42092	0.04611
767.49254	0.04636
765.56417	0.04665
763.63580	0.04645
761.70742	0.04552
759.77905	0.04334
757.85068	0.03944
755.92230	0.03469
753.99393	0.03056
752.06556	0.02799
750.13718	0.02741
748.20881	0.02868
746.28044	0.03070
744.35206	0.03221
742.42369	0.03297
740.49532	0.03375
738.56694	0.03494
736.63857	0.03584
734.71020	0.03619
732.78182	0.03631
730.85345	0.03580
728.92508	0.03427
726.99670	0.03236
725.06833	0.03059
723.13996	0.02891
721.21158	0.02725
719.28321	0.02585
717.35484	0.02490
715.42647	0.02405
713.49809	0.02292
711.56972	0.02171
709.64135	0.02074
707.71297	0.02034
705.78460	0.02068
703.85623	0.02144
701.92785	0.02230
699.99948	0.02309
698.07111	0.02374
696.14273	0.02455
694.21436	0.02547
692.28599	0.02607
690.35761	0.02674
688.42924	0.02796
686.50087	0.02942
684.57249	0.03110
682.64412	0.03286
680.71575	0.03401
678.78737	0.03446
676.85900	0.03478
674.93063	0.03546
673.00225	0.03630
671.07388	0.03688
669.14551	0.03758
667.21713	0.03812
665.28876	0.03782
663.36039	0.03742
661.43201	0.03671
659.50364	0.03601
657.57527	0.03573
655.64690	0.03564
653.71852	0.03530
651.79015	0.03483
649.86178	0.03466
647.93340	0.03487
646.00503	0.03483
644.07666	0.03368
642.14828	0.03151
640.21991	0.02917
638.29154	0.02749
636.36316	0.02705
634.43479	0.02681
632.50642	0.02578
630.57804	0.02533
628.64967	0.02665
626.72130	0.02808
624.79292	0.02803
622.86455	0.02783
620.93618	0.02900
619.00780	0.03067
617.07943	0.03148
615.15106	0.03229
613.22268	0.03385
611.29431	0.03504
609.36594	0.03687
607.43756	0.03882
605.50919	0.03897
603.58082	0.04007
601.65244	0.04380
599.72407	0.04672
