3997.51769	0.37056
3995.58931	0.37060
3993.66094	0.37072
3991.73257	0.37087
3989.80419	0.37112
3987.87582	0.37131
3985.94745	0.37157
3984.01907	0.37214
3982.09070	0.37284
3980.16233	0.37322
3978.23396	0.37325
3976.30558	0.37340
3974.37721	0.37343
3972.44884	0.37276
3970.52046	0.37188
3968.59209	0.37158
3966.66372	0.37210
3964.73534	0.37327
3962.80697	0.37452
3960.87860	0.37514
3958.95022	0.37518
3957.02185	0.37561
3955.09348	0.37659
3953.16510	0.37732
3951.23673	0.37773
3949.30836	0.37801
3947.37998	0.37815
3945.45161	0.37845
3943.52324	0.37878
3941.59486	0.37875
3939.66649	0.37874
3937.73812	0.37931
3935.80974	0.38016
3933.88137	0.38092
3931.95300	0.38163
3930.02462	0.38202
3928.09625	0.38216
3926.16788	0.38285
3924.23950	0.38371
3922.31113	0.38360
3920.38276	0.38314
3918.45439	0.38348
3916.52601	0.38441
3914.59764	0.38480
3912.66927	0.38447
3910.74089	0.38434
3908.81252	0.38535
3906.88415	0.38771
3904.95577	0.39075
3903.02740	0.39295
3901.09903	0.39327
3899.17065	0.39207
3897.24228	0.39075
3895.31391	0.39069
3893.38553	0.39189
3891.45716	0.39309
3889.52879	0.39353
3887.60041	0.39418
3885.67204	0.39485
3883.74367	0.39483
3881.81529	0.39534
3879.88692	0.39571
3877.95855	0.39492
3876.03017	0.39508
3874.10180	0.39668
3872.17343	0.39812
3870.24505	0.39866
3868.31668	0.39853
3866.38831	0.39891
3864.45994	0.39992
3862.53156	0.39996
3860.60319	0.39914
3858.67482	0.39874
3856.74644	0.39916
3854.81807	0.40097
3852.88970	0.40306
3850.96132	0.40218
3849.03295	0.40024
3847.10458	0.39909
3845.17620	0.39953
3843.24783	0.40164
3841.31946	0.40388
3839.39108	0.40451
3837.46271	0.40338
3835.53434	0.40251
3833.60596	0.40272
3831.67759	0.40249
3829.74922	0.40185
3827.82084	0.40233
3825.89247	0.40355
3823.96410	0.40500
3822.03572	0.40698
3820.10735	0.40755
3818.17898	0.40657
3816.25060	0.40548
3814.32223	0.40349
3812.39386	0.40184
3810.46548	0.40167
3808.53711	0.40270
3806.60874	0.40404
3804.68037	0.40507
3802.75199	0.40621
3800.82362	0.40615
3798.89525	0.40436
3796.96687	0.40305
3795.03850	0.40257
3793.11013	0.40225
3791.18175	0.40183
3789.25338	0.40130
3787.32501	0.40070
3785.39663	0.40024
3783.46826	0.40034
3781.53989	0.40117
3779.61151	0.40186
3777.68314	0.40126
3775.75477	0.40022
3773.82639	0.39997
3771.89802	0.40056
3769.96965	0.40145
3768.04127	0.40184
3766.11290	0.40156
3764.18453	0.40082
3762.25615	0.40040
3760.32778	0.40068
3758.39941	0.40092
3756.47103	0.40113
3754.54266	0.40195
3752.61429	0.40293
3750.68591	0.40236
3748.75754	0.40066
3746.82917	0.40043
3744.90080	0.40059
3742.97242	0.39923
3741.04405	0.39810
3739.11568	0.39846
3737.18730	0.39991
3735.25893	0.40067
3733.33056	0.39866
3731.40218	0.39568
3729.47381	0.39415
3727.54544	0.39372
3725.61706	0.39312
3723.68869	0.39187
3721.76032	0.39056
3719.83194	0.38900
3717.90357	0.38687
3715.97520	0.38522
3714.04682	0.38497
3712.11845	0.38561
3710.19008	0.38452
3708.26170	0.38109
3706.33333	0.37776
3704.40496	0.37587
3702.47658	0.37449
3700.54821	0.37150
3698.61984	0.36784
3696.69146	0.36486
3694.76309	0.36225
3692.83472	0.36003
3690.90635	0.35766
3688.97797	0.35290
3687.04960	0.34547
3685.12123	0.33838
3683.19285	0.33226
3681.26448	0.32670
3679.33611	0.32173
3677.40773	0.31668
3675.47936	0.30876
3673.55099	0.29926
3671.62261	0.29154
3669.69424	0.28180
3667.76587	0.27057
3665.83749	0.26133
3663.90912	0.25270
3661.98075	0.24398
3660.05237	0.23551
3658.12400	0.22713
3656.19563	0.21771
3654.26725	0.20880
3652.33888	0.20194
3650.41051	0.19434
3648.48213	0.18360
3646.55376	0.17282
3644.62539	0.16386
3642.69701	0.15561
3640.76864	0.14771
3638.84027	0.14038
3636.91189	0.13373
3634.98352	0.12745
3633.05515	0.12102
3631.12678	0.11502
3629.19840	0.10858
3627.27003	0.10113
3625.34166	0.09511
3623.41328	0.09010
3621.48491	0.08512
3619.55654	0.07975
3617.62816	0.07467
3615.69979	0.07065
3613.77142	0.06682
3611.84304	0.06282
3609.91467	0.05905
3607.98630	0.05539
3606.05792	0.05204
3604.12955	0.04913
3602.20118	0.04596
3600.27280	0.04262
3598.34443	0.04000
3596.41606	0.03797
3594.48768	0.03574
3592.55931	0.03332
3590.63094	0.03134
3588.70256	0.02941
3586.77419	0.02712
3584.84582	0.02526
3582.91744	0.02390
3580.98907	0.02237
3579.06070	0.02063
3577.13233	0.01907
3575.20395	0.01782
3573.27558	0.01658
3571.34721	0.01533
3569.41883	0.01451
3567.49046	0.01378
3565.56209	0.01244
3563.63371	0.01105
3561.70534	0.01023
3559.77697	0.01005
3557.84859	0.00991
3555.92022	0.00922
3553.99185	0.00824
3552.06347	0.00753
3550.13510	0.00699
3548.20673	0.00631
3546.27835	0.00579
3544.34998	0.00550
3542.42161	0.00484
3540.49323	0.00383
3538.56486	0.00320
3536.63649	0.00333
3534.70811	0.00387
3532.77974	0.00438
3530.85137	0.00428
3528.92299	0.00353
3526.99462	0.00263
3525.06625	0.00205
3523.13787	0.00139
3521.20950	0.00065
3519.28113	0.00076
3517.35276	0.00106
3515.42438	0.00142
3513.49601	0.00102
3511.56764	0.00076
3509.63926	0.00084
3507.71089	0.00103
3505.78252	0.00129
3503.85414	0.00088
3501.92577	0.00055
3499.99740	0.00070
3498.06902	0.00065
3496.14065	0.00077
3494.21228	0.00082
3492.28390	0.00050
3490.35553	0.00057
3488.42716	0.00098
3486.49878	0.00141
3484.57041	0.00151
3482.64204	0.00142
3480.71366	0.00099
3478.78529	0.00091
3476.85692	0.00103
3474.92854	0.00108
3473.00017	0.00106
3471.07180	0.00088
3469.14342	0.00110
3467.21505	0.00111
3465.28668	0.00081
3463.35831	0.00046
3461.42993	0.00066
3459.50156	0.00065
3457.57319	0.00056
3455.64481	0.00072
3453.71644	0.00083
3451.78807	0.00108
3449.85969	0.00078
3447.93132	0.00064
3446.00295	0.00072
3444.07457	0.00054
3442.14620	0.00076
3440.21783	0.00069
3438.28945	0.00092
3436.36108	0.00070
3434.43271	0.00093
3432.50433	0.00069
3430.57596	0.00044
3428.64759	0.00048
3426.71921	0.00054
3424.79084	0.00102
3422.86247	0.00100
3420.93409	0.00099
3419.00572	0.00106
3417.07735	0.00102
3415.14897	0.00112
3413.22060	0.00105
3411.29223	0.00083
3409.36385	0.00091
3407.43548	0.00064
3405.50711	0.00124
3403.57874	0.00163
3401.65036	0.00154
3399.72199	0.00128
3397.79362	0.00057
3395.86524	0.00064
3393.93687	0.00094
3392.00850	0.00094
3390.08012	0.00095
3388.15175	0.00106
3386.22338	0.00136
3384.29500	0.00135
3382.36663	0.00108
3380.43826	0.00110
3378.50988	0.00106
3376.58151	0.00096
3374.65314	0.00108
3372.72476	0.00101
3370.79639	0.00073
3368.86802	0.00049
3366.93964	0.00073
3365.01127	0.00067
3363.08290	0.00037
3361.15452	0.00019
3359.22615	0.00061
3357.29778	0.00112
3355.36940	0.00120
3353.44103	0.00075
3351.51266	0.00085
3349.58428	0.00089
3347.65591	0.00057
3345.72754	0.00040
3343.79917	0.00034
3341.87079	0.00035
3339.94242	0.00067
3338.01405	0.00036
3336.08567	0.00068
3334.15730	0.00114
3332.22893	0.00130
3330.30055	0.00108
3328.37218	0.00086
3326.44381	0.00077
3324.51543	0.00081
3322.58706	0.00070
3320.65869	0.00087
3318.73031	0.00051
3316.80194	0.00070
3314.87357	0.00100
3312.94519	0.00063
3311.01682	0.00041
3309.08845	0.00069
3307.16007	0.00122
3305.23170	0.00147
3303.30333	0.00128
3301.37495	0.00105
3299.44658	0.00123
3297.51821	0.00094
3295.58983	0.00059
3293.66146	0.00063
3291.73309	0.00126
3289.80472	0.00159
3287.87634	0.00112
3285.94797	0.00074
3284.01960	0.00033
3282.09122	0.00068
3280.16285	0.00093
3278.23448	0.00137
3276.30610	0.00144
3274.37773	0.00100
3272.44936	0.00095
3270.52098	0.00113
3268.59261	0.00106
3266.66424	0.00090
3264.73586	0.00031
3262.80749	0.00107
3260.87912	0.00109
3258.95074	0.00052
3257.02237	0.00029
3255.09400	0.00033
3253.16562	0.00051
3251.23725	0.00080
3249.30888	0.00089
3247.38050	0.00086
3245.45213	0.00072
3243.52376	0.00059
3241.59538	0.00087
3239.66701	0.00105
3237.73864	0.00096
3235.81026	0.00094
3233.88189	0.00086
3231.95352	0.00064
3230.02515	0.00054
3228.09677	0.00058
3226.16840	0.00056
3224.24003	0.00100
3222.31165	0.00116
3220.38328	0.00085
3218.45491	0.00106
3216.52653	0.00072
3214.59816	0.00033
3212.66979	0.00085
3210.74141	0.00112
3208.81304	0.00100
3206.88467	0.00068
3204.95629	0.00073
3203.02792	0.00068
3201.09955	0.00080
3199.17117	0.00111
3197.24280	0.00096
3195.31443	0.00071
3193.38605	0.00069
3191.45768	0.00061
3189.52931	0.00060
3187.60093	0.00072
3185.67256	0.00078
3183.74419	0.00040
3181.81581	0.00046
3179.88744	0.00062
3177.95907	0.00040
3176.03070	0.00041
3174.10232	0.00041
3172.17395	0.00061
3170.24558	0.00066
3168.31720	0.00060
3166.38883	0.00056
3164.46046	0.00098
3162.53208	0.00095
3160.60371	0.00094
3158.67534	0.00102
3156.74696	0.00080
3154.81859	0.00052
3152.89022	0.00072
3150.96184	0.00107
3149.03347	0.00102
3147.10510	0.00058
3145.17672	0.00039
3143.24835	0.00075
3141.31998	0.00087
3139.39160	0.00046
3137.46323	0.00061
3135.53486	0.00087
3133.60648	0.00118
3131.67811	0.00110
3129.74974	0.00140
3127.82136	0.00123
3125.89299	0.00121
3123.96462	0.00162
3122.03624	0.00183
3120.10787	0.00165
3118.17950	0.00144
3116.25113	0.00120
3114.32275	0.00083
3112.39438	0.00094
3110.46601	0.00092
3108.53763	0.00087
3106.60926	0.00085
3104.68089	0.00084
3102.75251	0.00092
3100.82414	0.00121
3098.89577	0.00113
3096.96739	0.00094
3095.03902	0.00076
3093.11065	0.00068
3091.18227	0.00063
3089.25390	0.00081
3087.32553	0.00109
3085.39715	0.00100
3083.46878	0.00080
3081.54041	0.00042
3079.61203	0.00035
3077.68366	0.00064
3075.75529	0.00092
3073.82691	0.00135
3071.89854	0.00144
3069.97017	0.00119
3068.04179	0.00080
3066.11342	0.00088
3064.18505	0.00065
3062.25668	0.00038
3060.32830	0.00059
3058.39993	0.00051
3056.47156	0.00060
3054.54318	0.00079
3052.61481	0.00091
3050.68644	0.00094
3048.75806	0.00091
3046.82969	0.00129
3044.90132	0.00153
3042.97294	0.00156
3041.04457	0.00169
3039.11620	0.00210
3037.18782	0.00240
3035.25945	0.00235
3033.33108	0.00227
3031.40270	0.00247
3029.47433	0.00273
3027.54596	0.00303
3025.61758	0.00339
3023.68921	0.00364
3021.76084	0.00356
3019.83246	0.00320
3017.90409	0.00285
3015.97572	0.00277
3014.04734	0.00324
3012.11897	0.00379
3010.19060	0.00390
3008.26222	0.00353
3006.33385	0.00295
3004.40548	0.00262
3002.47711	0.00295
3000.54873	0.00359
2998.62036	0.00389
2996.69199	0.00397
2994.76361	0.00421
2992.83524	0.00412
2990.90687	0.00372
2988.97849	0.00362
2987.05012	0.00381
2985.12175	0.00400
2983.19337	0.00391
2981.26500	0.00352
2979.33663	0.00286
2977.40825	0.00197
2975.47988	0.00157
2973.55151	0.00206
2971.62313	0.00265
2969.69476	0.00281
2967.76639	0.00243
2965.83801	0.00202
2963.90964	0.00193
2961.98127	0.00182
2960.05289	0.00182
2958.12452	0.00229
2956.19615	0.00225
2954.26777	0.00186
2952.33940	0.00222
2950.41103	0.00252
2948.48266	0.00244
2946.55428	0.00264
2944.62591	0.00307
2942.69754	0.00306
2940.76916	0.00259
2938.84079	0.00208
2936.91242	0.00188
2934.98404	0.00202
2933.05567	0.00226
2931.12730	0.00243
2929.19892	0.00258
2927.27055	0.00283
2925.34218	0.00271
2923.41380	0.00279
2921.48543	0.00317
2919.55706	0.00333
2917.62868	0.00323
2915.70031	0.00332
2913.77194	0.00373
2911.84356	0.00412
2909.91519	0.00415
2907.98682	0.00393
2906.05844	0.00393
2904.13007	0.00407
2902.20170	0.00403
2900.27332	0.00386
2898.34495	0.00367
2896.41658	0.00379
2894.48820	0.00408
2892.55983	0.00407
2890.63146	0.00410
2888.70309	0.00428
2886.77471	0.00431
2884.84634	0.00434
2882.91797	0.00460
2880.98959	0.00496
2879.06122	0.00504
2877.13285	0.00473
2875.20447	0.00475
2873.27610	0.00539
2871.34773	0.00597
2869.41935	0.00606
2867.49098	0.00607
2865.56261	0.00639
2863.63423	0.00701
2861.70586	0.00770
2859.77749	0.00822
2857.84911	0.00855
2855.92074	0.00875
2853.99237	0.00909
2852.06399	0.00980
2850.13562	0.01057
2848.20725	0.01119
2846.27887	0.01185
2844.35050	0.01260
2842.42213	0.01350
2840.49375	0.01436
2838.56538	0.01505
2836.63701	0.01581
2834.70863	0.01644
2832.78026	0.01672
2830.85189	0.01702
2828.92352	0.01755
2826.99514	0.01793
2825.06677	0.01789
2823.13840	0.01766
2821.21002	0.01753
2819.28165	0.01775
2817.35328	0.01837
2815.42490	0.01897
2813.49653	0.01949
2811.56816	0.02016
2809.63978	0.02086
2807.71141	0.02140
2805.78304	0.02176
2803.85466	0.02210
2801.92629	0.02264
2799.99792	0.02327
2798.06954	0.02376
2796.14117	0.02411
2794.21280	0.02452
2792.28442	0.02508
2790.35605	0.02571
2788.42768	0.02629
2786.49930	0.02667
2784.57093	0.02689
2782.64256	0.02722
2780.71418	0.02785
2778.78581	0.02849
2776.85744	0.02894
2774.92907	0.02961
2773.00069	0.03052
2771.07232	0.03108
2769.14395	0.03134
2767.21557	0.03183
2765.28720	0.03253
2763.35883	0.03295
2761.43045	0.03320
2759.50208	0.03364
2757.57371	0.03419
2755.64533	0.03478
2753.71696	0.03540
2751.78859	0.03614
2749.86021	0.03708
2747.93184	0.03790
2746.00347	0.03837
2744.07509	0.03866
2742.14672	0.03905
2740.21835	0.03965
2738.28997	0.04032
2736.36160	0.04089
2734.43323	0.04127
2732.50485	0.04178
2730.57648	0.04280
2728.64811	0.04396
2726.71973	0.04467
2724.79136	0.04511
2722.86299	0.04573
2720.93461	0.04655
2719.00624	0.04736
2717.07787	0.04804
2715.14950	0.04856
2713.22112	0.04908
2711.29275	0.04970
2709.36438	0.05038
2707.43600	0.05114
2705.50763	0.05189
2703.57926	0.05237
2701.65088	0.05264
2699.72251	0.05311
2697.79414	0.05375
2695.86576	0.05431
2693.93739	0.05478
2692.00902	0.05522
2690.08064	0.05569
2688.15227	0.05610
2686.22390	0.05648
2684.29552	0.05693
2682.36715	0.05749
2680.43878	0.05825
2678.51040	0.05916
2676.58203	0.05996
2674.65366	0.06042
2672.72528	0.06072
2670.79691	0.06117
2668.86854	0.06172
2666.94016	0.06243
2665.01179	0.06344
2663.08342	0.06440
2661.15505	0.06500
2659.22667	0.06559
2657.29830	0.06628
2655.36993	0.06672
2653.44155	0.06685
2651.51318	0.06711
2649.58481	0.06763
2647.65643	0.06819
2645.72806	0.06875
2643.79969	0.06932
2641.87131	0.06995
2639.94294	0.07077
2638.01457	0.07167
2636.08619	0.07258
2634.15782	0.07340
2632.22945	0.07399
2630.30107	0.07433
2628.37270	0.07473
2626.44433	0.07542
2624.51595	0.07616
2622.58758	0.07688
2620.65921	0.07777
2618.73083	0.07868
2616.80246	0.07934
2614.87409	0.07985
2612.94571	0.08040
2611.01734	0.08095
2609.08897	0.08165
2607.16059	0.08287
2605.23222	0.08429
2603.30385	0.08541
2601.37548	0.08643
2599.44710	0.08748
2597.51873	0.08834
2595.59036	0.08901
2593.66198	0.08966
2591.73361	0.09049
2589.80524	0.09146
2587.87686	0.09226
2585.94849	0.09279
2584.02012	0.09335
2582.09174	0.09424
2580.16337	0.09527
2578.23500	0.09624
2576.30662	0.09726
2574.37825	0.09839
2572.44988	0.09952
2570.52150	0.10052
2568.59313	0.10148
2566.66476	0.10246
2564.73638	0.10351
2562.80801	0.10469
2560.87964	0.10581
2558.95126	0.10683
2557.02289	0.10790
2555.09452	0.10903
2553.16614	0.11016
2551.23777	0.11127
2549.30940	0.11231
2547.38103	0.11326
2545.45265	0.11412
2543.52428	0.11498
2541.59591	0.11593
2539.66753	0.11686
2537.73916	0.11767
2535.81079	0.11841
2533.88241	0.11906
2531.95404	0.11959
2530.02567	0.12028
2528.09729	0.12125
2526.16892	0.12214
2524.24055	0.12273
2522.31217	0.12328
2520.38380	0.12396
2518.45543	0.12466
2516.52705	0.12547
2514.59868	0.12646
2512.67031	0.12738
2510.74193	0.12824
2508.81356	0.12920
2506.88519	0.13017
2504.95681	0.13103
2503.02844	0.13183
2501.10007	0.13262
2499.17169	0.13345
2497.24332	0.13432
2495.31495	0.13534
2493.38657	0.13651
2491.45820	0.13754
2489.52983	0.13852
2487.60146	0.13969
2485.67308	0.14084
2483.74471	0.14178
2481.81634	0.14286
2479.88796	0.14416
2477.95959	0.14516
2476.03122	0.14569
2474.10284	0.14641
2472.17447	0.14758
2470.24610	0.14886
2468.31772	0.15019
2466.38935	0.15153
2464.46098	0.15279
2462.53260	0.15406
2460.60423	0.15528
2458.67586	0.15649
2456.74748	0.15787
2454.81911	0.15939
2452.89074	0.16096
2450.96236	0.16227
2449.03399	0.16302
2447.10562	0.16355
2445.17724	0.16437
2443.24887	0.16556
2441.32050	0.16698
2439.39212	0.16832
2437.46375	0.16941
2435.53538	0.17044
2433.60700	0.17168
2431.67863	0.17315
2429.75026	0.17441
2427.82189	0.17524
2425.89351	0.17608
2423.96514	0.17729
2422.03677	0.17851
2420.10839	0.17951
2418.18002	0.18045
2416.25165	0.18128
2414.32327	0.18217
2412.39490	0.18336
2410.46653	0.18461
2408.53815	0.18567
2406.60978	0.18668
2404.68141	0.18786
2402.75303	0.18915
2400.82466	0.19046
2398.89629	0.19177
2396.96791	0.19308
2395.03954	0.19429
2393.11117	0.19547
2391.18279	0.19685
2389.25442	0.19827
2387.32605	0.19957
2385.39767	0.20089
2383.46930	0.20228
2381.54093	0.20383
2379.61255	0.20568
2377.68418	0.20784
2375.75581	0.21038
2373.82744	0.21314
2371.89906	0.21559
2369.97069	0.21811
2368.04232	0.22109
2366.11394	0.22337
2364.18557	0.22518
2362.25720	0.22819
2360.32882	0.23131
2358.40045	0.23224
2356.47208	0.23138
2354.54370	0.23052
2352.61533	0.22951
2350.68696	0.22810
2348.75858	0.22725
2346.83021	0.22779
2344.90184	0.23018
2342.97346	0.23303
2341.04509	0.23382
2339.11672	0.23344
2337.18834	0.23397
2335.25997	0.23478
2333.33160	0.23492
2331.40322	0.23523
2329.47485	0.23606
2327.54648	0.23683
2325.61810	0.23734
2323.68973	0.23742
2321.76136	0.23689
2319.83298	0.23630
2317.90461	0.23597
2315.97624	0.23585
2314.04787	0.23612
2312.11949	0.23671
2310.19112	0.23723
2308.26275	0.23759
2306.33437	0.23816
2304.40600	0.23908
2302.47763	0.23993
2300.54925	0.24044
2298.62088	0.24081
2296.69251	0.24119
2294.76413	0.24166
2292.83576	0.24234
2290.90739	0.24306
2288.97901	0.24365
2287.05064	0.24423
2285.12227	0.24483
2283.19389	0.24514
2281.26552	0.24520
2279.33715	0.24550
2277.40877	0.24621
2275.48040	0.24706
2273.55203	0.24778
2271.62365	0.24826
2269.69528	0.24856
2267.76691	0.24886
2265.83853	0.24927
2263.91016	0.24972
2261.98179	0.25017
2260.05342	0.25066
2258.12504	0.25123
2256.19667	0.25175
2254.26830	0.25224
2252.33992	0.25287
2250.41155	0.25348
2248.48318	0.25386
2246.55480	0.25418
2244.62643	0.25457
2242.69806	0.25493
2240.76968	0.25532
2238.84131	0.25584
2236.91294	0.25633
2234.98456	0.25663
2233.05619	0.25681
2231.12782	0.25698
2229.19944	0.25720
2227.27107	0.25757
2225.34270	0.25806
2223.41432	0.25843
2221.48595	0.25855
2219.55758	0.25853
2217.62920	0.25861
2215.70083	0.25887
2213.77246	0.25926
2211.84408	0.25957
2209.91571	0.25964
2207.98734	0.25967
2206.05896	0.25985
2204.13059	0.26008
2202.20222	0.26016
2200.27385	0.26009
2198.34547	0.25989
2196.41710	0.25956
2194.48873	0.25943
2192.56035	0.25970
2190.63198	0.26011
2188.70361	0.26043
2186.77523	0.26062
2184.84686	0.26071
2182.91849	0.26071
2180.99011	0.26063
2179.06174	0.26059
2177.13337	0.26069
2175.20499	0.26087
2173.27662	0.26080
2171.34825	0.26041
2169.41987	0.26011
2167.49150	0.26013
2165.56313	0.26025
2163.63475	0.26033
2161.70638	0.26042
2159.77801	0.26055
2157.84963	0.26060
2155.92126	0.26056
2153.99289	0.26066
2152.06451	0.26100
2150.13614	0.26137
2148.20777	0.26152
2146.27940	0.26152
2144.35102	0.26157
2142.42265	0.26168
2140.49428	0.26174
2138.56590	0.26177
2136.63753	0.26189
2134.70916	0.26210
2132.78078	0.26247
2130.85241	0.26296
2128.92404	0.26345
2126.99566	0.26381
2125.06729	0.26404
2123.13892	0.26435
2121.21054	0.26487
2119.28217	0.26543
2117.35380	0.26589
2115.42542	0.26630
2113.49705	0.26663
2111.56868	0.26688
2109.64030	0.26718
2107.71193	0.26757
2105.78356	0.26807
2103.85518	0.26865
2101.92681	0.26905
2099.99844	0.26926
2098.07006	0.26949
2096.14169	0.26974
2094.21332	0.26996
2092.28494	0.27015
2090.35657	0.27031
2088.42820	0.27049
2086.49983	0.27075
2084.57145	0.27102
2082.64308	0.27118
2080.71471	0.27125
2078.78633	0.27135
2076.85796	0.27149
2074.92959	0.27153
2073.00121	0.27153
2071.07284	0.27157
2069.14447	0.27164
2067.21609	0.27170
2065.28772	0.27180
2063.35935	0.27194
2061.43097	0.27216
2059.50260	0.27249
2057.57423	0.27285
2055.64585	0.27314
2053.71748	0.27348
2051.78911	0.27390
2049.86073	0.27434
2047.93236	0.27481
2046.00399	0.27535
2044.07561	0.27596
2042.14724	0.27658
2040.21887	0.27714
2038.29049	0.27761
2036.36212	0.27797
2034.43375	0.27815
2032.50538	0.27833
2030.57700	0.27875
2028.64863	0.27930
2026.72026	0.27972
2024.79188	0.27996
2022.86351	0.28027
2020.93514	0.28073
2019.00676	0.28121
2017.07839	0.28147
2015.15002	0.28158
2013.22164	0.28188
2011.29327	0.28238
2009.36490	0.28277
2007.43652	0.28306
2005.50815	0.28343
2003.57978	0.28397
2001.65140	0.28454
1999.72303	0.28502
1997.79466	0.28548
1995.86628	0.28588
1993.93791	0.28618
1992.00954	0.28632
1990.08116	0.28628
1988.15279	0.28643
1986.22442	0.28667
1984.29604	0.28674
1982.36767	0.28684
1980.43930	0.28698
1978.51092	0.28708
1976.58255	0.28726
1974.65418	0.28756
1972.72581	0.28799
1970.79743	0.28862
1968.86906	0.28930
1966.94069	0.28971
1965.01231	0.28990
1963.08394	0.29001
1961.15557	0.28992
1959.22719	0.28977
1957.29882	0.28996
1955.37045	0.29049
1953.44207	0.29102
1951.51370	0.29138
1949.58533	0.29161
1947.65695	0.29179
1945.72858	0.29219
1943.80021	0.29288
1941.87183	0.29337
1939.94346	0.29338
1938.01509	0.29353
1936.08671	0.29405
1934.15834	0.29442
1932.22997	0.29442
1930.30159	0.29434
1928.37322	0.29457
1926.44485	0.29523
1924.51647	0.29605
1922.58810	0.29666
1920.65973	0.29697
1918.73135	0.29709
1916.80298	0.29689
1914.87461	0.29657
1912.94624	0.29663
1911.01786	0.29708
1909.08949	0.29734
1907.16112	0.29709
1905.23274	0.29685
1903.30437	0.29700
1901.37600	0.29729
1899.44762	0.29752
1897.51925	0.29770
1895.59088	0.29774
1893.66250	0.29757
1891.73413	0.29746
1889.80576	0.29752
1887.87738	0.29752
1885.94901	0.29750
1884.02064	0.29749
1882.09226	0.29741
1880.16389	0.29736
1878.23552	0.29726
1876.30714	0.29714
1874.37877	0.29711
1872.45040	0.29721
1870.52202	0.29753
1868.59365	0.29781
1866.66528	0.29749
1864.73690	0.29688
1862.80853	0.29649
1860.88016	0.29622
1858.95179	0.29574
1857.02341	0.29518
1855.09504	0.29483
1853.16667	0.29456
1851.23829	0.29424
1849.30992	0.29410
1847.38155	0.29430
1845.45317	0.29461
1843.52480	0.29422
1841.59643	0.29312
1839.66805	0.29219
1837.73968	0.29147
1835.81131	0.29074
1833.88293	0.29028
1831.95456	0.29025
1830.02619	0.29004
1828.09781	0.28916
1826.16944	0.28803
1824.24107	0.28659
1822.31269	0.28484
1820.38432	0.28320
1818.45595	0.28170
1816.52757	0.28014
1814.59920	0.27855
1812.67083	0.27693
1810.74245	0.27491
1808.81408	0.27232
1806.88571	0.26944
1804.95733	0.26663
1803.02896	0.26401
1801.10059	0.26082
1799.17222	0.25660
1797.24384	0.25221
1795.31547	0.24823
1793.38710	0.24370
1791.45872	0.23752
1789.53035	0.23125
1787.60198	0.22590
1785.67360	0.22065
1783.74523	0.21553
1781.81686	0.21079
1779.88848	0.20576
1777.96011	0.20075
1776.03174	0.19669
1774.10336	0.19322
1772.17499	0.18892
1770.24662	0.18379
1768.31824	0.17868
1766.38987	0.17334
1764.46150	0.16811
1762.53312	0.16231
1760.60475	0.15536
1758.67638	0.14791
1756.74800	0.13907
1754.81963	0.12960
1752.89126	0.12026
1750.96288	0.10863
1749.03451	0.09443
1747.10614	0.08093
1745.17777	0.06876
1743.24939	0.05736
1741.32102	0.04665
1739.39265	0.03679
1737.46427	0.02950
1735.53590	0.02381
1733.60753	0.01737
1731.67915	0.01251
1729.75078	0.00968
1727.82241	0.00742
1725.89403	0.00583
1723.96566	0.00499
1722.03729	0.00452
1720.10891	0.00408
1718.18054	0.00322
1716.25217	0.00219
1714.32379	0.00179
1712.39542	0.00171
1710.46705	0.00151
1708.53867	0.00106
1706.61030	0.00077
1704.68193	0.00083
1702.75355	0.00110
1700.82518	0.00177
1698.89681	0.00190
1696.96843	0.00129
1695.04006	0.00095
1693.11169	0.00135
1691.18331	0.00117
1689.25494	0.00077
1687.32657	0.00098
1685.39820	0.00109
1683.46982	0.00113
1681.54145	0.00102
1679.61308	0.00081
1677.68470	0.00079
1675.75633	0.00070
1673.82796	0.00060
1671.89958	0.00094
1669.97121	0.00118
1668.04284	0.00095
1666.11446	0.00052
1664.18609	0.00043
1662.25772	0.00053
1660.32934	0.00036
1658.40097	0.00036
1656.47260	0.00068
1654.54422	0.00111
1652.61585	0.00107
1650.68748	0.00103
1648.75910	0.00087
1646.83073	0.00077
1644.90236	0.00050
1642.97398	0.00022
1641.04561	0.00027
1639.11724	0.00060
1637.18886	0.00087
1635.26049	0.00079
1633.33212	0.00034
1631.40375	0.00008
1629.47537	0.00036
1627.54700	0.00039
1625.61863	0.00036
1623.69025	0.00037
1621.76188	0.00021
1619.83351	0.00040
1617.90513	0.00056
1615.97676	0.00057
1614.04839	0.00054
1612.12001	0.00031
1610.19164	0.00055
1608.26327	0.00042
1606.33489	0.00049
1604.40652	0.00054
1602.47815	0.00058
1600.54977	0.00065
1598.62140	0.00051
1596.69303	0.00050
1594.76465	0.00060
1592.83628	0.00045
1590.90791	0.00051
1588.97953	0.00052
1587.05116	0.00067
1585.12279	0.00101
1583.19441	0.00112
1581.26604	0.00063
1579.33767	0.00055
1577.40929	0.00056
1575.48092	0.00062
1573.55255	0.00086
1571.62418	0.00074
1569.69580	0.00024
1567.76743	0.00062
1565.83906	0.00068
1563.91068	0.00064
1561.98231	0.00068
1560.05394	0.00090
1558.12556	0.00106
1556.19719	0.00058
1554.26882	0.00034
1552.34044	0.00037
1550.41207	0.00064
1548.48370	0.00079
1546.55532	0.00094
1544.62695	0.00101
1542.69858	0.00123
1540.77020	0.00154
1538.84183	0.00124
1536.91346	0.00065
1534.98508	0.00028
1533.05671	0.00042
1531.12834	0.00059
1529.19996	0.00064
1527.27159	0.00075
1525.34322	0.00115
1523.41484	0.00121
1521.48647	0.00067
1519.55810	0.00066
1517.62972	0.00087
1515.70135	0.00038
1513.77298	0.00027
1511.84461	0.00043
1509.91623	0.00061
1507.98786	0.00070
1506.05949	0.00075
1504.13111	0.00113
1502.20274	0.00078
1500.27437	0.00048
1498.34599	0.00060
1496.41762	0.00090
1494.48925	0.00129
1492.56087	0.00146
1490.63250	0.00185
1488.70413	0.00272
1486.77575	0.00326
1484.84738	0.00335
1482.91901	0.00337
1480.99063	0.00340
1479.06226	0.00349
1477.13389	0.00350
1475.20551	0.00325
1473.27714	0.00284
1471.34877	0.00248
1469.42039	0.00219
1467.49202	0.00186
1465.56365	0.00146
1463.63527	0.00114
1461.70690	0.00111
1459.77853	0.00137
1457.85016	0.00163
1455.92178	0.00142
1453.99341	0.00109
1452.06504	0.00101
1450.13666	0.00120
1448.20829	0.00144
1446.27992	0.00144
1444.35154	0.00109
1442.42317	0.00082
1440.49480	0.00070
1438.56642	0.00064
1436.63805	0.00087
1434.70968	0.00090
1432.78130	0.00122
1430.85293	0.00164
1428.92456	0.00185
1426.99618	0.00161
1425.06781	0.00147
1423.13944	0.00161
1421.21106	0.00174
1419.28269	0.00165
1417.35432	0.00116
1415.42594	0.00072
1413.49757	0.00057
1411.56920	0.00066
1409.64082	0.00090
1407.71245	0.00121
1405.78408	0.00148
1403.85570	0.00174
1401.92733	0.00190
1399.99896	0.00178
1398.07059	0.00131
1396.14221	0.00077
1394.21384	0.00075
1392.28547	0.00085
1390.35709	0.00104
1388.42872	0.00120
1386.50035	0.00090
1384.57197	0.00054
1382.64360	0.00047
1380.71523	0.00034
1378.78685	0.00049
1376.85848	0.00051
1374.93011	0.00019
1373.00173	0.00041
1371.07336	0.00051
1369.14499	0.00048
1367.21661	0.00080
1365.28824	0.00131
1363.35987	0.00168
1361.43149	0.00206
1359.50312	0.00263
1357.57475	0.00284
1355.64637	0.00274
1353.71800	0.00253
1351.78963	0.00245
1349.86125	0.00258
1347.93288	0.00279
1346.00451	0.00282
1344.07614	0.00282
1342.14776	0.00295
1340.21939	0.00278
1338.29102	0.00230
1336.36264	0.00208
1334.43427	0.00209
1332.50590	0.00207
1330.57752	0.00188
1328.64915	0.00144
1326.72078	0.00100
1324.79240	0.00087
1322.86403	0.00093
1320.93566	0.00144
1319.00728	0.00189
1317.07891	0.00166
1315.15054	0.00132
1313.22216	0.00135
1311.29379	0.00156
1309.36542	0.00157
1307.43704	0.00135
1305.50867	0.00112
1303.58030	0.00118
1301.65192	0.00136
1299.72355	0.00163
1297.79518	0.00177
1295.86680	0.00179
1293.93843	0.00170
1292.01006	0.00161
1290.08168	0.00164
1288.15331	0.00152
1286.22494	0.00135
1284.29657	0.00176
1282.36819	0.00222
1280.43982	0.00224
1278.51145	0.00216
1276.58307	0.00207
1274.65470	0.00191
1272.72633	0.00187
1270.79795	0.00193
1268.86958	0.00184
1266.94121	0.00157
1265.01283	0.00135
1263.08446	0.00165
1261.15609	0.00207
1259.22771	0.00196
1257.29934	0.00180
1255.37097	0.00199
1253.44259	0.00211
1251.51422	0.00194
1249.58585	0.00171
1247.65747	0.00176
1245.72910	0.00216
1243.80073	0.00224
1241.87235	0.00221
1239.94398	0.00190
1238.01561	0.00192
1236.08723	0.00250
1234.15886	0.00267
1232.23049	0.00271
1230.30212	0.00269
1228.37374	0.00297
1226.44537	0.00356
1224.51700	0.00366
1222.58862	0.00397
1220.66025	0.00470
1218.73188	0.00512
1216.80350	0.00541
1214.87513	0.00624
1212.94676	0.00698
1211.01838	0.00655
1209.09001	0.00566
1207.16164	0.00528
1205.23326	0.00580
1203.30489	0.00699
1201.37652	0.00765
1199.44814	0.00801
1197.51977	0.00879
1195.59140	0.00926
1193.66302	0.00944
1191.73465	0.01041
1189.80628	0.01138
1187.87790	0.01126
1185.94953	0.01085
1184.02116	0.01073
1182.09278	0.01040
1180.16441	0.00981
1178.23604	0.00943
1176.30766	0.00900
1174.37929	0.00809
1172.45092	0.00674
1170.52255	0.00520
1168.59417	0.00387
1166.66580	0.00280
1164.73743	0.00200
1162.80905	0.00126
1160.88068	0.00146
1158.95231	0.00177
1157.02393	0.00167
1155.09556	0.00189
1153.16719	0.00209
1151.23881	0.00238
1149.31044	0.00383
1147.38207	0.00532
1145.45369	0.00677
1143.52532	0.00823
1141.59695	0.00939
1139.66857	0.00954
1137.74020	0.00860
1135.81183	0.00738
1133.88345	0.00641
1131.95508	0.00584
1130.02671	0.00551
1128.09833	0.00475
1126.16996	0.00319
1124.24159	0.00158
1122.31321	0.00131
1120.38484	0.00134
1118.45647	0.00203
1116.52809	0.00304
1114.59972	0.00291
1112.67135	0.00186
1110.74298	0.00130
1108.81460	0.00173
1106.88623	0.00213
1104.95786	0.00154
1103.02948	0.00191
1101.10111	0.00234
1099.17274	0.00269
1097.24436	0.00338
1095.31599	0.00347
1093.38762	0.00253
1091.45924	0.00147
1089.53087	0.00105
1087.60250	0.00139
1085.67412	0.00155
1083.74575	0.00130
1081.81738	0.00117
1079.88900	0.00101
1077.96063	0.00077
1076.03226	0.00097
1074.10388	0.00093
1072.17551	0.00143
1070.24714	0.00158
1068.31876	0.00143
1066.39039	0.00094
1064.46202	0.00097
1062.53364	0.00070
1060.60527	0.00145
1058.67690	0.00208
1056.74853	0.00269
1054.82015	0.00271
1052.89178	0.00221
1050.96341	0.00220
1049.03503	0.00257
1047.10666	0.00282
1045.17829	0.00305
1043.24991	0.00312
1041.32154	0.00277
1039.39317	0.00229
1037.46479	0.00160
1035.53642	0.00155
1033.60805	0.00193
1031.67967	0.00139
1029.75130	0.00172
1027.82293	0.00201
1025.89455	0.00221
1023.96618	0.00219
1022.03781	0.00178
1020.10943	0.00122
1018.18106	0.00150
1016.25269	0.00262
1014.32431	0.00313
1012.39594	0.00315
1010.46757	0.00392
1008.53919	0.00553
1006.61082	0.00765
1004.68245	0.01080
1002.75407	0.01458
1000.82570	0.01790
998.89733	0.02036
996.96896	0.02262
995.04058	0.02523
993.11221	0.02817
991.18384	0.03119
989.25546	0.03386
987.32709	0.03586
985.39872	0.03729
983.47034	0.03791
981.54197	0.03702
979.61360	0.03485
977.68522	0.03281
975.75685	0.03239
973.82848	0.03444
971.90010	0.03876
969.97173	0.04409
968.04336	0.04909
966.11498	0.05320
964.18661	0.05544
962.25824	0.05437
960.32986	0.04917
958.40149	0.04073
956.47312	0.03312
954.54474	0.03027
952.61637	0.03200
950.68800	0.03653
948.75962	0.04311
946.83125	0.05027
944.90288	0.05616
942.97451	0.06062
941.04613	0.06445
939.11776	0.06813
937.18939	0.07148
935.26101	0.07414
933.33264	0.07593
931.40427	0.07668
929.47589	0.07645
927.54752	0.07570
925.61915	0.07480
923.69077	0.07381
921.76240	0.07274
919.83403	0.07203
917.90565	0.07211
915.97728	0.07283
914.04891	0.07338
912.12053	0.07277
910.19216	0.07075
908.26379	0.06767
906.33541	0.06402
904.40704	0.05990
902.47867	0.05561
900.55029	0.05245
898.62192	0.05102
896.69355	0.05005
894.76517	0.04919
892.83680	0.04960
890.90843	0.05118
888.98005	0.05320
887.05168	0.05492
885.12331	0.05538
883.19494	0.05497
881.26656	0.05476
879.33819	0.05478
877.40982	0.05517
875.48144	0.05648
873.55307	0.05771
871.62470	0.05739
869.69632	0.05628
867.76795	0.05608
865.83958	0.05689
863.91120	0.05727
861.98283	0.05636
860.05446	0.05544
858.12608	0.05526
856.19771	0.05424
854.26934	0.05200
852.34096	0.04995
850.41259	0.04848
848.48422	0.04731
846.55584	0.04654
844.62747	0.04587
842.69910	0.04493
840.77072	0.04372
838.84235	0.04179
836.91398	0.03923
834.98560	0.03774
833.05723	0.03778
831.12886	0.03780
829.20049	0.03672
827.27211	0.03488
825.34374	0.03346
823.41537	0.03307
821.48699	0.03286
819.55862	0.03214
817.63025	0.03131
815.70187	0.03073
813.77350	0.03014
811.84513	0.02944
809.91675	0.02865
807.98838	0.02806
806.06001	0.02806
804.13163	0.02812
802.20326	0.02734
800.27489	0.02586
798.34651	0.02468
796.41814	0.02343
794.48977	0.02129
792.56139	0.01916
790.63302	0.01763
788.70465	0.01622
786.77627	0.01552
784.84790	0.01561
782.91953	0.01532
780.99115	0.01470
779.06278	0.01493
777.13441	0.01554
775.20603	0.01534
773.27766	0.01450
771.34929	0.01391
769.42092	0.01393
767.49254	0.01377
765.56417	0.01335
763.63580	0.01310
761.70742	0.01230
759.77905	0.01080
757.85068	0.00981
755.92230	0.00901
753.99393	0.00746
752.06556	0.00590
750.13718	0.00551
748.20881	0.00624
746.28044	0.00738
744.35206	0.00837
742.42369	0.00903
740.49532	0.00891
738.56694	0.00810
736.63857	0.00745
734.71020	0.00753
732.78182	0.00847
730.85345	0.00951
728.92508	0.00954
726.99670	0.00827
725.06833	0.00602
723.13996	0.00405
721.21158	0.00363
719.28321	0.00398
717.35484	0.00431
715.42647	0.00437
713.49809	0.00452
711.56972	0.00475
709.64135	0.00479
707.71297	0.00523
705.78460	0.00602
703.85623	0.00633
701.92785	0.00556
699.99948	0.00459
698.07111	0.00469
696.14273	0.00584
694.21436	0.00688
692.28599	0.00673
690.35761	0.00664
688.42924	0.00649
686.50087	0.00616
684.57249	0.00642
682.64412	0.00726
680.71575	0.00743
678.78737	0.00690
676.85900	0.00683
674.93063	0.00758
673.00225	0.00780
671.07388	0.00703
669.14551	0.00452
667.21713	0.00473
665.28876	0.00661
663.36039	0.00766
661.43201	0.00736
659.50364	0.00752
657.57527	0.00847
655.64690	0.00936
653.71852	0.00916
651.79015	0.00832
649.86178	0.00853
647.93340	0.00926
646.00503	0.00854
644.07666	0.00760
642.14828	0.00725
640.21991	0.00703
638.29154	0.00837
636.36316	0.00970
634.43479	0.00998
632.50642	0.01019
630.57804	0.00930
628.64967	0.00620
626.72130	0.00359
624.79292	0.00465
622.86455	0.00547
620.93618	0.00431
619.00780	0.00449
617.07943	0.00406
615.15106	0.00512
613.22268	0.00863
611.29431	0.01100
609.36594	0.00926
607.43756	0.00630
605.50919	0.00457
603.58082	0.00325
601.65244	0.00466
599.72407	0.00826
