3997.51769	0.62926
3995.58931	0.62932
3993.66094	0.62912
3991.73257	0.62917
3989.80419	0.62936
3987.87582	0.62924
3985.94745	0.62926
3984.01907	0.62953
3982.09070	0.62967
3980.16233	0.62962
3978.23396	0.62947
3976.30558	0.62935
3974.37721	0.62940
3972.44884	0.62981
3970.52046	0.63013
3968.59209	0.62982
3966.66372	0.62976
3964.73534	0.63088
3962.80697	0.63236
3960.87860	0.63291
3958.95022	0.63292
3957.02185	0.63349
3955.09348	0.63452
3953.16510	0.63565
3951.23673	0.63681
3949.30836	0.63724
3947.37998	0.63662
3945.45161	0.63622
3943.52324	0.63654
3941.59486	0.63658
3939.66649	0.63631
3937.73812	0.63646
3935.80974	0.63734
3933.88137	0.63907
3931.95300	0.64075
3930.02462	0.64074
3928.09625	0.63985
3926.16788	0.64005
3924.23950	0.64094
3922.31113	0.64135
3920.38276	0.64190
3918.45439	0.64292
3916.52601	0.64357
3914.59764	0.64351
3912.66927	0.64348
3910.74089	0.64401
3908.81252	0.64512
3906.88415	0.64725
3904.95577	0.65050
3903.02740	0.65304
3901.09903	0.65341
3899.17065	0.65192
3897.24228	0.64986
3895.31391	0.64974
3893.38553	0.65200
3891.45716	0.65364
3889.52879	0.65301
3887.60041	0.65321
3885.67204	0.65478
3883.74367	0.65576
3881.81529	0.65667
3879.88692	0.65696
3877.95855	0.65563
3876.03017	0.65481
3874.10180	0.65535
3872.17343	0.65714
3870.24505	0.65933
3868.31668	0.65988
3866.38831	0.66035
3864.45994	0.66172
3862.53156	0.66118
3860.60319	0.65907
3858.67482	0.65831
3856.74644	0.65997
3854.81807	0.66428
3852.88970	0.66796
3850.96132	0.66582
3849.03295	0.66234
3847.10458	0.66078
3845.17620	0.66145
3843.24783	0.66312
3841.31946	0.66481
3839.39108	0.66659
3837.46271	0.66744
3835.53434	0.66644
3833.60596	0.66505
3831.67759	0.66420
3829.74922	0.66419
3827.82084	0.66486
3825.89247	0.66530
3823.96410	0.66617
3822.03572	0.66862
3820.10735	0.66978
3818.17898	0.66850
3816.25060	0.66709
3814.32223	0.66512
3812.39386	0.66360
3810.46548	0.66401
3808.53711	0.66600
3806.60874	0.66769
3804.68037	0.66861
3802.75199	0.67052
3800.82362	0.67155
3798.89525	0.66986
3796.96687	0.66799
3795.03850	0.66639
3793.11013	0.66511
3791.18175	0.66447
3789.25338	0.66398
3787.32501	0.66377
3785.39663	0.66402
3783.46826	0.66411
3781.53989	0.66435
3779.61151	0.66491
3777.68314	0.66412
3775.75477	0.66267
3773.82639	0.66275
3771.89802	0.66419
3769.96965	0.66551
3768.04127	0.66573
3766.11290	0.66526
3764.18453	0.66455
3762.25615	0.66437
3760.32778	0.66513
3758.39941	0.66544
3756.47103	0.66501
3754.54266	0.66580
3752.61429	0.66882
3750.68591	0.67146
3748.75754	0.67078
3746.82917	0.67026
3744.90080	0.66962
3742.97242	0.66626
3741.04405	0.66394
3739.11568	0.66489
3737.18730	0.66791
3735.25893	0.66979
3733.33056	0.66723
3731.40218	0.66249
3729.47381	0.65969
3727.54544	0.65942
3725.61706	0.65993
3723.68869	0.65924
3721.76032	0.65726
3719.83194	0.65481
3717.90357	0.65254
3715.97520	0.65175
3714.04682	0.65300
3712.11845	0.65493
3710.19008	0.65365
3708.26170	0.64878
3706.33333	0.64425
3704.40496	0.64184
3702.47658	0.64007
3700.54821	0.63646
3698.61984	0.63240
3696.69146	0.62913
3694.76309	0.62643
3692.83472	0.62499
3690.90635	0.62394
3688.97797	0.61885
3687.04960	0.60894
3685.12123	0.59978
3683.19285	0.59260
3681.26448	0.58634
3679.33611	0.58087
3677.40773	0.57575
3675.47936	0.56714
3673.55099	0.55554
3671.62261	0.54614
3669.69424	0.53478
3667.76587	0.52078
3665.83749	0.50868
3663.90912	0.49752
3661.98075	0.48603
3660.05237	0.47478
3658.12400	0.46413
3656.19563	0.45170
3654.26725	0.43900
3652.33888	0.42929
3650.41051	0.41885
3648.48213	0.40264
3646.55376	0.38495
3644.62539	0.37047
3642.69701	0.35782
3640.76864	0.34581
3638.84027	0.33439
3636.91189	0.32358
3634.98352	0.31266
3633.05515	0.30147
3631.12678	0.29116
3629.19840	0.27896
3627.27003	0.26426
3625.34166	0.25295
3623.41328	0.24387
3621.48491	0.23486
3619.55654	0.22447
3617.62816	0.21367
3615.69979	0.20504
3613.77142	0.19699
3611.84304	0.18836
3609.91467	0.18007
3607.98630	0.17139
3606.05792	0.16254
3604.12955	0.15531
3602.20118	0.14889
3600.27280	0.14213
3598.34443	0.13530
3596.41606	0.12886
3594.48768	0.12226
3592.55931	0.11588
3590.63094	0.11103
3588.70256	0.10657
3586.77419	0.10091
3584.84582	0.09496
3582.91744	0.08965
3580.98907	0.08470
3579.06070	0.08004
3577.13233	0.07594
3575.20395	0.07206
3573.27558	0.06823
3571.34721	0.06461
3569.41883	0.06119
3567.49046	0.05762
3565.56209	0.05382
3563.63371	0.05045
3561.70534	0.04737
3559.77697	0.04453
3557.84859	0.04194
3555.92022	0.03926
3553.99185	0.03656
3552.06347	0.03417
3550.13510	0.03237
3548.20673	0.03076
3546.27835	0.02894
3544.34998	0.02704
3542.42161	0.02527
3540.49323	0.02341
3538.56486	0.02153
3536.63649	0.01992
3534.70811	0.01830
3532.77974	0.01673
3530.85137	0.01532
3528.92299	0.01419
3526.99462	0.01337
3525.06625	0.01229
3523.13787	0.01090
3521.20950	0.00978
3519.28113	0.00898
3517.35276	0.00789
3515.42438	0.00666
3513.49601	0.00571
3511.56764	0.00508
3509.63926	0.00466
3507.71089	0.00412
3505.78252	0.00327
3503.85414	0.00239
3501.92577	0.00221
3499.99740	0.00240
3498.06902	0.00221
3496.14065	0.00154
3494.21228	0.00106
3492.28390	0.00100
3490.35553	0.00099
3488.42716	0.00112
3486.49878	0.00079
3484.57041	0.00069
3482.64204	0.00073
3480.71366	0.00113
3478.78529	0.00110
3476.85692	0.00075
3474.92854	0.00081
3473.00017	0.00112
3471.07180	0.00098
3469.14342	0.00069
3467.21505	0.00075
3465.28668	0.00069
3463.35831	0.00033
3461.42993	0.00058
3459.50156	0.00057
3457.57319	0.00073
3455.64481	0.00142
3453.71644	0.00162
3451.78807	0.00141
3449.85969	0.00111
3447.93132	0.00043
3446.00295	0.00070
3444.07457	0.00113
3442.14620	0.00117
3440.21783	0.00110
3438.28945	0.00126
3436.36108	0.00131
3434.43271	0.00123
3432.50433	0.00105
3430.57596	0.00119
3428.64759	0.00125
3426.71921	0.00088
3424.79084	0.00107
3422.86247	0.00128
3420.93409	0.00118
3419.00572	0.00106
3417.07735	0.00086
3415.14897	0.00083
3413.22060	0.00075
3411.29223	0.00089
3409.36385	0.00085
3407.43548	0.00090
3405.50711	0.00118
3403.57874	0.00123
3401.65036	0.00108
3399.72199	0.00094
3397.79362	0.00121
3395.86524	0.00114
3393.93687	0.00077
3392.00850	0.00093
3390.08012	0.00117
3388.15175	0.00139
3386.22338	0.00137
3384.29500	0.00128
3382.36663	0.00144
3380.43826	0.00134
3378.50988	0.00102
3376.58151	0.00058
3374.65314	0.00047
3372.72476	0.00062
3370.79639	0.00071
3368.86802	0.00065
3366.93964	0.00063
3365.01127	0.00066
3363.08290	0.00052
3361.15452	0.00046
3359.22615	0.00069
3357.29778	0.00064
3355.36940	0.00050
3353.44103	0.00046
3351.51266	0.00021
3349.58428	0.00098
3347.65591	0.00160
3345.72754	0.00157
3343.79917	0.00094
3341.87079	0.00105
3339.94242	0.00115
3338.01405	0.00108
3336.08567	0.00119
3334.15730	0.00147
3332.22893	0.00155
3330.30055	0.00136
3328.37218	0.00111
3326.44381	0.00100
3324.51543	0.00091
3322.58706	0.00097
3320.65869	0.00112
3318.73031	0.00146
3316.80194	0.00137
3314.87357	0.00107
3312.94519	0.00132
3311.01682	0.00137
3309.08845	0.00136
3307.16007	0.00077
3305.23170	0.00073
3303.30333	0.00106
3301.37495	0.00117
3299.44658	0.00081
3297.51821	0.00037
3295.58983	0.00064
3293.66146	0.00062
3291.73309	0.00089
3289.80472	0.00085
3287.87634	0.00117
3285.94797	0.00155
3284.01960	0.00122
3282.09122	0.00096
3280.16285	0.00121
3278.23448	0.00154
3276.30610	0.00139
3274.37773	0.00121
3272.44936	0.00129
3270.52098	0.00119
3268.59261	0.00151
3266.66424	0.00161
3264.73586	0.00099
3262.80749	0.00069
3260.87912	0.00090
3258.95074	0.00130
3257.02237	0.00131
3255.09400	0.00103
3253.16562	0.00137
3251.23725	0.00129
3249.30888	0.00048
3247.38050	0.00070
3245.45213	0.00100
3243.52376	0.00058
3241.59538	0.00085
3239.66701	0.00082
3237.73864	0.00079
3235.81026	0.00131
3233.88189	0.00150
3231.95352	0.00127
3230.02515	0.00098
3228.09677	0.00111
3226.16840	0.00096
3224.24003	0.00078
3222.31165	0.00063
3220.38328	0.00015
3218.45491	0.00076
3216.52653	0.00116
3214.59816	0.00159
3212.66979	0.00143
3210.74141	0.00102
3208.81304	0.00098
3206.88467	0.00099
3204.95629	0.00123
3203.02792	0.00137
3201.09955	0.00107
3199.17117	0.00063
3197.24280	0.00088
3195.31443	0.00097
3193.38605	0.00084
3191.45768	0.00118
3189.52931	0.00149
3187.60093	0.00142
3185.67256	0.00135
3183.74419	0.00109
3181.81581	0.00079
3179.88744	0.00064
3177.95907	0.00104
3176.03070	0.00150
3174.10232	0.00146
3172.17395	0.00133
3170.24558	0.00155
3168.31720	0.00189
3166.38883	0.00183
3164.46046	0.00149
3162.53208	0.00142
3160.60371	0.00145
3158.67534	0.00121
3156.74696	0.00093
3154.81859	0.00106
3152.89022	0.00140
3150.96184	0.00162
3149.03347	0.00227
3147.10510	0.00282
3145.17672	0.00301
3143.24835	0.00279
3141.31998	0.00251
3139.39160	0.00265
3137.46323	0.00292
3135.53486	0.00287
3133.60648	0.00253
3131.67811	0.00239
3129.74974	0.00259
3127.82136	0.00265
3125.89299	0.00278
3123.96462	0.00284
3122.03624	0.00243
3120.10787	0.00194
3118.17950	0.00197
3116.25113	0.00231
3114.32275	0.00230
3112.39438	0.00188
3110.46601	0.00180
3108.53763	0.00167
3106.60926	0.00132
3104.68089	0.00136
3102.75251	0.00151
3100.82414	0.00173
3098.89577	0.00199
3096.96739	0.00206
3095.03902	0.00193
3093.11065	0.00191
3091.18227	0.00192
3089.25390	0.00166
3087.32553	0.00169
3085.39715	0.00200
3083.46878	0.00207
3081.54041	0.00209
3079.61203	0.00229
3077.68366	0.00285
3075.75529	0.00342
3073.82691	0.00367
3071.89854	0.00353
3069.97017	0.00339
3068.04179	0.00345
3066.11342	0.00354
3064.18505	0.00367
3062.25668	0.00399
3060.32830	0.00409
3058.39993	0.00392
3056.47156	0.00403
3054.54318	0.00443
3052.61481	0.00457
3050.68644	0.00433
3048.75806	0.00432
3046.82969	0.00474
3044.90132	0.00527
3042.97294	0.00572
3041.04457	0.00595
3039.11620	0.00586
3037.18782	0.00573
3035.25945	0.00568
3033.33108	0.00573
3031.40270	0.00595
3029.47433	0.00640
3027.54596	0.00714
3025.61758	0.00797
3023.68921	0.00839
3021.76084	0.00837
3019.83246	0.00823
3017.90409	0.00823
3015.97572	0.00855
3014.04734	0.00914
3012.11897	0.00965
3010.19060	0.00969
3008.26222	0.00958
3006.33385	0.00982
3004.40548	0.01002
3002.47711	0.00982
3000.54873	0.00953
2998.62036	0.00947
2996.69199	0.00958
2994.76361	0.00955
2992.83524	0.00916
2990.90687	0.00841
2988.97849	0.00753
2987.05012	0.00695
2985.12175	0.00684
2983.19337	0.00696
2981.26500	0.00713
2979.33663	0.00709
2977.40825	0.00631
2975.47988	0.00511
2973.55151	0.00456
2971.62313	0.00474
2969.69476	0.00484
2967.76639	0.00439
2965.83801	0.00371
2963.90964	0.00328
2961.98127	0.00333
2960.05289	0.00384
2958.12452	0.00419
2956.19615	0.00417
2954.26777	0.00456
2952.33940	0.00500
2950.41103	0.00513
2948.48266	0.00507
2946.55428	0.00487
2944.62591	0.00480
2942.69754	0.00473
2940.76916	0.00409
2938.84079	0.00326
2936.91242	0.00323
2934.98404	0.00371
2933.05567	0.00363
2931.12730	0.00301
2929.19892	0.00279
2927.27055	0.00323
2925.34218	0.00383
2923.41380	0.00426
2921.48543	0.00496
2919.55706	0.00568
2917.62868	0.00604
2915.70031	0.00653
2913.77194	0.00734
2911.84356	0.00793
2909.91519	0.00841
2907.98682	0.00919
2906.05844	0.01029
2904.13007	0.01111
2902.20170	0.01127
2900.27332	0.01098
2898.34495	0.01055
2896.41658	0.01045
2894.48820	0.01090
2892.55983	0.01138
2890.63146	0.01150
2888.70309	0.01143
2886.77471	0.01157
2884.84634	0.01214
2882.91797	0.01253
2880.98959	0.01226
2879.06122	0.01194
2877.13285	0.01233
2875.20447	0.01330
2873.27610	0.01409
2871.34773	0.01428
2869.41935	0.01429
2867.49098	0.01481
2865.56261	0.01589
2863.63423	0.01709
2861.70586	0.01792
2859.77749	0.01826
2857.84911	0.01843
2855.92074	0.01892
2853.99237	0.01996
2852.06399	0.02131
2850.13562	0.02251
2848.20725	0.02369
2846.27887	0.02548
2844.35050	0.02773
2842.42213	0.02965
2840.49375	0.03100
2838.56538	0.03188
2836.63701	0.03233
2834.70863	0.03268
2832.78026	0.03309
2830.85189	0.03336
2828.92352	0.03359
2826.99514	0.03396
2825.06677	0.03452
2823.13840	0.03533
2821.21002	0.03620
2819.28165	0.03673
2817.35328	0.03696
2815.42490	0.03725
2813.49653	0.03781
2811.56816	0.03850
2809.63978	0.03911
2807.71141	0.03974
2805.78304	0.04044
2803.85466	0.04116
2801.92629	0.04216
2799.99792	0.04345
2798.06954	0.04437
2796.14117	0.04479
2794.21280	0.04534
2792.28442	0.04617
2790.35605	0.04685
2788.42768	0.04730
2786.49930	0.04781
2784.57093	0.04856
2782.64256	0.04948
2780.71418	0.05027
2778.78581	0.05083
2776.85744	0.05143
2774.92907	0.05218
2773.00069	0.05281
2771.07232	0.05354
2769.14395	0.05474
2767.21557	0.05594
2765.28720	0.05684
2763.35883	0.05768
2761.43045	0.05845
2759.50208	0.05937
2757.57371	0.06072
2755.64533	0.06208
2753.71696	0.06307
2751.78859	0.06402
2749.86021	0.06509
2747.93184	0.06614
2746.00347	0.06726
2744.07509	0.06858
2742.14672	0.07001
2740.21835	0.07150
2738.28997	0.07312
2736.36160	0.07459
2734.43323	0.07550
2732.50485	0.07626
2730.57648	0.07747
2728.64811	0.07891
2726.71973	0.08023
2724.79136	0.08133
2722.86299	0.08233
2720.93461	0.08351
2719.00624	0.08473
2717.07787	0.08575
2715.14950	0.08679
2713.22112	0.08797
2711.29275	0.08908
2709.36438	0.09007
2707.43600	0.09085
2705.50763	0.09158
2703.57926	0.09241
2701.65088	0.09308
2699.72251	0.09377
2697.79414	0.09457
2695.86576	0.09507
2693.93739	0.09542
2692.00902	0.09603
2690.08064	0.09694
2688.15227	0.09806
2686.22390	0.09924
2684.29552	0.10007
2682.36715	0.10056
2680.43878	0.10133
2678.51040	0.10260
2676.58203	0.10385
2674.65366	0.10489
2672.72528	0.10593
2670.79691	0.10703
2668.86854	0.10814
2666.94016	0.10930
2665.01179	0.11062
2663.08342	0.11214
2661.15505	0.11369
2659.22667	0.11497
2657.29830	0.11596
2655.36993	0.11701
2653.44155	0.11824
2651.51318	0.11956
2649.58481	0.12098
2647.65643	0.12220
2645.72806	0.12313
2643.79969	0.12425
2641.87131	0.12562
2639.94294	0.12697
2638.01457	0.12823
2636.08619	0.12932
2634.15782	0.13031
2632.22945	0.13153
2630.30107	0.13304
2628.37270	0.13469
2626.44433	0.13656
2624.51595	0.13845
2622.58758	0.14005
2620.65921	0.14145
2618.73083	0.14284
2616.80246	0.14423
2614.87409	0.14557
2612.94571	0.14717
2611.01734	0.14913
2609.08897	0.15111
2607.16059	0.15303
2605.23222	0.15496
2603.30385	0.15673
2601.37548	0.15825
2599.44710	0.15969
2597.51873	0.16138
2595.59036	0.16340
2593.66198	0.16548
2591.73361	0.16741
2589.80524	0.16919
2587.87686	0.17067
2585.94849	0.17196
2584.02012	0.17357
2582.09174	0.17552
2580.16337	0.17738
2578.23500	0.17912
2576.30662	0.18094
2574.37825	0.18280
2572.44988	0.18444
2570.52150	0.18598
2568.59313	0.18780
2566.66476	0.18985
2564.73638	0.19184
2562.80801	0.19389
2560.87964	0.19604
2558.95126	0.19803
2557.02289	0.19982
2555.09452	0.20160
2553.16614	0.20342
2551.23777	0.20524
2549.30940	0.20727
2547.38103	0.20954
2545.45265	0.21151
2543.52428	0.21297
2541.59591	0.21444
2539.66753	0.21604
2537.73916	0.21756
2535.81079	0.21910
2533.88241	0.22067
2531.95404	0.22197
2530.02567	0.22306
2528.09729	0.22437
2526.16892	0.22584
2524.24055	0.22722
2522.31217	0.22871
2520.38380	0.23042
2518.45543	0.23221
2516.52705	0.23398
2514.59868	0.23570
2512.67031	0.23741
2510.74193	0.23901
2508.81356	0.24050
2506.88519	0.24220
2504.95681	0.24407
2503.02844	0.24572
2501.10007	0.24720
2499.17169	0.24881
2497.24332	0.25048
2495.31495	0.25216
2493.38657	0.25393
2491.45820	0.25566
2489.52983	0.25725
2487.60146	0.25880
2485.67308	0.26034
2483.74471	0.26188
2481.81634	0.26351
2479.88796	0.26523
2477.95959	0.26693
2476.03122	0.26862
2474.10284	0.27045
2472.17447	0.27252
2470.24610	0.27470
2468.31772	0.27686
2466.38935	0.27903
2464.46098	0.28120
2462.53260	0.28337
2460.60423	0.28563
2458.67586	0.28805
2456.74748	0.29063
2454.81911	0.29300
2452.89074	0.29489
2450.96236	0.29664
2449.03399	0.29861
2447.10562	0.30063
2445.17724	0.30264
2443.24887	0.30498
2441.32050	0.30750
2439.39212	0.30959
2437.46375	0.31136
2435.53538	0.31330
2433.60700	0.31542
2431.67863	0.31755
2429.75026	0.31960
2427.82189	0.32151
2425.89351	0.32332
2423.96514	0.32516
2422.03677	0.32709
2420.10839	0.32902
2418.18002	0.33091
2416.25165	0.33290
2414.32327	0.33492
2412.39490	0.33690
2410.46653	0.33892
2408.53815	0.34099
2406.60978	0.34303
2404.68141	0.34500
2402.75303	0.34721
2400.82466	0.34985
2398.89629	0.35256
2396.96791	0.35506
2395.03954	0.35744
2393.11117	0.35992
2391.18279	0.36235
2389.25442	0.36447
2387.32605	0.36661
2385.39767	0.36916
2383.46930	0.37214
2381.54093	0.37553
2379.61255	0.37930
2377.68418	0.38333
2375.75581	0.38750
2373.82744	0.39188
2371.89906	0.39687
2369.97069	0.40302
2368.04232	0.40987
2366.11394	0.41540
2364.18557	0.41874
2362.25720	0.42187
2360.32882	0.42545
2358.40045	0.42708
2356.47208	0.42600
2354.54370	0.42426
2352.61533	0.42301
2350.68696	0.42227
2348.75858	0.42253
2346.83021	0.42460
2344.90184	0.42884
2342.97346	0.43336
2341.04509	0.43552
2339.11672	0.43532
2337.18834	0.43460
2335.25997	0.43507
2333.33160	0.43648
2331.40322	0.43766
2329.47485	0.43846
2327.54648	0.43899
2325.61810	0.43923
2323.68973	0.43939
2321.76136	0.43920
2319.83298	0.43864
2317.90461	0.43837
2315.97624	0.43862
2314.04787	0.43929
2312.11949	0.44034
2310.19112	0.44168
2308.26275	0.44316
2306.33437	0.44450
2304.40600	0.44557
2302.47763	0.44667
2300.54925	0.44807
2298.62088	0.44964
2296.69251	0.45101
2294.76413	0.45210
2292.83576	0.45325
2290.90739	0.45455
2288.97901	0.45589
2287.05064	0.45734
2285.12227	0.45895
2283.19389	0.46050
2281.26552	0.46192
2279.33715	0.46327
2277.40877	0.46437
2275.48040	0.46515
2273.55203	0.46600
2271.62365	0.46723
2269.69528	0.46882
2267.76691	0.47030
2265.83853	0.47122
2263.91016	0.47201
2261.98179	0.47298
2260.05342	0.47396
2258.12504	0.47501
2256.19667	0.47602
2254.26830	0.47695
2252.33992	0.47812
2250.41155	0.47949
2248.48318	0.48087
2246.55480	0.48226
2244.62643	0.48351
2242.69806	0.48439
2240.76968	0.48511
2238.84131	0.48596
2236.91294	0.48688
2234.98456	0.48773
2233.05619	0.48841
2231.12782	0.48887
2229.19944	0.48928
2227.27107	0.48988
2225.34270	0.49082
2223.41432	0.49184
2221.48595	0.49235
2219.55758	0.49246
2217.62920	0.49287
2215.70083	0.49366
2213.77246	0.49439
2211.84408	0.49497
2209.91571	0.49561
2207.98734	0.49635
2206.05896	0.49713
2204.13059	0.49790
2202.20222	0.49847
2200.27385	0.49896
2198.34547	0.49952
2196.41710	0.49985
2194.48873	0.49995
2192.56035	0.50021
2190.63198	0.50077
2188.70361	0.50149
2186.77523	0.50220
2184.84686	0.50279
2182.91849	0.50319
2180.99011	0.50351
2179.06174	0.50396
2177.13337	0.50453
2175.20499	0.50506
2173.27662	0.50543
2171.34825	0.50553
2169.41987	0.50561
2167.49150	0.50600
2165.56313	0.50658
2163.63475	0.50703
2161.70638	0.50724
2159.77801	0.50733
2157.84963	0.50745
2155.92126	0.50779
2153.99289	0.50841
2152.06451	0.50905
2150.13614	0.50948
2148.20777	0.50964
2146.27940	0.50969
2144.35102	0.51005
2142.42265	0.51074
2140.49428	0.51141
2138.56590	0.51188
2136.63753	0.51224
2134.70916	0.51242
2132.78078	0.51260
2130.85241	0.51335
2128.92404	0.51464
2126.99566	0.51587
2125.06729	0.51672
2123.13892	0.51740
2121.21054	0.51823
2119.28217	0.51925
2117.35380	0.52030
2115.42542	0.52128
2113.49705	0.52212
2111.56868	0.52267
2109.64030	0.52303
2107.71193	0.52365
2105.78356	0.52457
2103.85518	0.52551
2101.92681	0.52642
2099.99844	0.52712
2098.07006	0.52725
2096.14169	0.52714
2094.21332	0.52732
2092.28494	0.52788
2090.35657	0.52876
2088.42820	0.52972
2086.49983	0.53039
2084.57145	0.53045
2082.64308	0.53001
2080.71471	0.52966
2078.78633	0.52959
2076.85796	0.52966
2074.92959	0.52980
2073.00121	0.52983
2071.07284	0.52974
2069.14447	0.52979
2067.21609	0.52984
2065.28772	0.52954
2063.35935	0.52923
2061.43097	0.52932
2059.50260	0.52965
2057.57423	0.53003
2055.64585	0.53054
2053.71748	0.53106
2051.78911	0.53146
2049.86073	0.53202
2047.93236	0.53278
2046.00399	0.53359
2044.07561	0.53445
2042.14724	0.53515
2040.21887	0.53550
2038.29049	0.53580
2036.36212	0.53626
2034.43375	0.53668
2032.50538	0.53698
2030.57700	0.53719
2028.64863	0.53730
2026.72026	0.53732
2024.79188	0.53727
2022.86351	0.53736
2020.93514	0.53768
2019.00676	0.53794
2017.07839	0.53799
2015.15002	0.53793
2013.22164	0.53796
2011.29327	0.53818
2009.36490	0.53836
2007.43652	0.53834
2005.50815	0.53827
2003.57978	0.53836
2001.65140	0.53881
1999.72303	0.53948
1997.79466	0.53989
1995.86628	0.53998
1993.93791	0.54022
1992.00954	0.54064
1990.08116	0.54066
1988.15279	0.54023
1986.22442	0.53984
1984.29604	0.53976
1982.36767	0.53982
1980.43930	0.53989
1978.51092	0.53990
1976.58255	0.53979
1974.65418	0.53963
1972.72581	0.53958
1970.79743	0.53982
1968.86906	0.54041
1966.94069	0.54084
1965.01231	0.54067
1963.08394	0.54034
1961.15557	0.54013
1959.22719	0.53998
1957.29882	0.54009
1955.37045	0.54030
1953.44207	0.54037
1951.51370	0.54061
1949.58533	0.54106
1947.65695	0.54130
1945.72858	0.54145
1943.80021	0.54179
1941.87183	0.54172
1939.94346	0.54106
1938.01509	0.54052
1936.08671	0.54024
1934.15834	0.54000
1932.22997	0.53966
1930.30159	0.53919
1928.37322	0.53876
1926.44485	0.53873
1924.51647	0.53909
1922.58810	0.53912
1920.65973	0.53876
1918.73135	0.53864
1916.80298	0.53826
1914.87461	0.53725
1912.94624	0.53667
1911.01786	0.53693
1909.08949	0.53706
1907.16112	0.53644
1905.23274	0.53564
1903.30437	0.53520
1901.37600	0.53474
1899.44762	0.53396
1897.51925	0.53327
1895.59088	0.53280
1893.66250	0.53221
1891.73413	0.53159
1889.80576	0.53107
1887.87738	0.53040
1885.94901	0.52949
1884.02064	0.52828
1882.09226	0.52699
1880.16389	0.52604
1878.23552	0.52524
1876.30714	0.52438
1874.37877	0.52353
1872.45040	0.52301
1870.52202	0.52318
1868.59365	0.52312
1866.66528	0.52151
1864.73690	0.51918
1862.80853	0.51727
1860.88016	0.51569
1858.95179	0.51411
1857.02341	0.51253
1855.09504	0.51089
1853.16667	0.50925
1851.23829	0.50804
1849.30992	0.50749
1847.38155	0.50721
1845.45317	0.50654
1843.52480	0.50476
1841.59643	0.50234
1839.66805	0.50058
1837.73968	0.49926
1835.81131	0.49764
1833.88293	0.49610
1831.95456	0.49538
1830.02619	0.49492
1828.09781	0.49348
1826.16944	0.49129
1824.24107	0.48852
1822.31269	0.48545
1820.38432	0.48266
1818.45595	0.48012
1816.52757	0.47733
1814.59920	0.47419
1812.67083	0.47101
1810.74245	0.46717
1808.81408	0.46223
1806.88571	0.45695
1804.95733	0.45207
1803.02896	0.44756
1801.10059	0.44231
1799.17222	0.43559
1797.24384	0.42833
1795.31547	0.42157
1793.38710	0.41436
1791.45872	0.40499
1789.53035	0.39526
1787.60198	0.38702
1785.67360	0.37939
1783.74523	0.37170
1781.81686	0.36402
1779.88848	0.35618
1777.96011	0.34877
1776.03174	0.34244
1774.10336	0.33625
1772.17499	0.32817
1770.24662	0.31871
1768.31824	0.30944
1766.38987	0.29967
1764.46150	0.28989
1762.53312	0.27879
1760.60475	0.26526
1758.67638	0.25100
1756.74800	0.23466
1754.81963	0.21714
1752.89126	0.19959
1750.96288	0.17842
1749.03451	0.15357
1747.10614	0.13010
1745.17777	0.10919
1743.24939	0.08993
1741.32102	0.07196
1739.39265	0.05550
1737.46427	0.04318
1735.53590	0.03374
1733.60753	0.02416
1731.67915	0.01739
1729.75078	0.01320
1727.82241	0.00956
1725.89403	0.00682
1723.96566	0.00514
1722.03729	0.00402
1720.10891	0.00313
1718.18054	0.00211
1716.25217	0.00118
1714.32379	0.00090
1712.39542	0.00061
1710.46705	0.00051
1708.53867	0.00083
1706.61030	0.00100
1704.68193	0.00130
1702.75355	0.00153
1700.82518	0.00160
1698.89681	0.00161
1696.96843	0.00125
1695.04006	0.00092
1693.11169	0.00076
1691.18331	0.00096
1689.25494	0.00142
1687.32657	0.00191
1685.39820	0.00215
1683.46982	0.00143
1681.54145	0.00091
1679.61308	0.00117
1677.68470	0.00114
1675.75633	0.00093
1673.82796	0.00095
1671.89958	0.00103
1669.97121	0.00104
1668.04284	0.00074
1666.11446	0.00065
1664.18609	0.00095
1662.25772	0.00106
1660.32934	0.00090
1658.40097	0.00074
1656.47260	0.00101
1654.54422	0.00171
1652.61585	0.00174
1650.68748	0.00087
1648.75910	0.00086
1646.83073	0.00077
1644.90236	0.00062
1642.97398	0.00076
1641.04561	0.00086
1639.11724	0.00086
1637.18886	0.00069
1635.26049	0.00037
1633.33212	0.00033
1631.40375	0.00056
1629.47537	0.00094
1627.54700	0.00122
1625.61863	0.00139
1623.69025	0.00152
1621.76188	0.00135
1619.83351	0.00111
1617.90513	0.00111
1615.97676	0.00088
1614.04839	0.00046
1612.12001	0.00066
1610.19164	0.00090
1608.26327	0.00090
1606.33489	0.00048
1604.40652	0.00043
1602.47815	0.00048
1600.54977	0.00047
1598.62140	0.00048
1596.69303	0.00049
1594.76465	0.00056
1592.83628	0.00092
1590.90791	0.00094
1588.97953	0.00062
1587.05116	0.00063
1585.12279	0.00076
1583.19441	0.00097
1581.26604	0.00087
1579.33767	0.00062
1577.40929	0.00069
1575.48092	0.00078
1573.55255	0.00056
1571.62418	0.00032
1569.69580	0.00042
1567.76743	0.00061
1565.83906	0.00061
1563.91068	0.00049
1561.98231	0.00043
1560.05394	0.00098
1558.12556	0.00118
1556.19719	0.00052
1554.26882	0.00037
1552.34044	0.00051
1550.41207	0.00048
1548.48370	0.00037
1546.55532	0.00072
1544.62695	0.00097
1542.69858	0.00110
1540.77020	0.00131
1538.84183	0.00110
1536.91346	0.00100
1534.98508	0.00093
1533.05671	0.00057
1531.12834	0.00080
1529.19996	0.00066
1527.27159	0.00035
1525.34322	0.00076
1523.41484	0.00119
1521.48647	0.00131
1519.55810	0.00123
1517.62972	0.00111
1515.70135	0.00092
1513.77298	0.00090
1511.84461	0.00081
1509.91623	0.00104
1507.98786	0.00176
1506.05949	0.00204
1504.13111	0.00193
1502.20274	0.00201
1500.27437	0.00243
1498.34599	0.00301
1496.41762	0.00399
1494.48925	0.00545
1492.56087	0.00719
1490.63250	0.00895
1488.70413	0.01019
1486.77575	0.01139
1484.84738	0.01275
1482.91901	0.01369
1480.99063	0.01421
1479.06226	0.01439
1477.13389	0.01402
1475.20551	0.01317
1473.27714	0.01214
1471.34877	0.01104
1469.42039	0.01001
1467.49202	0.00902
1465.56365	0.00796
1463.63527	0.00695
1461.70690	0.00636
1459.77853	0.00611
1457.85016	0.00554
1455.92178	0.00433
1453.99341	0.00349
1452.06504	0.00312
1450.13666	0.00289
1448.20829	0.00274
1446.27992	0.00274
1444.35154	0.00287
1442.42317	0.00279
1440.49480	0.00227
1438.56642	0.00176
1436.63805	0.00184
1434.70968	0.00208
1432.78130	0.00203
1430.85293	0.00193
1428.92456	0.00228
1426.99618	0.00289
1425.06781	0.00329
1423.13944	0.00362
1421.21106	0.00363
1419.28269	0.00297
1417.35432	0.00241
1415.42594	0.00261
1413.49757	0.00318
1411.56920	0.00331
1409.64082	0.00283
1407.71245	0.00252
1405.78408	0.00271
1403.85570	0.00297
1401.92733	0.00310
1399.99896	0.00297
1398.07059	0.00256
1396.14221	0.00228
1394.21384	0.00248
1392.28547	0.00282
1390.35709	0.00277
1388.42872	0.00239
1386.50035	0.00199
1384.57197	0.00149
1382.64360	0.00095
1380.71523	0.00059
1378.78685	0.00104
1376.85848	0.00128
1374.93011	0.00077
1373.00173	0.00041
1371.07336	0.00087
1369.14499	0.00145
1367.21661	0.00263
1365.28824	0.00423
1363.35987	0.00569
1361.43149	0.00669
1359.50312	0.00734
1357.57475	0.00804
1355.64637	0.00881
1353.71800	0.00941
1351.78963	0.00969
1349.86125	0.00957
1347.93288	0.00931
1346.00451	0.00912
1344.07614	0.00885
1342.14776	0.00842
1340.21939	0.00807
1338.29102	0.00796
1336.36264	0.00795
1334.43427	0.00777
1332.50590	0.00719
1330.57752	0.00621
1328.64915	0.00547
1326.72078	0.00538
1324.79240	0.00557
1322.86403	0.00564
1320.93566	0.00556
1319.00728	0.00556
1317.07891	0.00571
1315.15054	0.00594
1313.22216	0.00612
1311.29379	0.00582
1309.36542	0.00520
1307.43704	0.00521
1305.50867	0.00586
1303.58030	0.00639
1301.65192	0.00647
1299.72355	0.00626
1297.79518	0.00643
1295.86680	0.00749
1293.93843	0.00859
1292.01006	0.00837
1290.08168	0.00722
1288.15331	0.00663
1286.22494	0.00711
1284.29657	0.00780
1282.36819	0.00799
1280.43982	0.00782
1278.51145	0.00794
1276.58307	0.00838
1274.65470	0.00871
1272.72633	0.00891
1270.79795	0.00883
1268.86958	0.00805
1266.94121	0.00687
1265.01283	0.00605
1263.08446	0.00603
1261.15609	0.00670
1259.22771	0.00747
1257.29934	0.00804
1255.37097	0.00837
1253.44259	0.00878
1251.51422	0.00936
1249.58585	0.00984
1247.65747	0.01008
1245.72910	0.01028
1243.80073	0.01037
1241.87235	0.01045
1239.94398	0.01067
1238.01561	0.01084
1236.08723	0.01104
1234.15886	0.01152
1232.23049	0.01254
1230.30212	0.01373
1228.37374	0.01457
1226.44537	0.01565
1224.51700	0.01768
1222.58862	0.01952
1220.66025	0.02024
1218.73188	0.02098
1216.80350	0.02233
1214.87513	0.02330
1212.94676	0.02315
1211.01838	0.02203
1209.09001	0.02037
1207.16164	0.01858
1205.23326	0.01766
1203.30489	0.01877
1201.37652	0.02152
1199.44814	0.02449
1197.51977	0.02769
1195.59140	0.03170
1193.66302	0.03602
1191.73465	0.03920
1189.80628	0.04035
1187.87790	0.04005
1185.94953	0.03907
1184.02116	0.03759
1182.09278	0.03575
1180.16441	0.03353
1178.23604	0.03096
1176.30766	0.02824
1174.37929	0.02496
1172.45092	0.02077
1170.52255	0.01652
1168.59417	0.01258
1166.66580	0.00864
1164.73743	0.00526
1162.80905	0.00326
1160.88068	0.00249
1158.95231	0.00233
1157.02393	0.00231
1155.09556	0.00262
1153.16719	0.00456
1151.23881	0.00763
1149.31044	0.01190
1147.38207	0.01699
1145.45369	0.02197
1143.52532	0.02593
1141.59695	0.02860
1139.66857	0.02986
1137.74020	0.02980
1135.81183	0.02844
1133.88345	0.02560
1131.95508	0.02190
1130.02671	0.01804
1128.09833	0.01394
1126.16996	0.00981
1124.24159	0.00681
1122.31321	0.00556
1120.38484	0.00528
1118.45647	0.00512
1116.52809	0.00431
1114.59972	0.00318
1112.67135	0.00345
1110.74298	0.00516
1108.81460	0.00727
1106.88623	0.00927
1104.95786	0.01088
1103.02948	0.01188
1101.10111	0.01261
1099.17274	0.01293
1097.24436	0.01218
1095.31599	0.01068
1093.38762	0.00940
1091.45924	0.00838
1089.53087	0.00691
1087.60250	0.00487
1085.67412	0.00274
1083.74575	0.00160
1081.81738	0.00177
1079.88900	0.00192
1077.96063	0.00154
1076.03226	0.00093
1074.10388	0.00119
1072.17551	0.00189
1070.24714	0.00176
1068.31876	0.00215
1066.39039	0.00225
1064.46202	0.00266
1062.53364	0.00356
1060.60527	0.00451
1058.67690	0.00520
1056.74853	0.00629
1054.82015	0.00836
1052.89178	0.01079
1050.96341	0.01198
1049.03503	0.01130
1047.10666	0.00973
1045.17829	0.00834
1043.24991	0.00714
1041.32154	0.00565
1039.39317	0.00404
1037.46479	0.00290
1035.53642	0.00244
1033.60805	0.00259
1031.67967	0.00248
1029.75130	0.00190
1027.82293	0.00207
1025.89455	0.00246
1023.96618	0.00258
1022.03781	0.00231
1020.10943	0.00288
1018.18106	0.00401
1016.25269	0.00471
1014.32431	0.00593
1012.39594	0.00850
1010.46757	0.01209
1008.53919	0.01648
1006.61082	0.02135
1004.68245	0.02692
1002.75407	0.03365
1000.82570	0.04111
998.89733	0.04787
996.96896	0.05319
995.04058	0.05821
993.11221	0.06394
991.18384	0.07013
989.25546	0.07626
987.32709	0.08128
985.39872	0.08394
983.47034	0.08420
981.54197	0.08259
979.61360	0.07944
977.68522	0.07618
975.75685	0.07554
973.82848	0.07944
971.90010	0.08752
969.97173	0.09819
968.04336	0.10988
966.11498	0.12044
964.18661	0.12667
962.25824	0.12502
960.32986	0.11331
958.40149	0.09436
956.47312	0.07722
954.54474	0.07041
952.61637	0.07505
950.68800	0.08716
948.75962	0.10247
946.83125	0.11754
944.90288	0.13082
942.97451	0.14252
941.04613	0.15241
939.11776	0.15967
937.18939	0.16443
935.26101	0.16784
933.33264	0.17029
931.40427	0.17114
929.47589	0.17051
927.54752	0.16889
925.61915	0.16634
923.69077	0.16312
921.76240	0.16011
919.83403	0.15868
917.90565	0.15929
915.97728	0.16099
914.04891	0.16223
912.12053	0.16156
910.19216	0.15835
908.26379	0.15270
906.33541	0.14512
904.40704	0.13623
902.47867	0.12703
900.55029	0.11899
898.62192	0.11327
896.69355	0.11013
894.76517	0.10884
892.83680	0.10912
890.90843	0.11085
888.98005	0.11352
887.05168	0.11687
885.12331	0.11983
883.19494	0.12099
881.26656	0.12080
879.33819	0.12021
877.40982	0.11979
875.48144	0.12014
873.55307	0.12086
871.62470	0.12116
869.69632	0.12113
867.76795	0.12077
865.83958	0.11991
863.91120	0.11862
861.98283	0.11667
860.05446	0.11467
858.12608	0.11383
856.19771	0.11352
854.26934	0.11120
852.34096	0.10679
850.41259	0.10355
848.48422	0.10251
846.55584	0.10190
844.62747	0.10085
842.69910	0.09954
840.77072	0.09814
838.84235	0.09633
836.91398	0.09355
834.98560	0.09033
833.05723	0.08771
831.12886	0.08521
829.20049	0.08250
827.27211	0.08063
825.34374	0.07941
823.41537	0.07790
821.48699	0.07615
819.55862	0.07441
817.63025	0.07296
815.70187	0.07245
813.77350	0.07279
811.84513	0.07243
809.91675	0.07071
807.98838	0.06862
806.06001	0.06660
804.13163	0.06398
802.20326	0.06021
800.27489	0.05581
798.34651	0.05192
796.41814	0.04865
794.48977	0.04537
792.56139	0.04254
790.63302	0.04090
788.70465	0.04068
786.77627	0.04136
784.84790	0.04166
782.91953	0.04131
780.99115	0.04054
779.06278	0.03932
777.13441	0.03794
775.20603	0.03654
773.27766	0.03535
771.34929	0.03408
769.42092	0.03227
767.49254	0.03174
765.56417	0.03342
763.63580	0.03483
761.70742	0.03404
759.77905	0.03154
757.85068	0.02788
755.92230	0.02414
753.99393	0.02170
752.06556	0.02041
750.13718	0.01947
748.20881	0.01934
746.28044	0.02068
744.35206	0.02262
742.42369	0.02426
740.49532	0.02560
738.56694	0.02616
736.63857	0.02566
734.71020	0.02514
732.78182	0.02544
730.85345	0.02589
728.92508	0.02575
726.99670	0.02528
725.06833	0.02467
723.13996	0.02330
721.21158	0.02072
719.28321	0.01832
717.35484	0.01750
715.42647	0.01736
713.49809	0.01686
711.56972	0.01617
709.64135	0.01619
707.71297	0.01685
705.78460	0.01666
703.85623	0.01537
701.92785	0.01420
699.99948	0.01392
698.07111	0.01434
696.14273	0.01558
694.21436	0.01728
692.28599	0.01889
690.35761	0.01971
688.42924	0.01972
686.50087	0.01958
684.57249	0.02034
682.64412	0.02205
680.71575	0.02307
678.78737	0.02305
676.85900	0.02411
674.93063	0.02646
673.00225	0.02774
671.07388	0.02858
669.14551	0.03014
667.21713	0.02886
665.28876	0.02639
663.36039	0.02589
661.43201	0.02625
659.50364	0.02638
657.57527	0.02565
655.64690	0.02358
653.71852	0.02068
651.79015	0.02028
649.86178	0.02357
647.93340	0.02512
646.00503	0.02179
644.07666	0.01864
642.14828	0.01810
640.21991	0.01762
638.29154	0.01578
636.36316	0.01374
634.43479	0.01299
632.50642	0.01378
630.57804	0.01626
628.64967	0.01905
626.72130	0.01796
624.79292	0.01382
622.86455	0.01097
620.93618	0.01080
619.00780	0.01373
617.07943	0.01741
615.15106	0.01975
613.22268	0.02014
611.29431	0.01820
609.36594	0.01481
607.43756	0.01396
605.50919	0.01640
603.58082	0.01717
601.65244	0.01546
599.72407	0.01279
