3997.51769	0.40371
3995.58931	0.40433
3993.66094	0.40445
3991.73257	0.40460
3989.80419	0.40499
3987.87582	0.40540
3985.94745	0.40562
3984.01907	0.40548
3982.09070	0.40555
3980.16233	0.40617
3978.23396	0.40667
3976.30558	0.40698
3974.37721	0.40749
3972.44884	0.40792
3970.52046	0.40797
3968.59209	0.40792
3966.66372	0.40808
3964.73534	0.40857
3962.80697	0.40965
3960.87860	0.41101
3958.95022	0.41168
3957.02185	0.41202
3955.09348	0.41297
3953.16510	0.41400
3951.23673	0.41440
3949.30836	0.41419
3947.37998	0.41367
3945.45161	0.41359
3943.52324	0.41406
3941.59486	0.41449
3939.66649	0.41482
3937.73812	0.41525
3935.80974	0.41555
3933.88137	0.41565
3931.95300	0.41599
3930.02462	0.41662
3928.09625	0.41710
3926.16788	0.41756
3924.23950	0.41806
3922.31113	0.41831
3920.38276	0.41877
3918.45439	0.41954
3916.52601	0.41982
3914.59764	0.41956
3912.66927	0.41941
3910.74089	0.41982
3908.81252	0.42079
3906.88415	0.42249
3904.95577	0.42520
3903.02740	0.42781
3901.09903	0.42882
3899.17065	0.42830
3897.24228	0.42744
3895.31391	0.42750
3893.38553	0.42880
3891.45716	0.43045
3889.52879	0.43113
3887.60041	0.43154
3885.67204	0.43239
3883.74367	0.43322
3881.81529	0.43424
3879.88692	0.43459
3877.95855	0.43387
3876.03017	0.43419
3874.10180	0.43560
3872.17343	0.43701
3870.24505	0.43809
3868.31668	0.43826
3866.38831	0.43887
3864.45994	0.44055
3862.53156	0.44057
3860.60319	0.43836
3858.67482	0.43660
3856.74644	0.43699
3854.81807	0.44043
3852.88970	0.44430
3850.96132	0.44301
3849.03295	0.44040
3847.10458	0.43941
3845.17620	0.44002
3843.24783	0.44134
3841.31946	0.44266
3839.39108	0.44408
3837.46271	0.44506
3835.53434	0.44430
3833.60596	0.44243
3831.67759	0.44092
3829.74922	0.44072
3827.82084	0.44177
3825.89247	0.44277
3823.96410	0.44354
3822.03572	0.44535
3820.10735	0.44671
3818.17898	0.44622
3816.25060	0.44512
3814.32223	0.44336
3812.39386	0.44202
3810.46548	0.44180
3808.53711	0.44244
3806.60874	0.44324
3804.68037	0.44364
3802.75199	0.44418
3800.82362	0.44402
3798.89525	0.44268
3796.96687	0.44135
3795.03850	0.44003
3793.11013	0.43906
3791.18175	0.43875
3789.25338	0.43863
3787.32501	0.43858
3785.39663	0.43867
3783.46826	0.43841
3781.53989	0.43808
3779.61151	0.43837
3777.68314	0.43809
3775.75477	0.43697
3773.82639	0.43661
3771.89802	0.43757
3769.96965	0.43891
3768.04127	0.43926
3766.11290	0.43913
3764.18453	0.43930
3762.25615	0.43970
3760.32778	0.44026
3758.39941	0.44041
3756.47103	0.44034
3754.54266	0.44085
3752.61429	0.44208
3750.68591	0.44287
3748.75754	0.44215
3746.82917	0.44184
3744.90080	0.44137
3742.97242	0.43855
3741.04405	0.43608
3739.11568	0.43633
3737.18730	0.43869
3735.25893	0.44008
3733.33056	0.43754
3731.40218	0.43339
3729.47381	0.43084
3727.54544	0.42961
3725.61706	0.42814
3723.68869	0.42611
3721.76032	0.42445
3719.83194	0.42299
3717.90357	0.42110
3715.97520	0.41962
3714.04682	0.41957
3712.11845	0.42007
3710.19008	0.41749
3708.26170	0.41212
3706.33333	0.40768
3704.40496	0.40504
3702.47658	0.40259
3700.54821	0.39823
3698.61984	0.39329
3696.69146	0.38955
3694.76309	0.38699
3692.83472	0.38542
3690.90635	0.38360
3688.97797	0.37881
3687.04960	0.37151
3685.12123	0.36481
3683.19285	0.35887
3681.26448	0.35331
3679.33611	0.34845
3677.40773	0.34362
3675.47936	0.33511
3673.55099	0.32399
3671.62261	0.31508
3669.69424	0.30448
3667.76587	0.29210
3665.83749	0.28175
3663.90912	0.27204
3661.98075	0.26195
3660.05237	0.25239
3658.12400	0.24358
3656.19563	0.23364
3654.26725	0.22391
3652.33888	0.21657
3650.41051	0.20852
3648.48213	0.19670
3646.55376	0.18498
3644.62539	0.17591
3642.69701	0.16779
3640.76864	0.15958
3638.84027	0.15133
3636.91189	0.14337
3634.98352	0.13584
3633.05515	0.12890
3631.12678	0.12277
3629.19840	0.11571
3627.27003	0.10754
3625.34166	0.10121
3623.41328	0.09604
3621.48491	0.09090
3619.55654	0.08516
3617.62816	0.07950
3615.69979	0.07524
3613.77142	0.07177
3611.84304	0.06817
3609.91467	0.06455
3607.98630	0.06102
3606.05792	0.05743
3604.12955	0.05376
3602.20118	0.04989
3600.27280	0.04637
3598.34443	0.04378
3596.41606	0.04152
3594.48768	0.03896
3592.55931	0.03639
3590.63094	0.03428
3588.70256	0.03250
3586.77419	0.03088
3584.84582	0.02909
3582.91744	0.02682
3580.98907	0.02424
3579.06070	0.02217
3577.13233	0.02075
3575.20395	0.01922
3573.27558	0.01763
3571.34721	0.01643
3569.41883	0.01559
3567.49046	0.01475
3565.56209	0.01358
3563.63371	0.01229
3561.70534	0.01112
3559.77697	0.01028
3557.84859	0.00975
3555.92022	0.00914
3553.99185	0.00842
3552.06347	0.00788
3550.13510	0.00757
3548.20673	0.00705
3546.27835	0.00629
3544.34998	0.00573
3542.42161	0.00551
3540.49323	0.00525
3538.56486	0.00467
3536.63649	0.00402
3534.70811	0.00349
3532.77974	0.00350
3530.85137	0.00362
3528.92299	0.00332
3526.99462	0.00276
3525.06625	0.00237
3523.13787	0.00232
3521.20950	0.00262
3519.28113	0.00282
3517.35276	0.00239
3515.42438	0.00171
3513.49601	0.00126
3511.56764	0.00105
3509.63926	0.00132
3507.71089	0.00148
3505.78252	0.00121
3503.85414	0.00103
3501.92577	0.00132
3499.99740	0.00121
3498.06902	0.00134
3496.14065	0.00122
3494.21228	0.00140
3492.28390	0.00144
3490.35553	0.00125
3488.42716	0.00134
3486.49878	0.00117
3484.57041	0.00051
3482.64204	0.00033
3480.71366	0.00050
3478.78529	0.00073
3476.85692	0.00086
3474.92854	0.00087
3473.00017	0.00068
3471.07180	0.00075
3469.14342	0.00104
3467.21505	0.00093
3465.28668	0.00081
3463.35831	0.00111
3461.42993	0.00129
3459.50156	0.00126
3457.57319	0.00105
3455.64481	0.00080
3453.71644	0.00069
3451.78807	0.00068
3449.85969	0.00069
3447.93132	0.00081
3446.00295	0.00083
3444.07457	0.00109
3442.14620	0.00099
3440.21783	0.00122
3438.28945	0.00145
3436.36108	0.00093
3434.43271	0.00059
3432.50433	0.00100
3430.57596	0.00144
3428.64759	0.00076
3426.71921	0.00063
3424.79084	0.00051
3422.86247	0.00035
3420.93409	0.00100
3419.00572	0.00115
3417.07735	0.00085
3415.14897	0.00064
3413.22060	0.00067
3411.29223	0.00068
3409.36385	0.00102
3407.43548	0.00138
3405.50711	0.00120
3403.57874	0.00057
3401.65036	0.00020
3399.72199	0.00047
3397.79362	0.00067
3395.86524	0.00048
3393.93687	0.00076
3392.00850	0.00088
3390.08012	0.00069
3388.15175	0.00085
3386.22338	0.00052
3384.29500	0.00039
3382.36663	0.00066
3380.43826	0.00100
3378.50988	0.00103
3376.58151	0.00090
3374.65314	0.00089
3372.72476	0.00093
3370.79639	0.00088
3368.86802	0.00050
3366.93964	0.00017
3365.01127	0.00038
3363.08290	0.00089
3361.15452	0.00084
3359.22615	0.00112
3357.29778	0.00175
3355.36940	0.00202
3353.44103	0.00141
3351.51266	0.00085
3349.58428	0.00067
3347.65591	0.00118
3345.72754	0.00109
3343.79917	0.00095
3341.87079	0.00093
3339.94242	0.00077
3338.01405	0.00087
3336.08567	0.00058
3334.15730	0.00044
3332.22893	0.00049
3330.30055	0.00074
3328.37218	0.00089
3326.44381	0.00073
3324.51543	0.00061
3322.58706	0.00075
3320.65869	0.00068
3318.73031	0.00069
3316.80194	0.00055
3314.87357	0.00078
3312.94519	0.00087
3311.01682	0.00061
3309.08845	0.00059
3307.16007	0.00112
3305.23170	0.00086
3303.30333	0.00053
3301.37495	0.00031
3299.44658	0.00060
3297.51821	0.00094
3295.58983	0.00069
3293.66146	0.00054
3291.73309	0.00085
3289.80472	0.00151
3287.87634	0.00150
3285.94797	0.00078
3284.01960	0.00067
3282.09122	0.00084
3280.16285	0.00078
3278.23448	0.00064
3276.30610	0.00050
3274.37773	0.00118
3272.44936	0.00139
3270.52098	0.00117
3268.59261	0.00083
3266.66424	0.00057
3264.73586	0.00072
3262.80749	0.00088
3260.87912	0.00083
3258.95074	0.00095
3257.02237	0.00129
3255.09400	0.00119
3253.16562	0.00059
3251.23725	0.00051
3249.30888	0.00063
3247.38050	0.00056
3245.45213	0.00062
3243.52376	0.00056
3241.59538	0.00055
3239.66701	0.00101
3237.73864	0.00097
3235.81026	0.00098
3233.88189	0.00084
3231.95352	0.00037
3230.02515	0.00061
3228.09677	0.00078
3226.16840	0.00046
3224.24003	0.00092
3222.31165	0.00126
3220.38328	0.00089
3218.45491	0.00022
3216.52653	0.00048
3214.59816	0.00097
3212.66979	0.00079
3210.74141	0.00041
3208.81304	0.00038
3206.88467	0.00074
3204.95629	0.00076
3203.02792	0.00055
3201.09955	0.00036
3199.17117	0.00055
3197.24280	0.00080
3195.31443	0.00087
3193.38605	0.00098
3191.45768	0.00104
3189.52931	0.00083
3187.60093	0.00051
3185.67256	0.00060
3183.74419	0.00062
3181.81581	0.00067
3179.88744	0.00028
3177.95907	0.00060
3176.03070	0.00125
3174.10232	0.00127
3172.17395	0.00085
3170.24558	0.00058
3168.31720	0.00081
3166.38883	0.00123
3164.46046	0.00125
3162.53208	0.00089
3160.60371	0.00060
3158.67534	0.00074
3156.74696	0.00122
3154.81859	0.00144
3152.89022	0.00119
3150.96184	0.00092
3149.03347	0.00095
3147.10510	0.00109
3145.17672	0.00112
3143.24835	0.00061
3141.31998	0.00028
3139.39160	0.00066
3137.46323	0.00061
3135.53486	0.00065
3133.60648	0.00111
3131.67811	0.00135
3129.74974	0.00163
3127.82136	0.00198
3125.89299	0.00165
3123.96462	0.00063
3122.03624	0.00035
3120.10787	0.00055
3118.17950	0.00088
3116.25113	0.00087
3114.32275	0.00066
3112.39438	0.00067
3110.46601	0.00055
3108.53763	0.00057
3106.60926	0.00071
3104.68089	0.00088
3102.75251	0.00085
3100.82414	0.00064
3098.89577	0.00064
3096.96739	0.00063
3095.03902	0.00056
3093.11065	0.00054
3091.18227	0.00055
3089.25390	0.00090
3087.32553	0.00111
3085.39715	0.00136
3083.46878	0.00167
3081.54041	0.00172
3079.61203	0.00114
3077.68366	0.00033
3075.75529	0.00047
3073.82691	0.00061
3071.89854	0.00102
3069.97017	0.00148
3068.04179	0.00157
3066.11342	0.00185
3064.18505	0.00218
3062.25668	0.00197
3060.32830	0.00143
3058.39993	0.00110
3056.47156	0.00111
3054.54318	0.00122
3052.61481	0.00141
3050.68644	0.00164
3048.75806	0.00164
3046.82969	0.00154
3044.90132	0.00160
3042.97294	0.00181
3041.04457	0.00209
3039.11620	0.00243
3037.18782	0.00275
3035.25945	0.00276
3033.33108	0.00233
3031.40270	0.00206
3029.47433	0.00237
3027.54596	0.00285
3025.61758	0.00289
3023.68921	0.00258
3021.76084	0.00237
3019.83246	0.00245
3017.90409	0.00271
3015.97572	0.00300
3014.04734	0.00322
3012.11897	0.00323
3010.19060	0.00289
3008.26222	0.00259
3006.33385	0.00288
3004.40548	0.00360
3002.47711	0.00421
3000.54873	0.00453
2998.62036	0.00432
2996.69199	0.00353
2994.76361	0.00302
2992.83524	0.00324
2990.90687	0.00376
2988.97849	0.00389
2987.05012	0.00368
2985.12175	0.00354
2983.19337	0.00330
2981.26500	0.00277
2979.33663	0.00253
2977.40825	0.00301
2975.47988	0.00320
2973.55151	0.00264
2971.62313	0.00219
2969.69476	0.00165
2967.76639	0.00122
2965.83801	0.00110
2963.90964	0.00137
2961.98127	0.00199
2960.05289	0.00165
2958.12452	0.00156
2956.19615	0.00145
2954.26777	0.00106
2952.33940	0.00174
2950.41103	0.00225
2948.48266	0.00240
2946.55428	0.00223
2944.62591	0.00177
2942.69754	0.00173
2940.76916	0.00230
2938.84079	0.00264
2936.91242	0.00246
2934.98404	0.00216
2933.05567	0.00226
2931.12730	0.00256
2929.19892	0.00253
2927.27055	0.00208
2925.34218	0.00211
2923.41380	0.00253
2921.48543	0.00281
2919.55706	0.00278
2917.62868	0.00266
2915.70031	0.00292
2913.77194	0.00347
2911.84356	0.00377
2909.91519	0.00386
2907.98682	0.00396
2906.05844	0.00429
2904.13007	0.00468
2902.20170	0.00474
2900.27332	0.00487
2898.34495	0.00487
2896.41658	0.00456
2894.48820	0.00436
2892.55983	0.00437
2890.63146	0.00440
2888.70309	0.00465
2886.77471	0.00495
2884.84634	0.00486
2882.91797	0.00464
2880.98959	0.00454
2879.06122	0.00464
2877.13285	0.00506
2875.20447	0.00563
2873.27610	0.00588
2871.34773	0.00586
2869.41935	0.00607
2867.49098	0.00642
2865.56261	0.00666
2863.63423	0.00721
2861.70586	0.00792
2859.77749	0.00808
2857.84911	0.00785
2855.92074	0.00772
2853.99237	0.00788
2852.06399	0.00841
2850.13562	0.00922
2848.20725	0.01010
2846.27887	0.01104
2844.35050	0.01202
2842.42213	0.01267
2840.49375	0.01297
2838.56538	0.01348
2836.63701	0.01416
2834.70863	0.01450
2832.78026	0.01442
2830.85189	0.01412
2828.92352	0.01392
2826.99514	0.01435
2825.06677	0.01519
2823.13840	0.01586
2821.21002	0.01633
2819.28165	0.01661
2817.35328	0.01672
2815.42490	0.01693
2813.49653	0.01708
2811.56816	0.01715
2809.63978	0.01742
2807.71141	0.01786
2805.78304	0.01824
2803.85466	0.01854
2801.92629	0.01891
2799.99792	0.01936
2798.06954	0.01981
2796.14117	0.02042
2794.21280	0.02109
2792.28442	0.02156
2790.35605	0.02195
2788.42768	0.02248
2786.49930	0.02298
2784.57093	0.02321
2782.64256	0.02333
2780.71418	0.02374
2778.78581	0.02452
2776.85744	0.02533
2774.92907	0.02592
2773.00069	0.02636
2771.07232	0.02672
2769.14395	0.02706
2767.21557	0.02732
2765.28720	0.02771
2763.35883	0.02838
2761.43045	0.02892
2759.50208	0.02927
2757.57371	0.02977
2755.64533	0.03017
2753.71696	0.03051
2751.78859	0.03105
2749.86021	0.03167
2747.93184	0.03234
2746.00347	0.03327
2744.07509	0.03427
2742.14672	0.03486
2740.21835	0.03514
2738.28997	0.03562
2736.36160	0.03636
2734.43323	0.03700
2732.50485	0.03750
2730.57648	0.03807
2728.64811	0.03875
2726.71973	0.03950
2724.79136	0.04020
2722.86299	0.04060
2720.93461	0.04103
2719.00624	0.04186
2717.07787	0.04281
2715.14950	0.04341
2713.22112	0.04368
2711.29275	0.04420
2709.36438	0.04498
2707.43600	0.04557
2705.50763	0.04616
2703.57926	0.04684
2701.65088	0.04734
2699.72251	0.04771
2697.79414	0.04804
2695.86576	0.04842
2693.93739	0.04887
2692.00902	0.04926
2690.08064	0.04971
2688.15227	0.05039
2686.22390	0.05109
2684.29552	0.05160
2682.36715	0.05213
2680.43878	0.05283
2678.51040	0.05354
2676.58203	0.05411
2674.65366	0.05460
2672.72528	0.05511
2670.79691	0.05556
2668.86854	0.05605
2666.94016	0.05671
2665.01179	0.05733
2663.08342	0.05787
2661.15505	0.05846
2659.22667	0.05914
2657.29830	0.05981
2655.36993	0.06037
2653.44155	0.06098
2651.51318	0.06155
2649.58481	0.06203
2647.65643	0.06267
2645.72806	0.06343
2643.79969	0.06412
2641.87131	0.06468
2639.94294	0.06513
2638.01457	0.06581
2636.08619	0.06671
2634.15782	0.06743
2632.22945	0.06789
2630.30107	0.06831
2628.37270	0.06891
2626.44433	0.06960
2624.51595	0.07040
2622.58758	0.07143
2620.65921	0.07259
2618.73083	0.07361
2616.80246	0.07433
2614.87409	0.07500
2612.94571	0.07577
2611.01734	0.07665
2609.08897	0.07782
2607.16059	0.07919
2605.23222	0.08025
2603.30385	0.08081
2601.37548	0.08126
2599.44710	0.08218
2597.51873	0.08354
2595.59036	0.08470
2593.66198	0.08547
2591.73361	0.08615
2589.80524	0.08706
2587.87686	0.08801
2585.94849	0.08874
2584.02012	0.08957
2582.09174	0.09061
2580.16337	0.09144
2578.23500	0.09213
2576.30662	0.09315
2574.37825	0.09438
2572.44988	0.09553
2570.52150	0.09665
2568.59313	0.09774
2566.66476	0.09887
2564.73638	0.10007
2562.80801	0.10117
2560.87964	0.10224
2558.95126	0.10346
2557.02289	0.10456
2555.09452	0.10539
2553.16614	0.10625
2551.23777	0.10729
2549.30940	0.10833
2547.38103	0.10933
2545.45265	0.11041
2543.52428	0.11155
2541.59591	0.11246
2539.66753	0.11307
2537.73916	0.11366
2535.81079	0.11455
2533.88241	0.11555
2531.95404	0.11647
2530.02567	0.11738
2528.09729	0.11812
2526.16892	0.11884
2524.24055	0.11982
2522.31217	0.12065
2520.38380	0.12119
2518.45543	0.12194
2516.52705	0.12292
2514.59868	0.12383
2512.67031	0.12475
2510.74193	0.12567
2508.81356	0.12655
2506.88519	0.12763
2504.95681	0.12891
2503.02844	0.13007
2501.10007	0.13090
2499.17169	0.13171
2497.24332	0.13285
2495.31495	0.13410
2493.38657	0.13521
2491.45820	0.13617
2489.52983	0.13692
2487.60146	0.13757
2485.67308	0.13846
2483.74471	0.13971
2481.81634	0.14097
2479.88796	0.14199
2477.95959	0.14290
2476.03122	0.14377
2474.10284	0.14469
2472.17447	0.14578
2470.24610	0.14695
2468.31772	0.14816
2466.38935	0.14948
2464.46098	0.15076
2462.53260	0.15192
2460.60423	0.15302
2458.67586	0.15416
2456.74748	0.15550
2454.81911	0.15691
2452.89074	0.15801
2450.96236	0.15882
2449.03399	0.15975
2447.10562	0.16106
2445.17724	0.16248
2443.24887	0.16365
2441.32050	0.16467
2439.39212	0.16576
2437.46375	0.16694
2435.53538	0.16821
2433.60700	0.16938
2431.67863	0.17040
2429.75026	0.17152
2427.82189	0.17288
2425.89351	0.17404
2423.96514	0.17482
2422.03677	0.17570
2420.10839	0.17690
2418.18002	0.17817
2416.25165	0.17936
2414.32327	0.18047
2412.39490	0.18155
2410.46653	0.18265
2408.53815	0.18385
2406.60978	0.18500
2404.68141	0.18596
2402.75303	0.18707
2400.82466	0.18850
2398.89629	0.19004
2396.96791	0.19144
2395.03954	0.19270
2393.11117	0.19379
2391.18279	0.19472
2389.25442	0.19572
2387.32605	0.19701
2385.39767	0.19863
2383.46930	0.20054
2381.54093	0.20267
2379.61255	0.20495
2377.68418	0.20723
2375.75581	0.20948
2373.82744	0.21177
2371.89906	0.21419
2369.97069	0.21693
2368.04232	0.21975
2366.11394	0.22240
2364.18557	0.22528
2362.25720	0.22793
2360.32882	0.22942
2358.40045	0.23004
2356.47208	0.23019
2354.54370	0.22967
2352.61533	0.22817
2350.68696	0.22636
2348.75858	0.22550
2346.83021	0.22646
2344.90184	0.22952
2342.97346	0.23277
2341.04509	0.23378
2339.11672	0.23328
2337.18834	0.23322
2335.25997	0.23406
2333.33160	0.23492
2331.40322	0.23503
2329.47485	0.23476
2327.54648	0.23491
2325.61810	0.23498
2323.68973	0.23456
2321.76136	0.23433
2319.83298	0.23442
2317.90461	0.23451
2315.97624	0.23480
2314.04787	0.23526
2312.11949	0.23568
2310.19112	0.23619
2308.26275	0.23699
2306.33437	0.23806
2304.40600	0.23905
2302.47763	0.23974
2300.54925	0.24032
2298.62088	0.24102
2296.69251	0.24179
2294.76413	0.24250
2292.83576	0.24318
2290.90739	0.24388
2288.97901	0.24432
2287.05064	0.24445
2285.12227	0.24482
2283.19389	0.24559
2281.26552	0.24642
2279.33715	0.24719
2277.40877	0.24787
2275.48040	0.24845
2273.55203	0.24900
2271.62365	0.24944
2269.69528	0.24971
2267.76691	0.25004
2265.83853	0.25063
2263.91016	0.25127
2261.98179	0.25163
2260.05342	0.25185
2258.12504	0.25231
2256.19667	0.25299
2254.26830	0.25370
2252.33992	0.25439
2250.41155	0.25492
2248.48318	0.25518
2246.55480	0.25544
2244.62643	0.25591
2242.69806	0.25644
2240.76968	0.25679
2238.84131	0.25691
2236.91294	0.25712
2234.98456	0.25768
2233.05619	0.25823
2231.12782	0.25829
2229.19944	0.25801
2227.27107	0.25798
2225.34270	0.25832
2223.41432	0.25849
2221.48595	0.25812
2219.55758	0.25761
2217.62920	0.25741
2215.70083	0.25751
2213.77246	0.25773
2211.84408	0.25796
2209.91571	0.25814
2207.98734	0.25820
2206.05896	0.25815
2204.13059	0.25817
2202.20222	0.25837
2200.27385	0.25859
2198.34547	0.25864
2196.41710	0.25859
2194.48873	0.25861
2192.56035	0.25888
2190.63198	0.25944
2188.70361	0.25983
2186.77523	0.25990
2184.84686	0.26000
2182.91849	0.26028
2180.99011	0.26066
2179.06174	0.26097
2177.13337	0.26109
2175.20499	0.26116
2173.27662	0.26122
2171.34825	0.26117
2169.41987	0.26114
2167.49150	0.26115
2165.56313	0.26109
2163.63475	0.26115
2161.70638	0.26127
2159.77801	0.26118
2157.84963	0.26103
2155.92126	0.26118
2153.99289	0.26151
2152.06451	0.26178
2150.13614	0.26180
2148.20777	0.26150
2146.27940	0.26116
2144.35102	0.26106
2142.42265	0.26103
2140.49428	0.26101
2138.56590	0.26103
2136.63753	0.26098
2134.70916	0.26096
2132.78078	0.26112
2130.85241	0.26142
2128.92404	0.26181
2126.99566	0.26212
2125.06729	0.26222
2123.13892	0.26243
2121.21054	0.26287
2119.28217	0.26320
2117.35380	0.26343
2115.42542	0.26386
2113.49705	0.26444
2111.56868	0.26499
2109.64030	0.26557
2107.71193	0.26610
2105.78356	0.26638
2103.85518	0.26648
2101.92681	0.26669
2099.99844	0.26705
2098.07006	0.26738
2096.14169	0.26761
2094.21332	0.26780
2092.28494	0.26801
2090.35657	0.26825
2088.42820	0.26846
2086.49983	0.26865
2084.57145	0.26901
2082.64308	0.26939
2080.71471	0.26941
2078.78633	0.26919
2076.85796	0.26913
2074.92959	0.26929
2073.00121	0.26947
2071.07284	0.26960
2069.14447	0.26986
2067.21609	0.27021
2065.28772	0.27031
2063.35935	0.27031
2061.43097	0.27051
2059.50260	0.27081
2057.57423	0.27118
2055.64585	0.27176
2053.71748	0.27237
2051.78911	0.27259
2049.86073	0.27256
2047.93236	0.27276
2046.00399	0.27333
2044.07561	0.27417
2042.14724	0.27503
2040.21887	0.27563
2038.29049	0.27609
2036.36212	0.27665
2034.43375	0.27726
2032.50538	0.27784
2030.57700	0.27835
2028.64863	0.27870
2026.72026	0.27902
2024.79188	0.27945
2022.86351	0.27987
2020.93514	0.28012
2019.00676	0.28020
2017.07839	0.28024
2015.15002	0.28034
2013.22164	0.28040
2011.29327	0.28038
2009.36490	0.28052
2007.43652	0.28076
2005.50815	0.28086
2003.57978	0.28091
2001.65140	0.28096
1999.72303	0.28103
1997.79466	0.28125
1995.86628	0.28157
1993.93791	0.28195
1992.00954	0.28235
1990.08116	0.28248
1988.15279	0.28246
1986.22442	0.28252
1984.29604	0.28268
1982.36767	0.28296
1980.43930	0.28338
1978.51092	0.28401
1976.58255	0.28478
1974.65418	0.28540
1972.72581	0.28588
1970.79743	0.28644
1968.86906	0.28709
1966.94069	0.28768
1965.01231	0.28802
1963.08394	0.28826
1961.15557	0.28865
1959.22719	0.28903
1957.29882	0.28927
1955.37045	0.28952
1953.44207	0.28975
1951.51370	0.28994
1949.58533	0.29011
1947.65695	0.29018
1945.72858	0.29020
1943.80021	0.29031
1941.87183	0.29016
1939.94346	0.28965
1938.01509	0.28937
1936.08671	0.28941
1934.15834	0.28946
1932.22997	0.28945
1930.30159	0.28940
1928.37322	0.28937
1926.44485	0.28960
1924.51647	0.29008
1922.58810	0.29034
1920.65973	0.29024
1918.73135	0.29028
1916.80298	0.29039
1914.87461	0.29027
1912.94624	0.29016
1911.01786	0.29046
1909.08949	0.29106
1907.16112	0.29146
1905.23274	0.29164
1903.30437	0.29179
1901.37600	0.29178
1899.44762	0.29169
1897.51925	0.29179
1895.59088	0.29189
1893.66250	0.29171
1891.73413	0.29149
1889.80576	0.29138
1887.87738	0.29093
1885.94901	0.29016
1884.02064	0.28957
1882.09226	0.28927
1880.16389	0.28909
1878.23552	0.28886
1876.30714	0.28862
1874.37877	0.28847
1872.45040	0.28853
1870.52202	0.28888
1868.59365	0.28900
1866.66528	0.28819
1864.73690	0.28701
1862.80853	0.28624
1860.88016	0.28574
1858.95179	0.28516
1857.02341	0.28454
1855.09504	0.28401
1853.16667	0.28351
1851.23829	0.28311
1849.30992	0.28300
1847.38155	0.28321
1845.45317	0.28353
1843.52480	0.28323
1841.59643	0.28213
1839.66805	0.28126
1837.73968	0.28077
1835.81131	0.28017
1833.88293	0.27954
1831.95456	0.27928
1830.02619	0.27892
1828.09781	0.27774
1826.16944	0.27620
1824.24107	0.27449
1822.31269	0.27262
1820.38432	0.27088
1818.45595	0.26922
1816.52757	0.26734
1814.59920	0.26528
1812.67083	0.26324
1810.74245	0.26085
1808.81408	0.25773
1806.88571	0.25428
1804.95733	0.25122
1803.02896	0.24874
1801.10059	0.24589
1799.17222	0.24185
1797.24384	0.23739
1795.31547	0.23339
1793.38710	0.22904
1791.45872	0.22317
1789.53035	0.21707
1787.60198	0.21177
1785.67360	0.20657
1783.74523	0.20123
1781.81686	0.19602
1779.88848	0.19085
1777.96011	0.18610
1776.03174	0.18215
1774.10336	0.17825
1772.17499	0.17329
1770.24662	0.16781
1768.31824	0.16265
1766.38987	0.15747
1764.46150	0.15261
1762.53312	0.14711
1760.60475	0.14004
1758.67638	0.13243
1756.74800	0.12384
1754.81963	0.11473
1752.89126	0.10570
1750.96288	0.09478
1749.03451	0.08177
1747.10614	0.06931
1745.17777	0.05809
1743.24939	0.04783
1741.32102	0.03840
1739.39265	0.02973
1737.46427	0.02317
1735.53590	0.01811
1733.60753	0.01291
1731.67915	0.00900
1729.75078	0.00671
1727.82241	0.00512
1725.89403	0.00399
1723.96566	0.00320
1722.03729	0.00287
1720.10891	0.00309
1718.18054	0.00313
1716.25217	0.00224
1714.32379	0.00144
1712.39542	0.00118
1710.46705	0.00111
1708.53867	0.00089
1706.61030	0.00032
1704.68193	0.00053
1702.75355	0.00106
1700.82518	0.00161
1698.89681	0.00155
1696.96843	0.00120
1695.04006	0.00148
1693.11169	0.00093
1691.18331	0.00029
1689.25494	0.00066
1687.32657	0.00108
1685.39820	0.00120
1683.46982	0.00085
1681.54145	0.00074
1679.61308	0.00075
1677.68470	0.00055
1675.75633	0.00059
1673.82796	0.00042
1671.89958	0.00063
1669.97121	0.00074
1668.04284	0.00079
1666.11446	0.00059
1664.18609	0.00073
1662.25772	0.00076
1660.32934	0.00056
1658.40097	0.00039
1656.47260	0.00053
1654.54422	0.00094
1652.61585	0.00108
1650.68748	0.00074
1648.75910	0.00031
1646.83073	0.00043
1644.90236	0.00089
1642.97398	0.00072
1641.04561	0.00051
1639.11724	0.00057
1637.18886	0.00078
1635.26049	0.00067
1633.33212	0.00061
1631.40375	0.00052
1629.47537	0.00046
1627.54700	0.00022
1625.61863	0.00008
1623.69025	0.00028
1621.76188	0.00046
1619.83351	0.00062
1617.90513	0.00070
1615.97676	0.00051
1614.04839	0.00045
1612.12001	0.00071
1610.19164	0.00065
1608.26327	0.00064
1606.33489	0.00078
1604.40652	0.00075
1602.47815	0.00039
1600.54977	0.00041
1598.62140	0.00062
1596.69303	0.00058
1594.76465	0.00036
1592.83628	0.00065
1590.90791	0.00057
1588.97953	0.00041
1587.05116	0.00025
1585.12279	0.00024
1583.19441	0.00037
1581.26604	0.00034
1579.33767	0.00036
1577.40929	0.00067
1575.48092	0.00070
1573.55255	0.00062
1571.62418	0.00076
1569.69580	0.00100
1567.76743	0.00086
1565.83906	0.00055
1563.91068	0.00053
1561.98231	0.00080
1560.05394	0.00059
1558.12556	0.00058
1556.19719	0.00058
1554.26882	0.00065
1552.34044	0.00047
1550.41207	0.00061
1548.48370	0.00066
1546.55532	0.00069
1544.62695	0.00105
1542.69858	0.00156
1540.77020	0.00123
1538.84183	0.00045
1536.91346	0.00038
1534.98508	0.00023
1533.05671	0.00042
1531.12834	0.00074
1529.19996	0.00103
1527.27159	0.00102
1525.34322	0.00080
1523.41484	0.00062
1521.48647	0.00070
1519.55810	0.00070
1517.62972	0.00076
1515.70135	0.00068
1513.77298	0.00084
1511.84461	0.00057
1509.91623	0.00064
1507.98786	0.00090
1506.05949	0.00058
1504.13111	0.00046
1502.20274	0.00074
1500.27437	0.00135
1498.34599	0.00175
1496.41762	0.00150
1494.48925	0.00142
1492.56087	0.00186
1490.63250	0.00259
1488.70413	0.00331
1486.77575	0.00379
1484.84738	0.00403
1482.91901	0.00409
1480.99063	0.00408
1479.06226	0.00403
1477.13389	0.00402
1475.20551	0.00410
1473.27714	0.00376
1471.34877	0.00302
1469.42039	0.00244
1467.49202	0.00213
1465.56365	0.00206
1463.63527	0.00211
1461.70690	0.00179
1459.77853	0.00132
1457.85016	0.00081
1455.92178	0.00090
1453.99341	0.00099
1452.06504	0.00094
1450.13666	0.00107
1448.20829	0.00143
1446.27992	0.00124
1444.35154	0.00100
1442.42317	0.00097
1440.49480	0.00110
1438.56642	0.00147
1436.63805	0.00133
1434.70968	0.00075
1432.78130	0.00059
1430.85293	0.00062
1428.92456	0.00055
1426.99618	0.00076
1425.06781	0.00125
1423.13944	0.00111
1421.21106	0.00059
1419.28269	0.00065
1417.35432	0.00085
1415.42594	0.00080
1413.49757	0.00089
1411.56920	0.00110
1409.64082	0.00123
1407.71245	0.00104
1405.78408	0.00067
1403.85570	0.00063
1401.92733	0.00097
1399.99896	0.00133
1398.07059	0.00143
1396.14221	0.00109
1394.21384	0.00036
1392.28547	0.00059
1390.35709	0.00079
1388.42872	0.00055
1386.50035	0.00042
1384.57197	0.00075
1382.64360	0.00070
1380.71523	0.00047
1378.78685	0.00084
1376.85848	0.00104
1374.93011	0.00094
1373.00173	0.00090
1371.07336	0.00079
1369.14499	0.00094
1367.21661	0.00144
1365.28824	0.00181
1363.35987	0.00184
1361.43149	0.00192
1359.50312	0.00228
1357.57475	0.00273
1355.64637	0.00307
1353.71800	0.00325
1351.78963	0.00325
1349.86125	0.00300
1347.93288	0.00269
1346.00451	0.00262
1344.07614	0.00265
1342.14776	0.00251
1340.21939	0.00210
1338.29102	0.00178
1336.36264	0.00193
1334.43427	0.00205
1332.50590	0.00179
1330.57752	0.00168
1328.64915	0.00166
1326.72078	0.00144
1324.79240	0.00146
1322.86403	0.00175
1320.93566	0.00191
1319.00728	0.00181
1317.07891	0.00170
1315.15054	0.00170
1313.22216	0.00186
1311.29379	0.00202
1309.36542	0.00200
1307.43704	0.00204
1305.50867	0.00257
1303.58030	0.00286
1301.65192	0.00263
1299.72355	0.00230
1297.79518	0.00199
1295.86680	0.00187
1293.93843	0.00195
1292.01006	0.00214
1290.08168	0.00236
1288.15331	0.00248
1286.22494	0.00257
1284.29657	0.00256
1282.36819	0.00238
1280.43982	0.00239
1278.51145	0.00281
1276.58307	0.00302
1274.65470	0.00270
1272.72633	0.00236
1270.79795	0.00209
1268.86958	0.00193
1266.94121	0.00180
1265.01283	0.00150
1263.08446	0.00142
1261.15609	0.00177
1259.22771	0.00187
1257.29934	0.00149
1255.37097	0.00125
1253.44259	0.00182
1251.51422	0.00265
1249.58585	0.00299
1247.65747	0.00260
1245.72910	0.00235
1243.80073	0.00248
1241.87235	0.00232
1239.94398	0.00193
1238.01561	0.00221
1236.08723	0.00291
1234.15886	0.00328
1232.23049	0.00286
1230.30212	0.00233
1228.37374	0.00255
1226.44537	0.00337
1224.51700	0.00436
1222.58862	0.00481
1220.66025	0.00485
1218.73188	0.00537
1216.80350	0.00626
1214.87513	0.00679
1212.94676	0.00647
1211.01838	0.00557
1209.09001	0.00441
1207.16164	0.00383
1205.23326	0.00427
1203.30489	0.00495
1201.37652	0.00600
1199.44814	0.00744
1197.51977	0.00864
1195.59140	0.00945
1193.66302	0.01017
1191.73465	0.01054
1189.80628	0.01069
1187.87790	0.01110
1185.94953	0.01162
1184.02116	0.01177
1182.09278	0.01160
1180.16441	0.01127
1178.23604	0.01026
1176.30766	0.00843
1174.37929	0.00656
1172.45092	0.00523
1170.52255	0.00436
1168.59417	0.00362
1166.66580	0.00299
1164.73743	0.00291
1162.80905	0.00293
1160.88068	0.00254
1158.95231	0.00201
1157.02393	0.00145
1155.09556	0.00153
1153.16719	0.00283
1151.23881	0.00418
1149.31044	0.00521
1147.38207	0.00621
1145.45369	0.00719
1143.52532	0.00842
1141.59695	0.00881
1139.66857	0.00787
1137.74020	0.00692
1135.81183	0.00647
1133.88345	0.00644
1131.95508	0.00645
1130.02671	0.00611
1128.09833	0.00501
1126.16996	0.00355
1124.24159	0.00287
1122.31321	0.00255
1120.38484	0.00209
1118.45647	0.00179
1116.52809	0.00148
1114.59972	0.00167
1112.67135	0.00232
1110.74298	0.00229
1108.81460	0.00208
1106.88623	0.00246
1104.95786	0.00281
1103.02948	0.00279
1101.10111	0.00263
1099.17274	0.00223
1097.24436	0.00206
1095.31599	0.00199
1093.38762	0.00194
1091.45924	0.00206
1089.53087	0.00211
1087.60250	0.00190
1085.67412	0.00152
1083.74575	0.00079
1081.81738	0.00154
1079.88900	0.00206
1077.96063	0.00174
1076.03226	0.00123
1074.10388	0.00133
1072.17551	0.00149
1070.24714	0.00143
1068.31876	0.00119
1066.39039	0.00160
1064.46202	0.00195
1062.53364	0.00151
1060.60527	0.00105
1058.67690	0.00154
1056.74853	0.00302
1054.82015	0.00376
1052.89178	0.00359
1050.96341	0.00380
1049.03503	0.00395
1047.10666	0.00334
1045.17829	0.00283
1043.24991	0.00260
1041.32154	0.00191
1039.39317	0.00105
1037.46479	0.00119
1035.53642	0.00150
1033.60805	0.00196
1031.67967	0.00176
1029.75130	0.00111
1027.82293	0.00072
1025.89455	0.00129
1023.96618	0.00119
1022.03781	0.00077
1020.10943	0.00109
1018.18106	0.00119
1016.25269	0.00092
1014.32431	0.00144
1012.39594	0.00286
1010.46757	0.00468
1008.53919	0.00650
1006.61082	0.00822
1004.68245	0.01029
1002.75407	0.01305
1000.82570	0.01609
998.89733	0.01889
996.96896	0.02122
995.04058	0.02336
993.11221	0.02583
991.18384	0.02840
989.25546	0.03079
987.32709	0.03282
985.39872	0.03394
983.47034	0.03384
981.54197	0.03306
979.61360	0.03223
977.68522	0.03176
975.75685	0.03227
973.82848	0.03438
971.90010	0.03779
969.97173	0.04184
968.04336	0.04603
966.11498	0.04966
964.18661	0.05153
962.25824	0.05037
960.32986	0.04564
958.40149	0.03840
956.47312	0.03213
954.54474	0.03017
952.61637	0.03213
950.68800	0.03611
948.75962	0.04141
946.83125	0.04717
944.90288	0.05208
942.97451	0.05596
941.04613	0.05963
939.11776	0.06358
937.18939	0.06712
935.26101	0.06945
933.33264	0.07050
931.40427	0.07062
929.47589	0.07069
927.54752	0.07082
925.61915	0.06998
923.69077	0.06838
921.76240	0.06735
919.83403	0.06694
917.90565	0.06663
915.97728	0.06656
914.04891	0.06642
912.12053	0.06554
910.19216	0.06351
908.26379	0.06041
906.33541	0.05697
904.40704	0.05369
902.47867	0.05078
900.55029	0.04868
898.62192	0.04756
896.69355	0.04672
894.76517	0.04604
892.83680	0.04656
890.90843	0.04825
888.98005	0.04976
887.05168	0.05029
885.12331	0.05024
883.19494	0.05068
881.26656	0.05170
879.33819	0.05220
877.40982	0.05179
875.48144	0.05125
873.55307	0.05079
871.62470	0.05021
869.69632	0.05034
867.76795	0.05129
865.83958	0.05154
863.91120	0.05088
861.98283	0.05080
860.05446	0.05062
858.12608	0.04870
856.19771	0.04644
854.26934	0.04545
852.34096	0.04480
850.41259	0.04404
848.48422	0.04360
846.55584	0.04290
844.62747	0.04163
842.69910	0.04071
840.77072	0.04025
838.84235	0.03913
836.91398	0.03760
834.98560	0.03687
833.05723	0.03649
831.12886	0.03555
829.20049	0.03426
827.27211	0.03292
825.34374	0.03154
823.41537	0.03064
821.48699	0.03035
819.55862	0.03028
817.63025	0.03036
815.70187	0.03005
813.77350	0.02873
811.84513	0.02714
809.91675	0.02618
807.98838	0.02554
806.06001	0.02470
804.13163	0.02375
802.20326	0.02307
800.27489	0.02213
798.34651	0.02018
796.41814	0.01792
794.48977	0.01665
792.56139	0.01653
790.63302	0.01652
788.70465	0.01612
786.77627	0.01571
784.84790	0.01504
782.91953	0.01445
780.99115	0.01469
779.06278	0.01502
777.13441	0.01474
775.20603	0.01460
773.27766	0.01447
771.34929	0.01326
769.42092	0.01223
767.49254	0.01258
765.56417	0.01272
763.63580	0.01157
761.70742	0.01037
759.77905	0.00972
757.85068	0.00974
755.92230	0.00975
753.99393	0.00899
752.06556	0.00803
750.13718	0.00802
748.20881	0.00857
746.28044	0.00860
744.35206	0.00799
742.42369	0.00811
740.49532	0.00890
738.56694	0.00933
736.63857	0.00937
734.71020	0.00967
732.78182	0.01001
730.85345	0.00982
728.92508	0.00927
726.99670	0.00869
725.06833	0.00735
723.13996	0.00501
721.21158	0.00383
719.28321	0.00434
717.35484	0.00530
715.42647	0.00617
713.49809	0.00651
711.56972	0.00635
709.64135	0.00484
707.71297	0.00304
705.78460	0.00249
703.85623	0.00289
701.92785	0.00343
699.99948	0.00365
698.07111	0.00432
696.14273	0.00457
694.21436	0.00494
692.28599	0.00590
690.35761	0.00487
688.42924	0.00411
686.50087	0.00497
684.57249	0.00645
682.64412	0.00783
680.71575	0.00758
678.78737	0.00687
676.85900	0.00722
674.93063	0.00801
673.00225	0.00833
671.07388	0.00965
669.14551	0.01140
667.21713	0.01007
665.28876	0.00606
663.36039	0.00378
661.43201	0.00461
659.50364	0.00747
657.57527	0.00977
655.64690	0.00942
653.71852	0.01000
651.79015	0.01048
649.86178	0.01019
647.93340	0.01046
646.00503	0.00867
644.07666	0.00705
642.14828	0.00688
640.21991	0.00749
638.29154	0.00568
636.36316	0.00343
634.43479	0.00428
632.50642	0.00521
630.57804	0.00756
628.64967	0.00822
626.72130	0.00608
624.79292	0.00362
622.86455	0.00492
620.93618	0.00713
619.00780	0.00783
617.07943	0.00703
615.15106	0.00504
613.22268	0.00662
611.29431	0.01063
609.36594	0.00881
607.43756	0.00416
605.50919	0.00569
603.58082	0.00567
601.65244	0.00656
599.72407	0.00888
