3997.51769	0.34267
3995.58931	0.34271
3993.66094	0.34252
3991.73257	0.34268
3989.80419	0.34323
3987.87582	0.34364
3985.94745	0.34362
3984.01907	0.34337
3982.09070	0.34318
3980.16233	0.34345
3978.23396	0.34424
3976.30558	0.34495
3974.37721	0.34499
3972.44884	0.34448
3970.52046	0.34399
3968.59209	0.34396
3966.66372	0.34441
3964.73534	0.34536
3962.80697	0.34655
3960.87860	0.34727
3958.95022	0.34765
3957.02185	0.34836
3955.09348	0.34923
3953.16510	0.34972
3951.23673	0.34987
3949.30836	0.34997
3947.37998	0.34965
3945.45161	0.34875
3943.52324	0.34819
3941.59486	0.34843
3939.66649	0.34894
3937.73812	0.34938
3935.80974	0.34983
3933.88137	0.35034
3931.95300	0.35061
3930.02462	0.35015
3928.09625	0.34976
3926.16788	0.35057
3924.23950	0.35172
3922.31113	0.35195
3920.38276	0.35206
3918.45439	0.35280
3916.52601	0.35350
3914.59764	0.35342
3912.66927	0.35284
3910.74089	0.35259
3908.81252	0.35339
3906.88415	0.35536
3904.95577	0.35766
3903.02740	0.35863
3901.09903	0.35800
3899.17065	0.35682
3897.24228	0.35601
3895.31391	0.35652
3893.38553	0.35836
3891.45716	0.35989
3889.52879	0.35993
3887.60041	0.35989
3885.67204	0.36017
3883.74367	0.36051
3881.81529	0.36143
3879.88692	0.36201
3877.95855	0.36161
3876.03017	0.36144
3874.10180	0.36206
3872.17343	0.36388
3870.24505	0.36600
3868.31668	0.36623
3866.38831	0.36574
3864.45994	0.36599
3862.53156	0.36605
3860.60319	0.36565
3858.67482	0.36559
3856.74644	0.36659
3854.81807	0.36917
3852.88970	0.37071
3850.96132	0.36863
3849.03295	0.36684
3847.10458	0.36637
3845.17620	0.36665
3843.24783	0.36764
3841.31946	0.36913
3839.39108	0.36969
3837.46271	0.36847
3835.53434	0.36718
3833.60596	0.36709
3831.67759	0.36728
3829.74922	0.36721
3827.82084	0.36740
3825.89247	0.36778
3823.96410	0.36846
3822.03572	0.36972
3820.10735	0.36994
3818.17898	0.36894
3816.25060	0.36801
3814.32223	0.36718
3812.39386	0.36696
3810.46548	0.36738
3808.53711	0.36800
3806.60874	0.36825
3804.68037	0.36862
3802.75199	0.37001
3800.82362	0.37050
3798.89525	0.36876
3796.96687	0.36708
3795.03850	0.36622
3793.11013	0.36586
3791.18175	0.36568
3789.25338	0.36536
3787.32501	0.36510
3785.39663	0.36543
3783.46826	0.36608
3781.53989	0.36651
3779.61151	0.36656
3777.68314	0.36602
3775.75477	0.36540
3773.82639	0.36543
3771.89802	0.36634
3769.96965	0.36722
3768.04127	0.36704
3766.11290	0.36656
3764.18453	0.36610
3762.25615	0.36581
3760.32778	0.36616
3758.39941	0.36648
3756.47103	0.36666
3754.54266	0.36755
3752.61429	0.36887
3750.68591	0.36921
3748.75754	0.36858
3746.82917	0.36879
3744.90080	0.36888
3742.97242	0.36698
3741.04405	0.36517
3739.11568	0.36541
3737.18730	0.36731
3735.25893	0.36818
3733.33056	0.36595
3731.40218	0.36342
3729.47381	0.36271
3727.54544	0.36295
3725.61706	0.36269
3723.68869	0.36161
3721.76032	0.36027
3719.83194	0.35837
3717.90357	0.35616
3715.97520	0.35521
3714.04682	0.35604
3712.11845	0.35725
3710.19008	0.35614
3708.26170	0.35296
3706.33333	0.35040
3704.40496	0.34933
3702.47658	0.34867
3700.54821	0.34694
3698.61984	0.34460
3696.69146	0.34226
3694.76309	0.34006
3692.83472	0.33891
3690.90635	0.33837
3688.97797	0.33520
3687.04960	0.32929
3685.12123	0.32447
3683.19285	0.32080
3681.26448	0.31737
3679.33611	0.31453
3677.40773	0.31223
3675.47936	0.30758
3673.55099	0.30011
3671.62261	0.29358
3669.69424	0.28632
3667.76587	0.27834
3665.83749	0.27153
3663.90912	0.26494
3661.98075	0.25831
3660.05237	0.25213
3658.12400	0.24623
3656.19563	0.23922
3654.26725	0.23216
3652.33888	0.22681
3650.41051	0.22109
3648.48213	0.21197
3646.55376	0.20137
3644.62539	0.19274
3642.69701	0.18568
3640.76864	0.17917
3638.84027	0.17295
3636.91189	0.16686
3634.98352	0.16057
3633.05515	0.15426
3631.12678	0.14880
3629.19840	0.14303
3627.27003	0.13610
3625.34166	0.13033
3623.41328	0.12539
3621.48491	0.12020
3619.55654	0.11416
3617.62816	0.10842
3615.69979	0.10413
3613.77142	0.09971
3611.84304	0.09470
3609.91467	0.09001
3607.98630	0.08549
3606.05792	0.08134
3604.12955	0.07806
3602.20118	0.07505
3600.27280	0.07169
3598.34443	0.06811
3596.41606	0.06472
3594.48768	0.06130
3592.55931	0.05785
3590.63094	0.05503
3588.70256	0.05226
3586.77419	0.04916
3584.84582	0.04656
3582.91744	0.04414
3580.98907	0.04133
3579.06070	0.03856
3577.13233	0.03653
3575.20395	0.03502
3573.27558	0.03339
3571.34721	0.03152
3569.41883	0.02981
3567.49046	0.02822
3565.56209	0.02656
3563.63371	0.02495
3561.70534	0.02322
3559.77697	0.02172
3557.84859	0.02061
3555.92022	0.01936
3553.99185	0.01784
3552.06347	0.01646
3550.13510	0.01544
3548.20673	0.01458
3546.27835	0.01375
3544.34998	0.01285
3542.42161	0.01197
3540.49323	0.01111
3538.56486	0.01010
3536.63649	0.00925
3534.70811	0.00870
3532.77974	0.00826
3530.85137	0.00767
3528.92299	0.00698
3526.99462	0.00655
3525.06625	0.00616
3523.13787	0.00551
3521.20950	0.00468
3519.28113	0.00406
3517.35276	0.00401
3515.42438	0.00424
3513.49601	0.00395
3511.56764	0.00307
3509.63926	0.00221
3507.71089	0.00153
3505.78252	0.00088
3503.85414	0.00055
3501.92577	0.00050
3499.99740	0.00067
3498.06902	0.00069
3496.14065	0.00083
3494.21228	0.00103
3492.28390	0.00095
3490.35553	0.00096
3488.42716	0.00071
3486.49878	0.00071
3484.57041	0.00075
3482.64204	0.00047
3480.71366	0.00038
3478.78529	0.00038
3476.85692	0.00074
3474.92854	0.00106
3473.00017	0.00112
3471.07180	0.00097
3469.14342	0.00049
3467.21505	0.00040
3465.28668	0.00117
3463.35831	0.00153
3461.42993	0.00138
3459.50156	0.00125
3457.57319	0.00092
3455.64481	0.00075
3453.71644	0.00075
3451.78807	0.00091
3449.85969	0.00117
3447.93132	0.00123
3446.00295	0.00099
3444.07457	0.00084
3442.14620	0.00072
3440.21783	0.00081
3438.28945	0.00107
3436.36108	0.00142
3434.43271	0.00132
3432.50433	0.00119
3430.57596	0.00087
3428.64759	0.00065
3426.71921	0.00070
3424.79084	0.00087
3422.86247	0.00108
3420.93409	0.00101
3419.00572	0.00076
3417.07735	0.00036
3415.14897	0.00037
3413.22060	0.00080
3411.29223	0.00066
3409.36385	0.00068
3407.43548	0.00063
3405.50711	0.00043
3403.57874	0.00066
3401.65036	0.00095
3399.72199	0.00106
3397.79362	0.00095
3395.86524	0.00113
3393.93687	0.00154
3392.00850	0.00142
3390.08012	0.00101
3388.15175	0.00081
3386.22338	0.00067
3384.29500	0.00046
3382.36663	0.00067
3380.43826	0.00075
3378.50988	0.00066
3376.58151	0.00049
3374.65314	0.00106
3372.72476	0.00159
3370.79639	0.00166
3368.86802	0.00196
3366.93964	0.00198
3365.01127	0.00120
3363.08290	0.00087
3361.15452	0.00117
3359.22615	0.00077
3357.29778	0.00083
3355.36940	0.00090
3353.44103	0.00059
3351.51266	0.00028
3349.58428	0.00057
3347.65591	0.00068
3345.72754	0.00049
3343.79917	0.00086
3341.87079	0.00099
3339.94242	0.00101
3338.01405	0.00097
3336.08567	0.00069
3334.15730	0.00067
3332.22893	0.00058
3330.30055	0.00064
3328.37218	0.00116
3326.44381	0.00133
3324.51543	0.00128
3322.58706	0.00112
3320.65869	0.00075
3318.73031	0.00069
3316.80194	0.00098
3314.87357	0.00068
3312.94519	0.00109
3311.01682	0.00154
3309.08845	0.00128
3307.16007	0.00065
3305.23170	0.00024
3303.30333	0.00035
3301.37495	0.00056
3299.44658	0.00073
3297.51821	0.00067
3295.58983	0.00075
3293.66146	0.00079
3291.73309	0.00055
3289.80472	0.00019
3287.87634	0.00076
3285.94797	0.00090
3284.01960	0.00082
3282.09122	0.00138
3280.16285	0.00161
3278.23448	0.00118
3276.30610	0.00092
3274.37773	0.00103
3272.44936	0.00114
3270.52098	0.00119
3268.59261	0.00095
3266.66424	0.00073
3264.73586	0.00058
3262.80749	0.00045
3260.87912	0.00090
3258.95074	0.00108
3257.02237	0.00099
3255.09400	0.00061
3253.16562	0.00089
3251.23725	0.00115
3249.30888	0.00127
3247.38050	0.00123
3245.45213	0.00106
3243.52376	0.00090
3241.59538	0.00104
3239.66701	0.00120
3237.73864	0.00100
3235.81026	0.00072
3233.88189	0.00071
3231.95352	0.00056
3230.02515	0.00064
3228.09677	0.00074
3226.16840	0.00074
3224.24003	0.00041
3222.31165	0.00044
3220.38328	0.00055
3218.45491	0.00054
3216.52653	0.00053
3214.59816	0.00030
3212.66979	0.00086
3210.74141	0.00111
3208.81304	0.00086
3206.88467	0.00093
3204.95629	0.00088
3203.02792	0.00075
3201.09955	0.00049
3199.17117	0.00067
3197.24280	0.00071
3195.31443	0.00098
3193.38605	0.00121
3191.45768	0.00100
3189.52931	0.00069
3187.60093	0.00092
3185.67256	0.00066
3183.74419	0.00056
3181.81581	0.00062
3179.88744	0.00060
3177.95907	0.00059
3176.03070	0.00061
3174.10232	0.00079
3172.17395	0.00071
3170.24558	0.00077
3168.31720	0.00064
3166.38883	0.00068
3164.46046	0.00102
3162.53208	0.00102
3160.60371	0.00071
3158.67534	0.00050
3156.74696	0.00056
3154.81859	0.00062
3152.89022	0.00082
3150.96184	0.00100
3149.03347	0.00105
3147.10510	0.00103
3145.17672	0.00118
3143.24835	0.00158
3141.31998	0.00169
3139.39160	0.00127
3137.46323	0.00083
3135.53486	0.00069
3133.60648	0.00076
3131.67811	0.00095
3129.74974	0.00125
3127.82136	0.00133
3125.89299	0.00100
3123.96462	0.00075
3122.03624	0.00084
3120.10787	0.00112
3118.17950	0.00139
3116.25113	0.00131
3114.32275	0.00085
3112.39438	0.00061
3110.46601	0.00057
3108.53763	0.00052
3106.60926	0.00058
3104.68089	0.00074
3102.75251	0.00097
3100.82414	0.00115
3098.89577	0.00123
3096.96739	0.00101
3095.03902	0.00058
3093.11065	0.00083
3091.18227	0.00045
3089.25390	0.00045
3087.32553	0.00069
3085.39715	0.00113
3083.46878	0.00134
3081.54041	0.00120
3079.61203	0.00126
3077.68366	0.00119
3075.75529	0.00105
3073.82691	0.00078
3071.89854	0.00117
3069.97017	0.00182
3068.04179	0.00237
3066.11342	0.00211
3064.18505	0.00161
3062.25668	0.00163
3060.32830	0.00191
3058.39993	0.00214
3056.47156	0.00225
3054.54318	0.00232
3052.61481	0.00245
3050.68644	0.00244
3048.75806	0.00225
3046.82969	0.00255
3044.90132	0.00324
3042.97294	0.00337
3041.04457	0.00302
3039.11620	0.00289
3037.18782	0.00303
3035.25945	0.00298
3033.33108	0.00287
3031.40270	0.00302
3029.47433	0.00340
3027.54596	0.00381
3025.61758	0.00392
3023.68921	0.00378
3021.76084	0.00377
3019.83246	0.00389
3017.90409	0.00402
3015.97572	0.00419
3014.04734	0.00468
3012.11897	0.00502
3010.19060	0.00488
3008.26222	0.00474
3006.33385	0.00483
3004.40548	0.00503
3002.47711	0.00530
3000.54873	0.00548
2998.62036	0.00526
2996.69199	0.00467
2994.76361	0.00424
2992.83524	0.00423
2990.90687	0.00429
2988.97849	0.00406
2987.05012	0.00378
2985.12175	0.00369
2983.19337	0.00366
2981.26500	0.00349
2979.33663	0.00347
2977.40825	0.00389
2975.47988	0.00442
2973.55151	0.00404
2971.62313	0.00282
2969.69476	0.00209
2967.76639	0.00270
2965.83801	0.00303
2963.90964	0.00261
2961.98127	0.00241
2960.05289	0.00278
2958.12452	0.00314
2956.19615	0.00320
2954.26777	0.00321
2952.33940	0.00324
2950.41103	0.00306
2948.48266	0.00258
2946.55428	0.00227
2944.62591	0.00253
2942.69754	0.00255
2940.76916	0.00246
2938.84079	0.00228
2936.91242	0.00208
2934.98404	0.00214
2933.05567	0.00171
2931.12730	0.00167
2929.19892	0.00201
2927.27055	0.00203
2925.34218	0.00142
2923.41380	0.00135
2921.48543	0.00177
2919.55706	0.00241
2917.62868	0.00319
2915.70031	0.00407
2913.77194	0.00448
2911.84356	0.00456
2909.91519	0.00467
2907.98682	0.00462
2906.05844	0.00450
2904.13007	0.00457
2902.20170	0.00496
2900.27332	0.00533
2898.34495	0.00532
2896.41658	0.00516
2894.48820	0.00516
2892.55983	0.00535
2890.63146	0.00551
2888.70309	0.00549
2886.77471	0.00547
2884.84634	0.00559
2882.91797	0.00572
2880.98959	0.00573
2879.06122	0.00559
2877.13285	0.00546
2875.20447	0.00566
2873.27610	0.00627
2871.34773	0.00680
2869.41935	0.00704
2867.49098	0.00739
2865.56261	0.00788
2863.63423	0.00833
2861.70586	0.00880
2859.77749	0.00929
2857.84911	0.00986
2855.92074	0.01033
2853.99237	0.01056
2852.06399	0.01074
2850.13562	0.01106
2848.20725	0.01191
2846.27887	0.01314
2844.35050	0.01404
2842.42213	0.01451
2840.49375	0.01499
2838.56538	0.01564
2836.63701	0.01618
2834.70863	0.01654
2832.78026	0.01686
2830.85189	0.01718
2828.92352	0.01749
2826.99514	0.01792
2825.06677	0.01848
2823.13840	0.01893
2821.21002	0.01899
2819.28165	0.01853
2817.35328	0.01810
2815.42490	0.01843
2813.49653	0.01930
2811.56816	0.01996
2809.63978	0.02014
2807.71141	0.02027
2805.78304	0.02064
2803.85466	0.02100
2801.92629	0.02119
2799.99792	0.02133
2798.06954	0.02156
2796.14117	0.02190
2794.21280	0.02240
2792.28442	0.02295
2790.35605	0.02346
2788.42768	0.02395
2786.49930	0.02432
2784.57093	0.02465
2782.64256	0.02518
2780.71418	0.02589
2778.78581	0.02651
2776.85744	0.02697
2774.92907	0.02712
2773.00069	0.02698
2771.07232	0.02711
2769.14395	0.02780
2767.21557	0.02855
2765.28720	0.02913
2763.35883	0.02963
2761.43045	0.03001
2759.50208	0.03034
2757.57371	0.03076
2755.64533	0.03119
2753.71696	0.03162
2751.78859	0.03218
2749.86021	0.03271
2747.93184	0.03311
2746.00347	0.03361
2744.07509	0.03431
2742.14672	0.03506
2740.21835	0.03579
2738.28997	0.03646
2736.36160	0.03696
2734.43323	0.03745
2732.50485	0.03807
2730.57648	0.03882
2728.64811	0.03948
2726.71973	0.03991
2724.79136	0.04038
2722.86299	0.04096
2720.93461	0.04158
2719.00624	0.04235
2717.07787	0.04329
2715.14950	0.04415
2713.22112	0.04477
2711.29275	0.04522
2709.36438	0.04573
2707.43600	0.04626
2705.50763	0.04667
2703.57926	0.04697
2701.65088	0.04726
2699.72251	0.04760
2697.79414	0.04795
2695.86576	0.04820
2693.93739	0.04834
2692.00902	0.04852
2690.08064	0.04886
2688.15227	0.04937
2686.22390	0.05002
2684.29552	0.05058
2682.36715	0.05091
2680.43878	0.05143
2678.51040	0.05222
2676.58203	0.05275
2674.65366	0.05324
2672.72528	0.05415
2670.79691	0.05510
2668.86854	0.05563
2666.94016	0.05591
2665.01179	0.05631
2663.08342	0.05718
2661.15505	0.05820
2659.22667	0.05890
2657.29830	0.05942
2655.36993	0.05983
2653.44155	0.06014
2651.51318	0.06065
2649.58481	0.06152
2647.65643	0.06238
2645.72806	0.06296
2643.79969	0.06344
2641.87131	0.06394
2639.94294	0.06444
2638.01457	0.06503
2636.08619	0.06575
2634.15782	0.06657
2632.22945	0.06751
2630.30107	0.06836
2628.37270	0.06901
2626.44433	0.06967
2624.51595	0.07030
2622.58758	0.07082
2620.65921	0.07153
2618.73083	0.07260
2616.80246	0.07372
2614.87409	0.07448
2612.94571	0.07502
2611.01734	0.07570
2609.08897	0.07645
2607.16059	0.07713
2605.23222	0.07789
2603.30385	0.07893
2601.37548	0.08018
2599.44710	0.08135
2597.51873	0.08225
2595.59036	0.08310
2593.66198	0.08414
2591.73361	0.08524
2589.80524	0.08607
2587.87686	0.08660
2585.94849	0.08706
2584.02012	0.08765
2582.09174	0.08850
2580.16337	0.08969
2578.23500	0.09100
2576.30662	0.09211
2574.37825	0.09296
2572.44988	0.09373
2570.52150	0.09447
2568.59313	0.09516
2566.66476	0.09599
2564.73638	0.09709
2562.80801	0.09824
2560.87964	0.09941
2558.95126	0.10046
2557.02289	0.10121
2555.09452	0.10207
2553.16614	0.10313
2551.23777	0.10424
2549.30940	0.10550
2547.38103	0.10669
2545.45265	0.10736
2543.52428	0.10784
2541.59591	0.10860
2539.66753	0.10944
2537.73916	0.11015
2535.81079	0.11086
2533.88241	0.11159
2531.95404	0.11224
2530.02567	0.11295
2528.09729	0.11377
2526.16892	0.11448
2524.24055	0.11519
2522.31217	0.11610
2520.38380	0.11714
2518.45543	0.11814
2516.52705	0.11915
2514.59868	0.12012
2512.67031	0.12091
2510.74193	0.12162
2508.81356	0.12244
2506.88519	0.12327
2504.95681	0.12394
2503.02844	0.12459
2501.10007	0.12534
2499.17169	0.12623
2497.24332	0.12732
2495.31495	0.12841
2493.38657	0.12915
2491.45820	0.12956
2489.52983	0.13020
2487.60146	0.13126
2485.67308	0.13229
2483.74471	0.13306
2481.81634	0.13384
2479.88796	0.13467
2477.95959	0.13546
2476.03122	0.13639
2474.10284	0.13739
2472.17447	0.13815
2470.24610	0.13904
2468.31772	0.14038
2466.38935	0.14168
2464.46098	0.14253
2462.53260	0.14339
2460.60423	0.14474
2458.67586	0.14631
2456.74748	0.14764
2454.81911	0.14866
2452.89074	0.14949
2450.96236	0.15030
2449.03399	0.15129
2447.10562	0.15245
2445.17724	0.15373
2443.24887	0.15517
2441.32050	0.15665
2439.39212	0.15789
2437.46375	0.15882
2435.53538	0.15969
2433.60700	0.16073
2431.67863	0.16194
2429.75026	0.16313
2427.82189	0.16420
2425.89351	0.16530
2423.96514	0.16644
2422.03677	0.16744
2420.10839	0.16825
2418.18002	0.16906
2416.25165	0.17006
2414.32327	0.17112
2412.39490	0.17199
2410.46653	0.17282
2408.53815	0.17393
2406.60978	0.17512
2404.68141	0.17616
2402.75303	0.17734
2400.82466	0.17889
2398.89629	0.18035
2396.96791	0.18148
2395.03954	0.18268
2393.11117	0.18399
2391.18279	0.18501
2389.25442	0.18584
2387.32605	0.18693
2385.39767	0.18838
2383.46930	0.19004
2381.54093	0.19201
2379.61255	0.19412
2377.68418	0.19599
2375.75581	0.19790
2373.82744	0.20023
2371.89906	0.20286
2369.97069	0.20562
2368.04232	0.20851
2366.11394	0.21156
2364.18557	0.21441
2362.25720	0.21626
2360.32882	0.21718
2358.40045	0.21809
2356.47208	0.21900
2354.54370	0.21900
2352.61533	0.21773
2350.68696	0.21631
2348.75858	0.21605
2346.83021	0.21725
2344.90184	0.21969
2342.97346	0.22266
2341.04509	0.22480
2339.11672	0.22532
2337.18834	0.22470
2335.25997	0.22404
2333.33160	0.22422
2331.40322	0.22518
2329.47485	0.22585
2327.54648	0.22561
2325.61810	0.22532
2323.68973	0.22560
2321.76136	0.22593
2319.83298	0.22595
2317.90461	0.22598
2315.97624	0.22624
2314.04787	0.22670
2312.11949	0.22731
2310.19112	0.22788
2308.26275	0.22835
2306.33437	0.22896
2304.40600	0.22988
2302.47763	0.23091
2300.54925	0.23180
2298.62088	0.23263
2296.69251	0.23331
2294.76413	0.23383
2292.83576	0.23468
2290.90739	0.23580
2288.97901	0.23657
2287.05064	0.23698
2285.12227	0.23744
2283.19389	0.23809
2281.26552	0.23888
2279.33715	0.23971
2277.40877	0.24044
2275.48040	0.24098
2273.55203	0.24143
2271.62365	0.24190
2269.69528	0.24255
2267.76691	0.24341
2265.83853	0.24416
2263.91016	0.24466
2261.98179	0.24508
2260.05342	0.24545
2258.12504	0.24581
2256.19667	0.24641
2254.26830	0.24725
2252.33992	0.24803
2250.41155	0.24856
2248.48318	0.24905
2246.55480	0.24976
2244.62643	0.25063
2242.69806	0.25138
2240.76968	0.25178
2238.84131	0.25214
2236.91294	0.25286
2234.98456	0.25371
2233.05619	0.25423
2231.12782	0.25455
2229.19944	0.25495
2227.27107	0.25529
2225.34270	0.25548
2223.41432	0.25580
2221.48595	0.25632
2219.55758	0.25689
2217.62920	0.25759
2215.70083	0.25834
2213.77246	0.25884
2211.84408	0.25913
2209.91571	0.25963
2207.98734	0.26041
2206.05896	0.26109
2204.13059	0.26165
2202.20222	0.26205
2200.27385	0.26207
2198.34547	0.26203
2196.41710	0.26238
2194.48873	0.26292
2192.56035	0.26325
2190.63198	0.26349
2188.70361	0.26396
2186.77523	0.26447
2184.84686	0.26465
2182.91849	0.26465
2180.99011	0.26478
2179.06174	0.26513
2177.13337	0.26571
2175.20499	0.26625
2173.27662	0.26642
2171.34825	0.26636
2169.41987	0.26635
2167.49150	0.26638
2165.56313	0.26629
2163.63475	0.26624
2161.70638	0.26643
2159.77801	0.26671
2157.84963	0.26680
2155.92126	0.26677
2153.99289	0.26685
2152.06451	0.26718
2150.13614	0.26765
2148.20777	0.26803
2146.27940	0.26827
2144.35102	0.26848
2142.42265	0.26875
2140.49428	0.26904
2138.56590	0.26923
2136.63753	0.26932
2134.70916	0.26955
2132.78078	0.27000
2130.85241	0.27052
2128.92404	0.27105
2126.99566	0.27162
2125.06729	0.27217
2123.13892	0.27270
2121.21054	0.27326
2119.28217	0.27385
2117.35380	0.27445
2115.42542	0.27500
2113.49705	0.27549
2111.56868	0.27593
2109.64030	0.27641
2107.71193	0.27698
2105.78356	0.27757
2103.85518	0.27823
2101.92681	0.27893
2099.99844	0.27947
2098.07006	0.27992
2096.14169	0.28062
2094.21332	0.28144
2092.28494	0.28192
2090.35657	0.28201
2088.42820	0.28197
2086.49983	0.28206
2084.57145	0.28227
2082.64308	0.28246
2080.71471	0.28263
2078.78633	0.28275
2076.85796	0.28268
2074.92959	0.28251
2073.00121	0.28255
2071.07284	0.28284
2069.14447	0.28300
2067.21609	0.28288
2065.28772	0.28276
2063.35935	0.28289
2061.43097	0.28318
2059.50260	0.28342
2057.57423	0.28359
2055.64585	0.28380
2053.71748	0.28406
2051.78911	0.28439
2049.86073	0.28485
2047.93236	0.28535
2046.00399	0.28582
2044.07561	0.28637
2042.14724	0.28686
2040.21887	0.28712
2038.29049	0.28727
2036.36212	0.28750
2034.43375	0.28781
2032.50538	0.28803
2030.57700	0.28820
2028.64863	0.28841
2026.72026	0.28850
2024.79188	0.28846
2022.86351	0.28853
2020.93514	0.28866
2019.00676	0.28877
2017.07839	0.28902
2015.15002	0.28932
2013.22164	0.28959
2011.29327	0.28981
2009.36490	0.28986
2007.43652	0.28987
2005.50815	0.29011
2003.57978	0.29053
2001.65140	0.29086
1999.72303	0.29116
1997.79466	0.29149
1995.86628	0.29184
1993.93791	0.29230
1992.00954	0.29276
1990.08116	0.29297
1988.15279	0.29302
1986.22442	0.29304
1984.29604	0.29296
1982.36767	0.29290
1980.43930	0.29302
1978.51092	0.29322
1976.58255	0.29326
1974.65418	0.29321
1972.72581	0.29332
1970.79743	0.29364
1968.86906	0.29409
1966.94069	0.29440
1965.01231	0.29436
1963.08394	0.29423
1961.15557	0.29446
1959.22719	0.29485
1957.29882	0.29499
1955.37045	0.29485
1953.44207	0.29468
1951.51370	0.29477
1949.58533	0.29520
1947.65695	0.29566
1945.72858	0.29606
1943.80021	0.29647
1941.87183	0.29653
1939.94346	0.29624
1938.01509	0.29603
1936.08671	0.29588
1934.15834	0.29580
1932.22997	0.29594
1930.30159	0.29605
1928.37322	0.29587
1926.44485	0.29560
1924.51647	0.29568
1922.58810	0.29600
1920.65973	0.29625
1918.73135	0.29629
1916.80298	0.29586
1914.87461	0.29521
1912.94624	0.29490
1911.01786	0.29501
1909.08949	0.29519
1907.16112	0.29507
1905.23274	0.29485
1903.30437	0.29478
1901.37600	0.29473
1899.44762	0.29465
1897.51925	0.29462
1895.59088	0.29460
1893.66250	0.29449
1891.73413	0.29443
1889.80576	0.29438
1887.87738	0.29407
1885.94901	0.29358
1884.02064	0.29311
1882.09226	0.29288
1880.16389	0.29294
1878.23552	0.29289
1876.30714	0.29249
1874.37877	0.29205
1872.45040	0.29197
1870.52202	0.29229
1868.59365	0.29235
1866.66528	0.29156
1864.73690	0.29059
1862.80853	0.28987
1860.88016	0.28896
1858.95179	0.28793
1857.02341	0.28715
1855.09504	0.28650
1853.16667	0.28585
1851.23829	0.28524
1849.30992	0.28469
1847.38155	0.28436
1845.45317	0.28410
1843.52480	0.28323
1841.59643	0.28198
1839.66805	0.28116
1837.73968	0.28058
1835.81131	0.27985
1833.88293	0.27921
1831.95456	0.27891
1830.02619	0.27855
1828.09781	0.27781
1826.16944	0.27678
1824.24107	0.27512
1822.31269	0.27321
1820.38432	0.27174
1818.45595	0.27040
1816.52757	0.26879
1814.59920	0.26715
1812.67083	0.26558
1810.74245	0.26356
1808.81408	0.26103
1806.88571	0.25840
1804.95733	0.25583
1803.02896	0.25335
1801.10059	0.25045
1799.17222	0.24663
1797.24384	0.24244
1795.31547	0.23872
1793.38710	0.23485
1791.45872	0.22942
1789.53035	0.22345
1787.60198	0.21842
1785.67360	0.21390
1783.74523	0.20952
1781.81686	0.20538
1779.88848	0.20114
1777.96011	0.19691
1776.03174	0.19324
1774.10336	0.18963
1772.17499	0.18469
1770.24662	0.17870
1768.31824	0.17288
1766.38987	0.16714
1764.46150	0.16171
1762.53312	0.15563
1760.60475	0.14813
1758.67638	0.14026
1756.74800	0.13102
1754.81963	0.12085
1752.89126	0.11083
1750.96288	0.09910
1749.03451	0.08545
1747.10614	0.07252
1745.17777	0.06081
1743.24939	0.05002
1741.32102	0.04009
1739.39265	0.03092
1737.46427	0.02395
1735.53590	0.01880
1733.60753	0.01375
1731.67915	0.00995
1729.75078	0.00753
1727.82241	0.00584
1725.89403	0.00477
1723.96566	0.00372
1722.03729	0.00256
1720.10891	0.00174
1718.18054	0.00144
1716.25217	0.00137
1714.32379	0.00106
1712.39542	0.00055
1710.46705	0.00041
1708.53867	0.00072
1706.61030	0.00063
1704.68193	0.00070
1702.75355	0.00066
1700.82518	0.00095
1698.89681	0.00122
1696.96843	0.00163
1695.04006	0.00160
1693.11169	0.00080
1691.18331	0.00060
1689.25494	0.00077
1687.32657	0.00070
1685.39820	0.00070
1683.46982	0.00059
1681.54145	0.00050
1679.61308	0.00046
1677.68470	0.00077
1675.75633	0.00107
1673.82796	0.00065
1671.89958	0.00094
1669.97121	0.00135
1668.04284	0.00123
1666.11446	0.00090
1664.18609	0.00088
1662.25772	0.00063
1660.32934	0.00073
1658.40097	0.00072
1656.47260	0.00074
1654.54422	0.00093
1652.61585	0.00062
1650.68748	0.00061
1648.75910	0.00035
1646.83073	0.00036
1644.90236	0.00047
1642.97398	0.00033
1641.04561	0.00018
1639.11724	0.00035
1637.18886	0.00072
1635.26049	0.00086
1633.33212	0.00081
1631.40375	0.00070
1629.47537	0.00060
1627.54700	0.00039
1625.61863	0.00026
1623.69025	0.00040
1621.76188	0.00059
1619.83351	0.00069
1617.90513	0.00068
1615.97676	0.00049
1614.04839	0.00052
1612.12001	0.00048
1610.19164	0.00081
1608.26327	0.00061
1606.33489	0.00087
1604.40652	0.00109
1602.47815	0.00063
1600.54977	0.00050
1598.62140	0.00051
1596.69303	0.00062
1594.76465	0.00065
1592.83628	0.00028
1590.90791	0.00039
1588.97953	0.00045
1587.05116	0.00050
1585.12279	0.00065
1583.19441	0.00047
1581.26604	0.00054
1579.33767	0.00067
1577.40929	0.00057
1575.48092	0.00054
1573.55255	0.00065
1571.62418	0.00053
1569.69580	0.00067
1567.76743	0.00071
1565.83906	0.00049
1563.91068	0.00030
1561.98231	0.00078
1560.05394	0.00149
1558.12556	0.00120
1556.19719	0.00072
1554.26882	0.00076
1552.34044	0.00075
1550.41207	0.00055
1548.48370	0.00050
1546.55532	0.00064
1544.62695	0.00071
1542.69858	0.00090
1540.77020	0.00094
1538.84183	0.00085
1536.91346	0.00050
1534.98508	0.00034
1533.05671	0.00027
1531.12834	0.00056
1529.19996	0.00098
1527.27159	0.00118
1525.34322	0.00118
1523.41484	0.00142
1521.48647	0.00133
1519.55810	0.00086
1517.62972	0.00091
1515.70135	0.00104
1513.77298	0.00105
1511.84461	0.00103
1509.91623	0.00097
1507.98786	0.00105
1506.05949	0.00109
1504.13111	0.00063
1502.20274	0.00045
1500.27437	0.00058
1498.34599	0.00101
1496.41762	0.00183
1494.48925	0.00250
1492.56087	0.00284
1490.63250	0.00329
1488.70413	0.00423
1486.77575	0.00525
1484.84738	0.00605
1482.91901	0.00668
1480.99063	0.00706
1479.06226	0.00727
1477.13389	0.00734
1475.20551	0.00713
1473.27714	0.00647
1471.34877	0.00547
1469.42039	0.00453
1467.49202	0.00363
1465.56365	0.00300
1463.63527	0.00267
1461.70690	0.00227
1459.77853	0.00211
1457.85016	0.00230
1455.92178	0.00222
1453.99341	0.00180
1452.06504	0.00159
1450.13666	0.00150
1448.20829	0.00125
1446.27992	0.00098
1444.35154	0.00118
1442.42317	0.00147
1440.49480	0.00173
1438.56642	0.00171
1436.63805	0.00161
1434.70968	0.00150
1432.78130	0.00123
1430.85293	0.00119
1428.92456	0.00155
1426.99618	0.00171
1425.06781	0.00155
1423.13944	0.00116
1421.21106	0.00086
1419.28269	0.00132
1417.35432	0.00197
1415.42594	0.00212
1413.49757	0.00176
1411.56920	0.00105
1409.64082	0.00070
1407.71245	0.00092
1405.78408	0.00127
1403.85570	0.00146
1401.92733	0.00165
1399.99896	0.00190
1398.07059	0.00194
1396.14221	0.00170
1394.21384	0.00148
1392.28547	0.00116
1390.35709	0.00068
1388.42872	0.00043
1386.50035	0.00061
1384.57197	0.00065
1382.64360	0.00042
1380.71523	0.00029
1378.78685	0.00064
1376.85848	0.00059
1374.93011	0.00060
1373.00173	0.00076
1371.07336	0.00043
1369.14499	0.00050
1367.21661	0.00130
1365.28824	0.00177
1363.35987	0.00182
1361.43149	0.00207
1359.50312	0.00279
1357.57475	0.00321
1355.64637	0.00352
1353.71800	0.00397
1351.78963	0.00449
1349.86125	0.00495
1347.93288	0.00504
1346.00451	0.00467
1344.07614	0.00421
1342.14776	0.00398
1340.21939	0.00414
1338.29102	0.00457
1336.36264	0.00464
1334.43427	0.00403
1332.50590	0.00314
1330.57752	0.00253
1328.64915	0.00216
1326.72078	0.00203
1324.79240	0.00226
1322.86403	0.00248
1320.93566	0.00233
1319.00728	0.00221
1317.07891	0.00249
1315.15054	0.00305
1313.22216	0.00330
1311.29379	0.00297
1309.36542	0.00266
1307.43704	0.00264
1305.50867	0.00269
1303.58030	0.00266
1301.65192	0.00249
1299.72355	0.00242
1297.79518	0.00293
1295.86680	0.00349
1293.93843	0.00375
1292.01006	0.00411
1290.08168	0.00438
1288.15331	0.00411
1286.22494	0.00377
1284.29657	0.00387
1282.36819	0.00421
1280.43982	0.00442
1278.51145	0.00425
1276.58307	0.00385
1274.65470	0.00371
1272.72633	0.00413
1270.79795	0.00455
1268.86958	0.00418
1266.94121	0.00342
1265.01283	0.00306
1263.08446	0.00304
1261.15609	0.00316
1259.22771	0.00307
1257.29934	0.00295
1255.37097	0.00311
1253.44259	0.00350
1251.51422	0.00396
1249.58585	0.00441
1247.65747	0.00480
1245.72910	0.00507
1243.80073	0.00539
1241.87235	0.00587
1239.94398	0.00616
1238.01561	0.00606
1236.08723	0.00578
1234.15886	0.00554
1232.23049	0.00568
1230.30212	0.00617
1228.37374	0.00646
1226.44537	0.00653
1224.51700	0.00728
1222.58862	0.00874
1220.66025	0.01019
1218.73188	0.01042
1216.80350	0.00993
1214.87513	0.00991
1212.94676	0.01010
1211.01838	0.00978
1209.09001	0.00903
1207.16164	0.00820
1205.23326	0.00814
1203.30489	0.00902
1201.37652	0.01044
1199.44814	0.01227
1197.51977	0.01404
1195.59140	0.01524
1193.66302	0.01646
1191.73465	0.01794
1189.80628	0.01861
1187.87790	0.01806
1185.94953	0.01742
1184.02116	0.01730
1182.09278	0.01718
1180.16441	0.01664
1178.23604	0.01524
1176.30766	0.01302
1174.37929	0.01077
1172.45092	0.00889
1170.52255	0.00736
1168.59417	0.00603
1166.66580	0.00465
1164.73743	0.00313
1162.80905	0.00158
1160.88068	0.00015
1158.95231	0.00063
1157.02393	0.00113
1155.09556	0.00164
1153.16719	0.00186
1151.23881	0.00253
1149.31044	0.00423
1147.38207	0.00639
1145.45369	0.00817
1143.52532	0.00955
1141.59695	0.01103
1139.66857	0.01229
1137.74020	0.01234
1135.81183	0.01138
1133.88345	0.01068
1131.95508	0.01012
1130.02671	0.00886
1128.09833	0.00713
1126.16996	0.00549
1124.24159	0.00459
1122.31321	0.00461
1120.38484	0.00456
1118.45647	0.00318
1116.52809	0.00157
1114.59972	0.00201
1112.67135	0.00277
1110.74298	0.00316
1108.81460	0.00381
1106.88623	0.00470
1104.95786	0.00529
1103.02948	0.00563
1101.10111	0.00573
1099.17274	0.00576
1097.24436	0.00526
1095.31599	0.00479
1093.38762	0.00446
1091.45924	0.00363
1089.53087	0.00278
1087.60250	0.00234
1085.67412	0.00186
1083.74575	0.00111
1081.81738	0.00095
1079.88900	0.00113
1077.96063	0.00113
1076.03226	0.00127
1074.10388	0.00122
1072.17551	0.00136
1070.24714	0.00115
1068.31876	0.00197
1066.39039	0.00254
1064.46202	0.00282
1062.53364	0.00304
1060.60527	0.00312
1058.67690	0.00307
1056.74853	0.00313
1054.82015	0.00419
1052.89178	0.00582
1050.96341	0.00665
1049.03503	0.00686
1047.10666	0.00689
1045.17829	0.00601
1043.24991	0.00434
1041.32154	0.00319
1039.39317	0.00301
1037.46479	0.00260
1035.53642	0.00169
1033.60805	0.00125
1031.67967	0.00188
1029.75130	0.00221
1027.82293	0.00173
1025.89455	0.00144
1023.96618	0.00154
1022.03781	0.00141
1020.10943	0.00124
1018.18106	0.00153
1016.25269	0.00257
1014.32431	0.00371
1012.39594	0.00465
1010.46757	0.00571
1008.53919	0.00749
1006.61082	0.01012
1004.68245	0.01329
1002.75407	0.01677
1000.82570	0.02056
998.89733	0.02454
996.96896	0.02808
995.04058	0.03075
993.11221	0.03320
991.18384	0.03632
989.25546	0.03982
987.32709	0.04265
985.39872	0.04430
983.47034	0.04472
981.54197	0.04374
979.61360	0.04187
977.68522	0.04014
975.75685	0.03941
973.82848	0.04039
971.90010	0.04352
969.97173	0.04866
968.04336	0.05463
966.11498	0.05990
964.18661	0.06306
962.25824	0.06241
960.32986	0.05685
958.40149	0.04783
956.47312	0.03973
954.54474	0.03653
952.61637	0.03871
950.68800	0.04479
948.75962	0.05295
946.83125	0.06105
944.90288	0.06770
942.97451	0.07297
941.04613	0.07790
939.11776	0.08275
937.18939	0.08622
935.26101	0.08789
933.33264	0.08873
931.40427	0.08914
929.47589	0.08899
927.54752	0.08805
925.61915	0.08642
923.69077	0.08489
921.76240	0.08394
919.83403	0.08362
917.90565	0.08407
915.97728	0.08529
914.04891	0.08632
912.12053	0.08580
910.19216	0.08339
908.26379	0.07982
906.33541	0.07627
904.40704	0.07274
902.47867	0.06830
900.55029	0.06368
898.62192	0.06041
896.69355	0.05844
894.76517	0.05722
892.83680	0.05712
890.90843	0.05803
888.98005	0.05926
887.05168	0.06085
885.12331	0.06255
883.19494	0.06361
881.26656	0.06413
879.33819	0.06449
877.40982	0.06460
875.48144	0.06469
873.55307	0.06540
871.62470	0.06585
869.69632	0.06462
867.76795	0.06269
865.83958	0.06184
863.91120	0.06209
861.98283	0.06215
860.05446	0.06114
858.12608	0.05963
856.19771	0.05868
854.26934	0.05805
852.34096	0.05687
850.41259	0.05579
848.48422	0.05580
846.55584	0.05616
844.62747	0.05539
842.69910	0.05366
840.77072	0.05242
838.84235	0.05126
836.91398	0.04930
834.98560	0.04807
833.05723	0.04792
831.12886	0.04717
829.20049	0.04571
827.27211	0.04414
825.34374	0.04278
823.41537	0.04179
821.48699	0.04075
819.55862	0.03984
817.63025	0.03933
815.70187	0.03884
813.77350	0.03783
811.84513	0.03672
809.91675	0.03617
807.98838	0.03583
806.06001	0.03497
804.13163	0.03365
802.20326	0.03180
800.27489	0.02938
798.34651	0.02761
796.41814	0.02663
794.48977	0.02509
792.56139	0.02338
790.63302	0.02279
788.70465	0.02281
786.77627	0.02248
784.84790	0.02211
782.91953	0.02177
780.99115	0.02120
779.06278	0.02118
777.13441	0.02185
775.20603	0.02201
773.27766	0.02144
771.34929	0.02102
769.42092	0.02115
767.49254	0.02107
765.56417	0.02017
763.63580	0.01884
761.70742	0.01769
759.77905	0.01661
757.85068	0.01515
755.92230	0.01334
753.99393	0.01149
752.06556	0.01031
750.13718	0.01055
748.20881	0.01173
746.28044	0.01290
744.35206	0.01363
742.42369	0.01432
740.49532	0.01475
738.56694	0.01424
736.63857	0.01377
734.71020	0.01390
732.78182	0.01355
730.85345	0.01294
728.92508	0.01286
726.99670	0.01290
725.06833	0.01239
723.13996	0.01149
721.21158	0.01069
719.28321	0.01045
717.35484	0.01033
715.42647	0.00976
713.49809	0.00932
711.56972	0.00887
709.64135	0.00808
707.71297	0.00849
705.78460	0.01022
703.85623	0.01131
701.92785	0.01165
699.99948	0.01207
698.07111	0.01327
696.14273	0.01396
694.21436	0.01374
692.28599	0.01262
690.35761	0.01155
688.42924	0.01179
686.50087	0.01273
684.57249	0.01267
682.64412	0.01264
680.71575	0.01403
678.78737	0.01574
676.85900	0.01722
674.93063	0.01753
673.00225	0.01574
671.07388	0.01343
669.14551	0.01196
667.21713	0.01318
665.28876	0.01538
663.36039	0.01678
661.43201	0.01710
659.50364	0.01707
657.57527	0.01649
655.64690	0.01496
653.71852	0.01398
651.79015	0.01428
649.86178	0.01562
647.93340	0.01610
646.00503	0.01504
644.07666	0.01458
642.14828	0.01537
640.21991	0.01415
638.29154	0.01097
636.36316	0.01006
634.43479	0.01076
632.50642	0.00896
630.57804	0.00606
628.64967	0.00728
626.72130	0.01066
624.79292	0.01142
622.86455	0.00863
620.93618	0.00437
619.00780	0.00666
617.07943	0.01151
615.15106	0.00865
613.22268	0.00702
611.29431	0.01011
609.36594	0.00895
607.43756	0.01049
605.50919	0.01520
603.58082	0.01594
601.65244	0.01395
599.72407	0.01178
