3997.51769	0.93656
3995.58931	0.93690
3993.66094	0.93727
3991.73257	0.93756
3989.80419	0.93792
3987.87582	0.93826
3985.94745	0.93855
3984.01907	0.93896
3982.09070	0.93941
3980.16233	0.93962
3978.23396	0.93980
3976.30558	0.94030
3974.37721	0.94067
3972.44884	0.94055
3970.52046	0.94052
3968.59209	0.94115
3966.66372	0.94217
3964.73534	0.94287
3962.80697	0.94289
3960.87860	0.94251
3958.95022	0.94230
3957.02185	0.94264
3955.09348	0.94341
3953.16510	0.94399
3951.23673	0.94421
3949.30836	0.94474
3947.37998	0.94557
3945.45161	0.94604
3943.52324	0.94615
3941.59486	0.94616
3939.66649	0.94630
3937.73812	0.94655
3935.80974	0.94682
3933.88137	0.94755
3931.95300	0.94851
3930.02462	0.94860
3928.09625	0.94831
3926.16788	0.94885
3924.23950	0.94982
3922.31113	0.95026
3920.38276	0.95048
3918.45439	0.95095
3916.52601	0.95126
3914.59764	0.95100
3912.66927	0.95073
3910.74089	0.95100
3908.81252	0.95168
3906.88415	0.95302
3904.95577	0.95536
3903.02740	0.95776
3901.09903	0.95876
3899.17065	0.95796
3897.24228	0.95615
3895.31391	0.95513
3893.38553	0.95610
3891.45716	0.95782
3889.52879	0.95804
3887.60041	0.95808
3885.67204	0.95923
3883.74367	0.95968
3881.81529	0.95963
3879.88692	0.95990
3877.95855	0.95955
3876.03017	0.95980
3874.10180	0.96146
3872.17343	0.96341
3870.24505	0.96485
3868.31668	0.96469
3866.38831	0.96391
3864.45994	0.96408
3862.53156	0.96411
3860.60319	0.96348
3858.67482	0.96332
3856.74644	0.96519
3854.81807	0.97046
3852.88970	0.97429
3850.96132	0.97016
3849.03295	0.96511
3847.10458	0.96327
3845.17620	0.96429
3843.24783	0.96640
3841.31946	0.96800
3839.39108	0.96967
3837.46271	0.97093
3835.53434	0.97024
3833.60596	0.96901
3831.67759	0.96817
3829.74922	0.96733
3827.82084	0.96699
3825.89247	0.96745
3823.96410	0.96865
3822.03572	0.97088
3820.10735	0.97226
3818.17898	0.97191
3816.25060	0.97168
3814.32223	0.97040
3812.39386	0.96829
3810.46548	0.96766
3808.53711	0.96892
3806.60874	0.97049
3804.68037	0.97118
3802.75199	0.97261
3800.82362	0.97388
3798.89525	0.97262
3796.96687	0.97096
3795.03850	0.96984
3793.11013	0.96879
3791.18175	0.96834
3789.25338	0.96863
3787.32501	0.96929
3785.39663	0.96996
3783.46826	0.97029
3781.53989	0.97066
3779.61151	0.97112
3777.68314	0.97071
3775.75477	0.96993
3773.82639	0.97008
3771.89802	0.97132
3769.96965	0.97274
3768.04127	0.97302
3766.11290	0.97247
3764.18453	0.97194
3762.25615	0.97185
3760.32778	0.97268
3758.39941	0.97339
3756.47103	0.97315
3754.54266	0.97402
3752.61429	0.97763
3750.68591	0.98140
3748.75754	0.98119
3746.82917	0.98042
3744.90080	0.98129
3742.97242	0.97949
3741.04405	0.97577
3739.11568	0.97473
3737.18730	0.97675
3735.25893	0.97918
3733.33056	0.97882
3731.40218	0.97601
3729.47381	0.97350
3727.54544	0.97267
3725.61706	0.97314
3723.68869	0.97379
3721.76032	0.97376
3719.83194	0.97277
3717.90357	0.97133
3715.97520	0.97080
3714.04682	0.97218
3712.11845	0.97457
3710.19008	0.97477
3708.26170	0.97245
3706.33333	0.97021
3704.40496	0.96916
3702.47658	0.96908
3700.54821	0.96861
3698.61984	0.96749
3696.69146	0.96648
3694.76309	0.96576
3692.83472	0.96580
3690.90635	0.96706
3688.97797	0.96748
3687.04960	0.96435
3685.12123	0.96015
3683.19285	0.95745
3681.26448	0.95616
3679.33611	0.95585
3677.40773	0.95681
3675.47936	0.95707
3673.55099	0.95375
3671.62261	0.95042
3669.69424	0.94799
3667.76587	0.94347
3665.83749	0.93829
3663.90912	0.93452
3661.98075	0.93183
3660.05237	0.92960
3658.12400	0.92773
3656.19563	0.92529
3654.26725	0.92184
3652.33888	0.91962
3650.41051	0.91914
3648.48213	0.91675
3646.55376	0.91055
3644.62539	0.90407
3642.69701	0.89905
3640.76864	0.89500
3638.84027	0.89112
3636.91189	0.88723
3634.98352	0.88363
3633.05515	0.88067
3631.12678	0.87866
3629.19840	0.87614
3627.27003	0.87068
3625.34166	0.86469
3623.41328	0.86046
3621.48491	0.85753
3619.55654	0.85437
3617.62816	0.84979
3615.69979	0.84494
3613.77142	0.84081
3611.84304	0.83669
3609.91467	0.83204
3607.98630	0.82688
3606.05792	0.82170
3604.12955	0.81701
3602.20118	0.81258
3600.27280	0.80816
3598.34443	0.80390
3596.41606	0.79977
3594.48768	0.79518
3592.55931	0.79025
3590.63094	0.78614
3588.70256	0.78257
3586.77419	0.77807
3584.84582	0.77255
3582.91744	0.76724
3580.98907	0.76230
3579.06070	0.75735
3577.13233	0.75239
3575.20395	0.74734
3573.27558	0.74229
3571.34721	0.73785
3569.41883	0.73418
3567.49046	0.73021
3565.56209	0.72485
3563.63371	0.71889
3561.70534	0.71323
3559.77697	0.70811
3557.84859	0.70355
3555.92022	0.69936
3553.99185	0.69528
3552.06347	0.69079
3550.13510	0.68595
3548.20673	0.68135
3546.27835	0.67707
3544.34998	0.67258
3542.42161	0.66776
3540.49323	0.66315
3538.56486	0.65897
3536.63649	0.65487
3534.70811	0.65057
3532.77974	0.64629
3530.85137	0.64220
3528.92299	0.63810
3526.99462	0.63383
3525.06625	0.62969
3523.13787	0.62592
3521.20950	0.62212
3519.28113	0.61803
3517.35276	0.61381
3515.42438	0.60973
3513.49601	0.60589
3511.56764	0.60207
3509.63926	0.59831
3507.71089	0.59467
3505.78252	0.59107
3503.85414	0.58738
3501.92577	0.58345
3499.99740	0.57955
3498.06902	0.57600
3496.14065	0.57259
3494.21228	0.56920
3492.28390	0.56624
3490.35553	0.56352
3488.42716	0.56043
3486.49878	0.55694
3484.57041	0.55365
3482.64204	0.55081
3480.71366	0.54821
3478.78529	0.54562
3476.85692	0.54286
3474.92854	0.53996
3473.00017	0.53712
3471.07180	0.53438
3469.14342	0.53182
3467.21505	0.52941
3465.28668	0.52680
3463.35831	0.52379
3461.42993	0.52082
3459.50156	0.51831
3457.57319	0.51609
3455.64481	0.51380
3453.71644	0.51129
3451.78807	0.50858
3449.85969	0.50569
3447.93132	0.50282
3446.00295	0.50020
3444.07457	0.49778
3442.14620	0.49519
3440.21783	0.49231
3438.28945	0.48960
3436.36108	0.48720
3434.43271	0.48491
3432.50433	0.48258
3430.57596	0.48013
3428.64759	0.47756
3426.71921	0.47490
3424.79084	0.47222
3422.86247	0.46959
3420.93409	0.46706
3419.00572	0.46452
3417.07735	0.46199
3415.14897	0.45948
3413.22060	0.45694
3411.29223	0.45453
3409.36385	0.45233
3407.43548	0.45001
3405.50711	0.44756
3403.57874	0.44539
3401.65036	0.44336
3399.72199	0.44108
3397.79362	0.43866
3395.86524	0.43623
3393.93687	0.43365
3392.00850	0.43092
3390.08012	0.42833
3388.15175	0.42595
3386.22338	0.42333
3384.29500	0.42029
3382.36663	0.41725
3380.43826	0.41439
3378.50988	0.41148
3376.58151	0.40840
3374.65314	0.40507
3372.72476	0.40143
3370.79639	0.39765
3368.86802	0.39391
3366.93964	0.39031
3365.01127	0.38659
3363.08290	0.38247
3361.15452	0.37811
3359.22615	0.37379
3357.29778	0.36955
3355.36940	0.36524
3353.44103	0.36082
3351.51266	0.35636
3349.58428	0.35181
3347.65591	0.34708
3345.72754	0.34232
3343.79917	0.33757
3341.87079	0.33266
3339.94242	0.32752
3338.01405	0.32223
3336.08567	0.31701
3334.15730	0.31204
3332.22893	0.30716
3330.30055	0.30219
3328.37218	0.29722
3326.44381	0.29230
3324.51543	0.28728
3322.58706	0.28232
3320.65869	0.27754
3318.73031	0.27267
3316.80194	0.26782
3314.87357	0.26333
3312.94519	0.25906
3311.01682	0.25489
3309.08845	0.25099
3307.16007	0.24742
3305.23170	0.24425
3303.30333	0.24155
3301.37495	0.23921
3299.44658	0.23695
3297.51821	0.23473
3295.58983	0.23278
3293.66146	0.23136
3291.73309	0.23051
3289.80472	0.23014
3287.87634	0.23018
3285.94797	0.23067
3284.01960	0.23158
3282.09122	0.23295
3280.16285	0.23496
3278.23448	0.23768
3276.30610	0.24093
3274.37773	0.24461
3272.44936	0.24883
3270.52098	0.25361
3268.59261	0.25878
3266.66424	0.26440
3264.73586	0.27063
3262.80749	0.27740
3260.87912	0.28450
3258.95074	0.29174
3257.02237	0.29917
3255.09400	0.30694
3253.16562	0.31491
3251.23725	0.32271
3249.30888	0.33038
3247.38050	0.33801
3245.45213	0.34558
3243.52376	0.35289
3241.59538	0.35952
3239.66701	0.36564
3237.73864	0.37161
3235.81026	0.37726
3233.88189	0.38237
3231.95352	0.38703
3230.02515	0.39128
3228.09677	0.39518
3226.16840	0.39895
3224.24003	0.40268
3222.31165	0.40620
3220.38328	0.40950
3218.45491	0.41269
3216.52653	0.41575
3214.59816	0.41884
3212.66979	0.42216
3210.74141	0.42563
3208.81304	0.42913
3206.88467	0.43278
3204.95629	0.43656
3203.02792	0.44026
3201.09955	0.44383
3199.17117	0.44739
3197.24280	0.45097
3195.31443	0.45469
3193.38605	0.45876
3191.45768	0.46293
3189.52931	0.46686
3187.60093	0.47082
3185.67256	0.47514
3183.74419	0.47960
3181.81581	0.48393
3179.88744	0.48825
3177.95907	0.49257
3176.03070	0.49664
3174.10232	0.50045
3172.17395	0.50440
3170.24558	0.50865
3168.31720	0.51291
3166.38883	0.51693
3164.46046	0.52073
3162.53208	0.52435
3160.60371	0.52770
3158.67534	0.53093
3156.74696	0.53431
3154.81859	0.53775
3152.89022	0.54098
3150.96184	0.54393
3149.03347	0.54674
3147.10510	0.54944
3145.17672	0.55206
3143.24835	0.55459
3141.31998	0.55702
3139.39160	0.55934
3137.46323	0.56151
3135.53486	0.56352
3133.60648	0.56536
3131.67811	0.56696
3129.74974	0.56828
3127.82136	0.56935
3125.89299	0.57044
3123.96462	0.57160
3122.03624	0.57252
3120.10787	0.57299
3118.17950	0.57317
3116.25113	0.57338
3114.32275	0.57360
3112.39438	0.57357
3110.46601	0.57330
3108.53763	0.57291
3106.60926	0.57242
3104.68089	0.57186
3102.75251	0.57112
3100.82414	0.57002
3098.89577	0.56875
3096.96739	0.56758
3095.03902	0.56639
3093.11065	0.56486
3091.18227	0.56301
3089.25390	0.56129
3087.32553	0.55998
3085.39715	0.55888
3083.46878	0.55793
3081.54041	0.55725
3079.61203	0.55669
3077.68366	0.55622
3075.75529	0.55601
3073.82691	0.55615
3071.89854	0.55677
3069.97017	0.55771
3068.04179	0.55877
3066.11342	0.56011
3064.18505	0.56184
3062.25668	0.56396
3060.32830	0.56636
3058.39993	0.56905
3056.47156	0.57214
3054.54318	0.57548
3052.61481	0.57882
3050.68644	0.58225
3048.75806	0.58585
3046.82969	0.58937
3044.90132	0.59289
3042.97294	0.59664
3041.04457	0.60045
3039.11620	0.60402
3037.18782	0.60736
3035.25945	0.61068
3033.33108	0.61409
3031.40270	0.61739
3029.47433	0.62041
3027.54596	0.62333
3025.61758	0.62646
3023.68921	0.62981
3021.76084	0.63304
3019.83246	0.63590
3017.90409	0.63836
3015.97572	0.64051
3014.04734	0.64259
3012.11897	0.64458
3010.19060	0.64612
3008.26222	0.64706
3006.33385	0.64747
3004.40548	0.64744
3002.47711	0.64691
3000.54873	0.64578
2998.62036	0.64391
2996.69199	0.64121
2994.76361	0.63760
2992.83524	0.63301
2990.90687	0.62754
2988.97849	0.62141
2987.05012	0.61477
2985.12175	0.60776
2983.19337	0.60045
2981.26500	0.59302
2979.33663	0.58567
2977.40825	0.57841
2975.47988	0.57116
2973.55151	0.56395
2971.62313	0.55709
2969.69476	0.55084
2967.76639	0.54528
2965.83801	0.54068
2963.90964	0.53743
2961.98127	0.53612
2960.05289	0.53707
2958.12452	0.54024
2956.19615	0.54552
2954.26777	0.55254
2952.33940	0.56012
2950.41103	0.56642
2948.48266	0.57042
2946.55428	0.57213
2944.62591	0.57134
2942.69754	0.56817
2940.76916	0.56355
2938.84079	0.55845
2936.91242	0.55367
2934.98404	0.54956
2933.05567	0.54593
2931.12730	0.54257
2929.19892	0.53906
2927.27055	0.53433
2925.34218	0.52755
2923.41380	0.51831
2921.48543	0.50682
2919.55706	0.49539
2917.62868	0.49010
2915.70031	0.49804
2913.77194	0.51934
2911.84356	0.54540
2909.91519	0.56781
2907.98682	0.58410
2906.05844	0.59531
2904.13007	0.60337
2902.20170	0.60966
2900.27332	0.61463
2898.34495	0.61869
2896.41658	0.62223
2894.48820	0.62527
2892.55983	0.62784
2890.63146	0.62989
2888.70309	0.63120
2886.77471	0.63172
2884.84634	0.63145
2882.91797	0.63024
2880.98959	0.62823
2879.06122	0.62610
2877.13285	0.62491
2875.20447	0.62564
2873.27610	0.62897
2871.34773	0.63503
2869.41935	0.64307
2867.49098	0.65181
2865.56261	0.66002
2863.63423	0.66643
2861.70586	0.67006
2859.77749	0.67070
2857.84911	0.66848
2855.92074	0.66267
2853.99237	0.65102
2852.06399	0.63225
2850.13562	0.61402
2848.20725	0.61238
2846.27887	0.63291
2844.35050	0.66208
2842.42213	0.68538
2840.49375	0.70004
2838.56538	0.70919
2836.63701	0.71556
2834.70863	0.72043
2832.78026	0.72420
2830.85189	0.72721
2828.92352	0.72980
2826.99514	0.73214
2825.06677	0.73428
2823.13840	0.73624
2821.21002	0.73810
2819.28165	0.73994
2817.35328	0.74177
2815.42490	0.74354
2813.49653	0.74523
2811.56816	0.74696
2809.63978	0.74882
2807.71141	0.75069
2805.78304	0.75258
2803.85466	0.75455
2801.92629	0.75651
2799.99792	0.75828
2798.06954	0.75991
2796.14117	0.76148
2794.21280	0.76298
2792.28442	0.76459
2790.35605	0.76640
2788.42768	0.76832
2786.49930	0.77030
2784.57093	0.77213
2782.64256	0.77371
2780.71418	0.77520
2778.78581	0.77666
2776.85744	0.77810
2774.92907	0.77965
2773.00069	0.78127
2771.07232	0.78292
2769.14395	0.78463
2767.21557	0.78623
2765.28720	0.78771
2763.35883	0.78925
2761.43045	0.79080
2759.50208	0.79223
2757.57371	0.79354
2755.64533	0.79487
2753.71696	0.79639
2751.78859	0.79798
2749.86021	0.79937
2747.93184	0.80061
2746.00347	0.80186
2744.07509	0.80297
2742.14672	0.80390
2740.21835	0.80503
2738.28997	0.80658
2736.36160	0.80830
2734.43323	0.80987
2732.50485	0.81120
2730.57648	0.81237
2728.64811	0.81362
2726.71973	0.81499
2724.79136	0.81639
2722.86299	0.81781
2720.93461	0.81926
2719.00624	0.82068
2717.07787	0.82203
2715.14950	0.82330
2713.22112	0.82460
2711.29275	0.82600
2709.36438	0.82736
2707.43600	0.82858
2705.50763	0.82964
2703.57926	0.83062
2701.65088	0.83168
2699.72251	0.83274
2697.79414	0.83367
2695.86576	0.83463
2693.93739	0.83568
2692.00902	0.83667
2690.08064	0.83761
2688.15227	0.83854
2686.22390	0.83958
2684.29552	0.84069
2682.36715	0.84166
2680.43878	0.84252
2678.51040	0.84336
2676.58203	0.84420
2674.65366	0.84525
2672.72528	0.84650
2670.79691	0.84766
2668.86854	0.84863
2666.94016	0.84947
2665.01179	0.85014
2663.08342	0.85090
2661.15505	0.85196
2659.22667	0.85318
2657.29830	0.85426
2655.36993	0.85503
2653.44155	0.85568
2651.51318	0.85652
2649.58481	0.85749
2647.65643	0.85843
2645.72806	0.85917
2643.79969	0.85971
2641.87131	0.86038
2639.94294	0.86134
2638.01457	0.86236
2636.08619	0.86326
2634.15782	0.86418
2632.22945	0.86519
2630.30107	0.86609
2628.37270	0.86678
2626.44433	0.86751
2624.51595	0.86838
2622.58758	0.86929
2620.65921	0.87018
2618.73083	0.87106
2616.80246	0.87199
2614.87409	0.87307
2612.94571	0.87417
2611.01734	0.87514
2609.08897	0.87605
2607.16059	0.87690
2605.23222	0.87772
2603.30385	0.87864
2601.37548	0.87969
2599.44710	0.88075
2597.51873	0.88175
2595.59036	0.88277
2593.66198	0.88393
2591.73361	0.88511
2589.80524	0.88608
2587.87686	0.88696
2585.94849	0.88798
2584.02012	0.88901
2582.09174	0.88995
2580.16337	0.89095
2578.23500	0.89206
2576.30662	0.89308
2574.37825	0.89399
2572.44988	0.89487
2570.52150	0.89573
2568.59313	0.89669
2566.66476	0.89778
2564.73638	0.89883
2562.80801	0.89982
2560.87964	0.90082
2558.95126	0.90180
2557.02289	0.90274
2555.09452	0.90363
2553.16614	0.90452
2551.23777	0.90536
2549.30940	0.90620
2547.38103	0.90713
2545.45265	0.90799
2543.52428	0.90865
2541.59591	0.90935
2539.66753	0.91035
2537.73916	0.91151
2535.81079	0.91246
2533.88241	0.91308
2531.95404	0.91361
2530.02567	0.91423
2528.09729	0.91492
2526.16892	0.91563
2524.24055	0.91634
2522.31217	0.91706
2520.38380	0.91773
2518.45543	0.91840
2516.52705	0.91920
2514.59868	0.92000
2512.67031	0.92054
2510.74193	0.92102
2508.81356	0.92166
2506.88519	0.92236
2504.95681	0.92297
2503.02844	0.92350
2501.10007	0.92407
2499.17169	0.92467
2497.24332	0.92531
2495.31495	0.92602
2493.38657	0.92668
2491.45820	0.92726
2489.52983	0.92787
2487.60146	0.92862
2485.67308	0.92945
2483.74471	0.93019
2481.81634	0.93083
2479.88796	0.93148
2477.95959	0.93214
2476.03122	0.93275
2474.10284	0.93336
2472.17447	0.93399
2470.24610	0.93460
2468.31772	0.93521
2466.38935	0.93582
2464.46098	0.93635
2462.53260	0.93686
2460.60423	0.93749
2458.67586	0.93815
2456.74748	0.93870
2454.81911	0.93923
2452.89074	0.93985
2450.96236	0.94043
2449.03399	0.94089
2447.10562	0.94134
2445.17724	0.94182
2443.24887	0.94222
2441.32050	0.94266
2439.39212	0.94319
2437.46375	0.94371
2435.53538	0.94430
2433.60700	0.94499
2431.67863	0.94559
2429.75026	0.94606
2427.82189	0.94647
2425.89351	0.94686
2423.96514	0.94723
2422.03677	0.94764
2420.10839	0.94813
2418.18002	0.94862
2416.25165	0.94906
2414.32327	0.94953
2412.39490	0.95003
2410.46653	0.95046
2408.53815	0.95084
2406.60978	0.95121
2404.68141	0.95157
2402.75303	0.95189
2400.82466	0.95209
2398.89629	0.95219
2396.96791	0.95238
2395.03954	0.95284
2393.11117	0.95345
2391.18279	0.95383
2389.25442	0.95388
2387.32605	0.95366
2385.39767	0.95318
2383.46930	0.95241
2381.54093	0.95149
2379.61255	0.95055
2377.68418	0.94977
2375.75581	0.94917
2373.82744	0.94856
2371.89906	0.94798
2369.97069	0.94765
2368.04232	0.94770
2366.11394	0.94803
2364.18557	0.94845
2362.25720	0.94875
2360.32882	0.94904
2358.40045	0.94924
2356.47208	0.94892
2354.54370	0.94831
2352.61533	0.94810
2350.68696	0.94824
2348.75858	0.94820
2346.83021	0.94775
2344.90184	0.94715
2342.97346	0.94703
2341.04509	0.94743
2339.11672	0.94802
2337.18834	0.94871
2335.25997	0.94900
2333.33160	0.94867
2331.40322	0.94839
2329.47485	0.94829
2327.54648	0.94810
2325.61810	0.94802
2323.68973	0.94834
2321.76136	0.94888
2319.83298	0.94943
2317.90461	0.94998
2315.97624	0.95047
2314.04787	0.95085
2312.11949	0.95125
2310.19112	0.95167
2308.26275	0.95198
2306.33437	0.95236
2304.40600	0.95292
2302.47763	0.95342
2300.54925	0.95378
2298.62088	0.95415
2296.69251	0.95451
2294.76413	0.95477
2292.83576	0.95503
2290.90739	0.95531
2288.97901	0.95545
2287.05064	0.95545
2285.12227	0.95556
2283.19389	0.95567
2281.26552	0.95553
2279.33715	0.95517
2277.40877	0.95485
2275.48040	0.95465
2273.55203	0.95452
2271.62365	0.95438
2269.69528	0.95429
2267.76691	0.95428
2265.83853	0.95417
2263.91016	0.95385
2261.98179	0.95356
2260.05342	0.95344
2258.12504	0.95329
2256.19667	0.95303
2254.26830	0.95284
2252.33992	0.95273
2250.41155	0.95244
2248.48318	0.95204
2246.55480	0.95175
2244.62643	0.95150
2242.69806	0.95112
2240.76968	0.95076
2238.84131	0.95060
2236.91294	0.95046
2234.98456	0.95019
2233.05619	0.94988
2231.12782	0.94958
2229.19944	0.94923
2227.27107	0.94886
2225.34270	0.94850
2223.41432	0.94808
2221.48595	0.94770
2219.55758	0.94743
2217.62920	0.94715
2215.70083	0.94676
2213.77246	0.94636
2211.84408	0.94604
2209.91571	0.94571
2207.98734	0.94531
2206.05896	0.94495
2204.13059	0.94459
2202.20222	0.94411
2200.27385	0.94360
2198.34547	0.94312
2196.41710	0.94262
2194.48873	0.94225
2192.56035	0.94208
2190.63198	0.94183
2188.70361	0.94131
2186.77523	0.94079
2184.84686	0.94050
2182.91849	0.94026
2180.99011	0.93996
2179.06174	0.93967
2177.13337	0.93940
2175.20499	0.93906
2173.27662	0.93860
2171.34825	0.93812
2169.41987	0.93770
2167.49150	0.93728
2165.56313	0.93680
2163.63475	0.93632
2161.70638	0.93588
2159.77801	0.93547
2157.84963	0.93508
2155.92126	0.93478
2153.99289	0.93458
2152.06451	0.93430
2150.13614	0.93382
2148.20777	0.93328
2146.27940	0.93284
2144.35102	0.93255
2142.42265	0.93230
2140.49428	0.93197
2138.56590	0.93161
2136.63753	0.93129
2134.70916	0.93097
2132.78078	0.93061
2130.85241	0.93024
2128.92404	0.92986
2126.99566	0.92952
2125.06729	0.92922
2123.13892	0.92888
2121.21054	0.92859
2119.28217	0.92837
2117.35380	0.92802
2115.42542	0.92756
2113.49705	0.92716
2111.56868	0.92690
2109.64030	0.92676
2107.71193	0.92662
2105.78356	0.92641
2103.85518	0.92611
2101.92681	0.92582
2099.99844	0.92554
2098.07006	0.92517
2096.14169	0.92481
2094.21332	0.92458
2092.28494	0.92438
2090.35657	0.92408
2088.42820	0.92383
2086.49983	0.92371
2084.57145	0.92355
2082.64308	0.92327
2080.71471	0.92299
2078.78633	0.92271
2076.85796	0.92241
2074.92959	0.92211
2073.00121	0.92185
2071.07284	0.92173
2069.14447	0.92173
2067.21609	0.92172
2065.28772	0.92157
2063.35935	0.92130
2061.43097	0.92108
2059.50260	0.92098
2057.57423	0.92083
2055.64585	0.92061
2053.71748	0.92048
2051.78911	0.92044
2049.86073	0.92032
2047.93236	0.92012
2046.00399	0.91997
2044.07561	0.91983
2042.14724	0.91970
2040.21887	0.91956
2038.29049	0.91939
2036.36212	0.91926
2034.43375	0.91915
2032.50538	0.91900
2030.57700	0.91887
2028.64863	0.91881
2026.72026	0.91864
2024.79188	0.91834
2022.86351	0.91807
2020.93514	0.91798
2019.00676	0.91810
2017.07839	0.91823
2015.15002	0.91809
2013.22164	0.91779
2011.29327	0.91760
2009.36490	0.91757
2007.43652	0.91757
2005.50815	0.91752
2003.57978	0.91737
2001.65140	0.91725
1999.72303	0.91724
1997.79466	0.91716
1995.86628	0.91697
1993.93791	0.91681
1992.00954	0.91673
1990.08116	0.91663
1988.15279	0.91652
1986.22442	0.91646
1984.29604	0.91646
1982.36767	0.91639
1980.43930	0.91617
1978.51092	0.91595
1976.58255	0.91582
1974.65418	0.91577
1972.72581	0.91576
1970.79743	0.91573
1968.86906	0.91573
1966.94069	0.91581
1965.01231	0.91581
1963.08394	0.91570
1961.15557	0.91561
1959.22719	0.91558
1957.29882	0.91550
1955.37045	0.91542
1953.44207	0.91545
1951.51370	0.91552
1949.58533	0.91556
1947.65695	0.91561
1945.72858	0.91568
1943.80021	0.91578
1941.87183	0.91590
1939.94346	0.91592
1938.01509	0.91580
1936.08671	0.91559
1934.15834	0.91539
1932.22997	0.91537
1930.30159	0.91553
1928.37322	0.91561
1926.44485	0.91558
1924.51647	0.91565
1922.58810	0.91580
1920.65973	0.91582
1918.73135	0.91571
1916.80298	0.91554
1914.87461	0.91528
1912.94624	0.91519
1911.01786	0.91539
1909.08949	0.91557
1907.16112	0.91554
1905.23274	0.91549
1903.30437	0.91553
1901.37600	0.91551
1899.44762	0.91537
1897.51925	0.91525
1895.59088	0.91527
1893.66250	0.91534
1891.73413	0.91537
1889.80576	0.91536
1887.87738	0.91530
1885.94901	0.91525
1884.02064	0.91538
1882.09226	0.91568
1880.16389	0.91596
1878.23552	0.91620
1876.30714	0.91631
1874.37877	0.91640
1872.45040	0.91666
1870.52202	0.91716
1868.59365	0.91768
1866.66528	0.91786
1864.73690	0.91778
1862.80853	0.91770
1860.88016	0.91775
1858.95179	0.91790
1857.02341	0.91807
1855.09504	0.91822
1853.16667	0.91834
1851.23829	0.91856
1849.30992	0.91888
1847.38155	0.91924
1845.45317	0.91970
1843.52480	0.91994
1841.59643	0.91972
1839.66805	0.91949
1837.73968	0.91954
1835.81131	0.91965
1833.88293	0.91981
1831.95456	0.92023
1830.02619	0.92086
1828.09781	0.92123
1826.16944	0.92129
1824.24107	0.92125
1822.31269	0.92119
1820.38432	0.92123
1818.45595	0.92130
1816.52757	0.92140
1814.59920	0.92153
1812.67083	0.92161
1810.74245	0.92172
1808.81408	0.92181
1806.88571	0.92180
1804.95733	0.92172
1803.02896	0.92166
1801.10059	0.92168
1799.17222	0.92159
1797.24384	0.92123
1795.31547	0.92088
1793.38710	0.92085
1791.45872	0.92053
1789.53035	0.91954
1787.60198	0.91848
1785.67360	0.91763
1783.74523	0.91681
1781.81686	0.91596
1779.88848	0.91511
1777.96011	0.91414
1776.03174	0.91341
1774.10336	0.91307
1772.17499	0.91235
1770.24662	0.91054
1768.31824	0.90829
1766.38987	0.90634
1764.46150	0.90474
1762.53312	0.90312
1760.60475	0.90093
1758.67638	0.89843
1756.74800	0.89574
1754.81963	0.89266
1752.89126	0.88943
1750.96288	0.88547
1749.03451	0.88032
1747.10614	0.87438
1745.17777	0.86797
1743.24939	0.86140
1741.32102	0.85470
1739.39265	0.84768
1737.46427	0.84148
1735.53590	0.83655
1733.60753	0.83041
1731.67915	0.82326
1729.75078	0.81691
1727.82241	0.81064
1725.89403	0.80432
1723.96566	0.79760
1722.03729	0.79097
1720.10891	0.78462
1718.18054	0.77631
1716.25217	0.76367
1714.32379	0.74887
1712.39542	0.73369
1710.46705	0.71696
1708.53867	0.69788
1706.61030	0.67376
1704.68193	0.64539
1702.75355	0.61786
1700.82518	0.58366
1698.89681	0.54145
1696.96843	0.50332
1695.04006	0.46362
1693.11169	0.42733
1691.18331	0.39697
1689.25494	0.36620
1687.32657	0.33854
1685.39820	0.31183
1683.46982	0.28058
1681.54145	0.25554
1679.61308	0.23777
1677.68470	0.22162
1675.75633	0.20438
1673.82796	0.18703
1671.89958	0.17242
1669.97121	0.15772
1668.04284	0.14197
1666.11446	0.12916
1664.18609	0.11737
1662.25772	0.10406
1660.32934	0.09156
1658.40097	0.08177
1656.47260	0.07473
1654.54422	0.06985
1652.61585	0.06718
1650.68748	0.06769
1648.75910	0.07138
1646.83073	0.07922
1644.90236	0.08904
1642.97398	0.09735
1641.04561	0.10462
1639.11724	0.11116
1637.18886	0.11709
1635.26049	0.12333
1633.33212	0.12913
1631.40375	0.13479
1629.47537	0.14315
1627.54700	0.15576
1625.61863	0.17229
1623.69025	0.19376
1621.76188	0.21845
1619.83351	0.24094
1617.90513	0.26425
1615.97676	0.29157
1614.04839	0.31488
1612.12001	0.33374
1610.19164	0.35235
1608.26327	0.37038
1606.33489	0.38636
1604.40652	0.40010
1602.47815	0.41188
1600.54977	0.42148
1598.62140	0.42917
1596.69303	0.43568
1594.76465	0.44175
1592.83628	0.44741
1590.90791	0.45235
1588.97953	0.45628
1587.05116	0.45874
1585.12279	0.45958
1583.19441	0.45867
1581.26604	0.45617
1579.33767	0.45241
1577.40929	0.44660
1575.48092	0.43702
1573.55255	0.42658
1571.62418	0.41632
1569.69580	0.40227
1567.76743	0.38534
1565.83906	0.36842
1563.91068	0.35111
1561.98231	0.33510
1560.05394	0.31566
1558.12556	0.28637
1556.19719	0.26440
1554.26882	0.25066
1552.34044	0.23950
1550.41207	0.23156
1548.48370	0.22702
1546.55532	0.22558
1544.62695	0.22668
1542.69858	0.22990
1540.77020	0.23574
1538.84183	0.24341
1536.91346	0.24947
1534.98508	0.25561
1533.05671	0.26410
1531.12834	0.27302
1529.19996	0.28112
1527.27159	0.28988
1525.34322	0.29868
1523.41484	0.30589
1521.48647	0.31179
1519.55810	0.31637
1517.62972	0.32177
1515.70135	0.33134
1513.77298	0.34540
1511.84461	0.36247
1509.91623	0.38050
1507.98786	0.40112
1506.05949	0.42715
1504.13111	0.44770
1502.20274	0.46229
1500.27437	0.47752
1498.34599	0.49485
1496.41762	0.51306
1494.48925	0.52891
1492.56087	0.54170
1490.63250	0.55414
1488.70413	0.56613
1486.77575	0.57487
1484.84738	0.58018
1482.91901	0.58262
1480.99063	0.58214
1479.06226	0.57824
1477.13389	0.57002
1475.20551	0.55710
1473.27714	0.54111
1471.34877	0.52657
1469.42039	0.51643
1467.49202	0.50782
1465.56365	0.49701
1463.63527	0.48464
1461.70690	0.47556
1459.77853	0.46986
1457.85016	0.46288
1455.92178	0.45342
1453.99341	0.44761
1452.06504	0.44635
1450.13666	0.44807
1448.20829	0.45213
1446.27992	0.45806
1444.35154	0.46549
1442.42317	0.47456
1440.49480	0.48463
1438.56642	0.49563
1436.63805	0.50891
1434.70968	0.52164
1432.78130	0.53115
1430.85293	0.53927
1428.92456	0.54620
1426.99618	0.55085
1425.06781	0.55347
1423.13944	0.55466
1421.21106	0.55484
1419.28269	0.55413
1417.35432	0.55286
1415.42594	0.55199
1413.49757	0.55182
1411.56920	0.55241
1409.64082	0.55373
1407.71245	0.55552
1405.78408	0.55772
1403.85570	0.56005
1401.92733	0.56204
1399.99896	0.56347
1398.07059	0.56397
1396.14221	0.56312
1394.21384	0.56085
1392.28547	0.55801
1390.35709	0.55564
1388.42872	0.55413
1386.50035	0.55395
1384.57197	0.55524
1382.64360	0.55766
1380.71523	0.56112
1378.78685	0.56543
1376.85848	0.56998
1374.93011	0.57424
1373.00173	0.57781
1371.07336	0.58102
1369.14499	0.58509
1367.21661	0.59063
1365.28824	0.59703
1363.35987	0.60358
1361.43149	0.60909
1359.50312	0.61276
1357.57475	0.61528
1355.64637	0.61710
1353.71800	0.61810
1351.78963	0.61845
1349.86125	0.61813
1347.93288	0.61683
1346.00451	0.61469
1344.07614	0.61219
1342.14776	0.60965
1340.21939	0.60716
1338.29102	0.60501
1336.36264	0.60328
1334.43427	0.60178
1332.50590	0.60074
1330.57752	0.60044
1328.64915	0.60100
1326.72078	0.60219
1324.79240	0.60338
1322.86403	0.60412
1320.93566	0.60419
1319.00728	0.60337
1317.07891	0.60168
1315.15054	0.59947
1313.22216	0.59694
1311.29379	0.59417
1309.36542	0.59154
1307.43704	0.58972
1305.50867	0.58908
1303.58030	0.58961
1301.65192	0.59123
1299.72355	0.59360
1297.79518	0.59599
1295.86680	0.59770
1293.93843	0.59845
1292.01006	0.59810
1290.08168	0.59675
1288.15331	0.59511
1286.22494	0.59388
1284.29657	0.59311
1282.36819	0.59269
1280.43982	0.59259
1278.51145	0.59270
1276.58307	0.59301
1274.65470	0.59348
1272.72633	0.59379
1270.79795	0.59366
1268.86958	0.59338
1266.94121	0.59343
1265.01283	0.59367
1263.08446	0.59398
1261.15609	0.59453
1259.22771	0.59469
1257.29934	0.59370
1255.37097	0.59159
1253.44259	0.58890
1251.51422	0.58604
1249.58585	0.58283
1247.65747	0.57928
1245.72910	0.57578
1243.80073	0.57259
1241.87235	0.57021
1239.94398	0.56912
1238.01561	0.56935
1236.08723	0.57087
1234.15886	0.57402
1232.23049	0.57905
1230.30212	0.58575
1228.37374	0.59371
1226.44537	0.60269
1224.51700	0.61267
1222.58862	0.62340
1220.66025	0.63428
1218.73188	0.64459
1216.80350	0.65357
1214.87513	0.66081
1212.94676	0.66634
1211.01838	0.67047
1209.09001	0.67381
1207.16164	0.67713
1205.23326	0.68080
1203.30489	0.68469
1201.37652	0.68883
1199.44814	0.69368
1197.51977	0.69968
1195.59140	0.70679
1193.66302	0.71463
1191.73465	0.72244
1189.80628	0.72937
1187.87790	0.73518
1185.94953	0.73989
1184.02116	0.74341
1182.09278	0.74571
1180.16441	0.74677
1178.23604	0.74645
1176.30766	0.74474
1174.37929	0.74184
1172.45092	0.73852
1170.52255	0.73590
1168.59417	0.73404
1166.66580	0.73269
1164.73743	0.73266
1162.80905	0.73441
1160.88068	0.73734
1158.95231	0.74107
1157.02393	0.74554
1155.09556	0.75038
1153.16719	0.75533
1151.23881	0.76075
1149.31044	0.76662
1147.38207	0.77225
1145.45369	0.77723
1143.52532	0.78143
1141.59695	0.78432
1139.66857	0.78549
1137.74020	0.78523
1135.81183	0.78423
1133.88345	0.78260
1131.95508	0.77985
1130.02671	0.77626
1128.09833	0.77297
1126.16996	0.77090
1124.24159	0.76982
1122.31321	0.76920
1120.38484	0.76934
1118.45647	0.77023
1116.52809	0.77085
1114.59972	0.77075
1112.67135	0.77021
1110.74298	0.76958
1108.81460	0.76888
1106.88623	0.76779
1104.95786	0.76642
1103.02948	0.76531
1101.10111	0.76471
1099.17274	0.76453
1097.24436	0.76446
1095.31599	0.76407
1093.38762	0.76316
1091.45924	0.76163
1089.53087	0.75912
1087.60250	0.75539
1085.67412	0.75098
1083.74575	0.74663
1081.81738	0.74281
1079.88900	0.74032
1077.96063	0.74002
1076.03226	0.74184
1074.10388	0.74512
1072.17551	0.74944
1070.24714	0.75410
1068.31876	0.75810
1066.39039	0.76077
1064.46202	0.76211
1062.53364	0.76249
1060.60527	0.76220
1058.67690	0.76137
1056.74853	0.76024
1054.82015	0.75908
1052.89178	0.75823
1050.96341	0.75797
1049.03503	0.75802
1047.10666	0.75765
1045.17829	0.75663
1043.24991	0.75545
1041.32154	0.75438
1039.39317	0.75330
1037.46479	0.75219
1035.53642	0.75100
1033.60805	0.74971
1031.67967	0.74875
1029.75130	0.74911
1027.82293	0.75139
1025.89455	0.75495
1023.96618	0.75860
1022.03781	0.76212
1020.10943	0.76625
1018.18106	0.77125
1016.25269	0.77643
1014.32431	0.78140
1012.39594	0.78654
1010.46757	0.79210
1008.53919	0.79767
1006.61082	0.80265
1004.68245	0.80702
1002.75407	0.81096
1000.82570	0.81424
998.89733	0.81658
996.96896	0.81837
995.04058	0.82046
993.11221	0.82318
991.18384	0.82600
989.25546	0.82848
987.32709	0.83067
985.39872	0.83262
983.47034	0.83437
981.54197	0.83610
979.61360	0.83793
977.68522	0.84018
975.75685	0.84291
973.82848	0.84581
971.90010	0.84860
969.97173	0.85109
968.04336	0.85353
966.11498	0.85569
964.18661	0.85675
962.25824	0.85680
960.32986	0.85663
958.40149	0.85650
956.47312	0.85610
954.54474	0.85559
952.61637	0.85566
950.68800	0.85627
948.75962	0.85665
946.83125	0.85665
944.90288	0.85636
942.97451	0.85582
941.04613	0.85532
939.11776	0.85477
937.18939	0.85389
935.26101	0.85292
933.33264	0.85224
931.40427	0.85186
929.47589	0.85151
927.54752	0.85139
925.61915	0.85163
923.69077	0.85175
921.76240	0.85190
919.83403	0.85254
917.90565	0.85332
915.97728	0.85400
914.04891	0.85461
912.12053	0.85484
910.19216	0.85439
908.26379	0.85353
906.33541	0.85250
904.40704	0.85145
902.47867	0.85078
900.55029	0.85054
898.62192	0.85053
896.69355	0.85053
894.76517	0.85019
892.83680	0.84951
890.90843	0.84873
888.98005	0.84784
887.05168	0.84676
885.12331	0.84555
883.19494	0.84447
881.26656	0.84352
879.33819	0.84235
877.40982	0.84085
875.48144	0.83937
873.55307	0.83823
871.62470	0.83738
869.69632	0.83692
867.76795	0.83702
865.83958	0.83713
863.91120	0.83647
861.98283	0.83510
860.05446	0.83345
858.12608	0.83169
856.19771	0.82980
854.26934	0.82798
852.34096	0.82648
850.41259	0.82521
848.48422	0.82416
846.55584	0.82322
844.62747	0.82212
842.69910	0.82039
840.77072	0.81774
838.84235	0.81484
836.91398	0.81247
834.98560	0.81043
833.05723	0.80831
831.12886	0.80626
829.20049	0.80444
827.27211	0.80299
825.34374	0.80222
823.41537	0.80213
821.48699	0.80231
819.55862	0.80187
817.63025	0.80044
815.70187	0.79880
813.77350	0.79765
811.84513	0.79680
809.91675	0.79552
807.98838	0.79363
806.06001	0.79181
804.13163	0.79048
802.20326	0.78940
800.27489	0.78776
798.34651	0.78506
796.41814	0.78204
794.48977	0.77922
792.56139	0.77647
790.63302	0.77370
788.70465	0.77069
786.77627	0.76754
784.84790	0.76493
782.91953	0.76296
780.99115	0.76106
779.06278	0.75897
777.13441	0.75701
775.20603	0.75520
773.27766	0.75313
771.34929	0.75086
769.42092	0.74866
767.49254	0.74642
765.56417	0.74432
763.63580	0.74267
761.70742	0.74117
759.77905	0.73935
757.85068	0.73718
755.92230	0.73517
753.99393	0.73356
752.06556	0.73195
750.13718	0.73015
748.20881	0.72849
746.28044	0.72700
744.35206	0.72547
742.42369	0.72390
740.49532	0.72226
738.56694	0.72030
736.63857	0.71794
734.71020	0.71496
732.78182	0.71111
730.85345	0.70736
728.92508	0.70522
726.99670	0.70390
725.06833	0.70120
723.13996	0.69639
721.21158	0.69068
719.28321	0.68673
717.35484	0.68586
715.42647	0.68545
713.49809	0.68295
711.56972	0.67904
709.64135	0.67533
707.71297	0.67268
705.78460	0.67058
703.85623	0.66776
701.92785	0.66431
699.99948	0.66176
698.07111	0.66101
696.14273	0.66091
694.21436	0.66014
692.28599	0.65881
690.35761	0.65707
688.42924	0.65523
686.50087	0.65403
684.57249	0.65303
682.64412	0.65158
680.71575	0.65015
678.78737	0.64799
676.85900	0.64428
674.93063	0.64069
673.00225	0.63936
671.07388	0.64082
669.14551	0.64243
667.21713	0.64062
665.28876	0.63920
663.36039	0.63920
661.43201	0.63969
659.50364	0.64086
657.57527	0.64038
655.64690	0.63926
653.71852	0.64159
651.79015	0.64460
649.86178	0.64354
647.93340	0.64014
646.00503	0.63933
644.07666	0.64202
642.14828	0.64493
640.21991	0.64616
638.29154	0.64559
636.36316	0.64258
634.43479	0.63955
632.50642	0.64065
630.57804	0.64468
628.64967	0.64801
626.72130	0.65156
624.79292	0.65607
622.86455	0.65826
620.93618	0.65739
619.00780	0.65748
617.07943	0.66197
615.15106	0.66709
613.22268	0.66545
611.29431	0.66001
609.36594	0.66031
607.43756	0.66521
605.50919	0.66865
603.58082	0.67223
601.65244	0.67830
599.72407	0.68406
