3997.51769	0.98567
3995.58931	0.98596
3993.66094	0.98634
3991.73257	0.98632
3989.80419	0.98613
3987.87582	0.98595
3985.94745	0.98589
3984.01907	0.98598
3982.09070	0.98603
3980.16233	0.98587
3978.23396	0.98573
3976.30558	0.98579
3974.37721	0.98579
3972.44884	0.98567
3970.52046	0.98579
3968.59209	0.98619
3966.66372	0.98659
3964.73534	0.98684
3962.80697	0.98670
3960.87860	0.98602
3958.95022	0.98545
3957.02185	0.98553
3955.09348	0.98591
3953.16510	0.98621
3951.23673	0.98651
3949.30836	0.98693
3947.37998	0.98722
3945.45161	0.98730
3943.52324	0.98754
3941.59486	0.98749
3939.66649	0.98674
3937.73812	0.98596
3935.80974	0.98584
3933.88137	0.98665
3931.95300	0.98764
3930.02462	0.98746
3928.09625	0.98682
3926.16788	0.98717
3924.23950	0.98782
3922.31113	0.98800
3920.38276	0.98857
3918.45439	0.98964
3916.52601	0.98996
3914.59764	0.98911
3912.66927	0.98804
3910.74089	0.98750
3908.81252	0.98781
3906.88415	0.98967
3904.95577	0.99311
3903.02740	0.99622
3901.09903	0.99693
3899.17065	0.99522
3897.24228	0.99257
3895.31391	0.99102
3893.38553	0.99171
3891.45716	0.99331
3889.52879	0.99342
3887.60041	0.99351
3885.67204	0.99478
3883.74367	0.99508
3881.81529	0.99480
3879.88692	0.99473
3877.95855	0.99357
3876.03017	0.99309
3874.10180	0.99433
3872.17343	0.99624
3870.24505	0.99833
3868.31668	0.99868
3866.38831	0.99773
3864.45994	0.99769
3862.53156	0.99724
3860.60319	0.99584
3858.67482	0.99530
3856.74644	0.99773
3854.81807	1.00487
3852.88970	1.01016
3850.96132	1.00457
3849.03295	0.99742
3847.10458	0.99444
3845.17620	0.99527
3843.24783	0.99779
3841.31946	1.00004
3839.39108	1.00256
3837.46271	1.00429
3835.53434	1.00269
3833.60596	0.99982
3831.67759	0.99770
3829.74922	0.99629
3827.82084	0.99590
3825.89247	0.99654
3823.96410	0.99842
3822.03572	1.00200
3820.10735	1.00400
3818.17898	1.00320
3816.25060	1.00264
3814.32223	1.00065
3812.39386	0.99753
3810.46548	0.99657
3808.53711	0.99822
3806.60874	1.00024
3804.68037	1.00089
3802.75199	1.00240
3800.82362	1.00375
3798.89525	1.00188
3796.96687	0.99972
3795.03850	0.99843
3793.11013	0.99714
3791.18175	0.99645
3789.25338	0.99653
3787.32501	0.99690
3785.39663	0.99736
3783.46826	0.99772
3781.53989	0.99817
3779.61151	0.99870
3777.68314	0.99833
3775.75477	0.99728
3773.82639	0.99708
3771.89802	0.99848
3769.96965	1.00041
3768.04127	1.00083
3766.11290	1.00017
3764.18453	0.99953
3762.25615	0.99934
3760.32778	1.00038
3758.39941	1.00133
3756.47103	1.00086
3754.54266	1.00157
3752.61429	1.00596
3750.68591	1.01110
3748.75754	1.01097
3746.82917	1.00962
3744.90080	1.01072
3742.97242	1.00869
3741.04405	1.00357
3739.11568	1.00171
3737.18730	1.00412
3735.25893	1.00748
3733.33056	1.00754
3731.40218	1.00416
3729.47381	1.00060
3727.54544	0.99909
3725.61706	0.99944
3723.68869	1.00013
3721.76032	1.00008
3719.83194	0.99898
3717.90357	0.99741
3715.97520	0.99664
3714.04682	0.99771
3712.11845	1.00005
3710.19008	1.00010
3708.26170	0.99684
3706.33333	0.99347
3704.40496	0.99181
3702.47658	0.99135
3700.54821	0.99016
3698.61984	0.98804
3696.69146	0.98625
3694.76309	0.98522
3692.83472	0.98542
3690.90635	0.98714
3688.97797	0.98788
3687.04960	0.98435
3685.12123	0.97916
3683.19285	0.97547
3681.26448	0.97355
3679.33611	0.97298
3677.40773	0.97400
3675.47936	0.97446
3673.55099	0.97063
3671.62261	0.96652
3669.69424	0.96322
3667.76587	0.95720
3665.83749	0.95039
3663.90912	0.94530
3661.98075	0.94141
3660.05237	0.93806
3658.12400	0.93534
3656.19563	0.93203
3654.26725	0.92734
3652.33888	0.92381
3650.41051	0.92224
3648.48213	0.91883
3646.55376	0.91118
3644.62539	0.90307
3642.69701	0.89660
3640.76864	0.89121
3638.84027	0.88622
3636.91189	0.88150
3634.98352	0.87680
3633.05515	0.87245
3631.12678	0.86967
3629.19840	0.86650
3627.27003	0.85882
3625.34166	0.85005
3623.41328	0.84353
3621.48491	0.83876
3619.55654	0.83430
3617.62816	0.82893
3615.69979	0.82340
3613.77142	0.81830
3611.84304	0.81298
3609.91467	0.80733
3607.98630	0.80118
3606.05792	0.79445
3604.12955	0.78812
3602.20118	0.78256
3600.27280	0.77732
3598.34443	0.77215
3596.41606	0.76701
3594.48768	0.76143
3592.55931	0.75538
3590.63094	0.74998
3588.70256	0.74516
3586.77419	0.73926
3584.84582	0.73227
3582.91744	0.72560
3580.98907	0.71941
3579.06070	0.71327
3577.13233	0.70729
3575.20395	0.70147
3573.27558	0.69566
3571.34721	0.69011
3569.41883	0.68504
3567.49046	0.67950
3565.56209	0.67252
3563.63371	0.66551
3561.70534	0.65928
3559.77697	0.65332
3557.84859	0.64740
3555.92022	0.64173
3553.99185	0.63630
3552.06347	0.63069
3550.13510	0.62505
3548.20673	0.61971
3546.27835	0.61443
3544.34998	0.60876
3542.42161	0.60304
3540.49323	0.59785
3538.56486	0.59308
3536.63649	0.58826
3534.70811	0.58326
3532.77974	0.57835
3530.85137	0.57352
3528.92299	0.56874
3526.99462	0.56406
3525.06625	0.55939
3523.13787	0.55466
3521.20950	0.54971
3519.28113	0.54475
3517.35276	0.54001
3515.42438	0.53545
3513.49601	0.53118
3511.56764	0.52712
3509.63926	0.52300
3507.71089	0.51876
3505.78252	0.51471
3503.85414	0.51064
3501.92577	0.50614
3499.99740	0.50166
3498.06902	0.49766
3496.14065	0.49385
3494.21228	0.49006
3492.28390	0.48665
3490.35553	0.48348
3488.42716	0.48011
3486.49878	0.47664
3484.57041	0.47339
3482.64204	0.47043
3480.71366	0.46758
3478.78529	0.46456
3476.85692	0.46145
3474.92854	0.45862
3473.00017	0.45589
3471.07180	0.45288
3469.14342	0.44978
3467.21505	0.44672
3465.28668	0.44376
3463.35831	0.44093
3461.42993	0.43800
3459.50156	0.43517
3457.57319	0.43278
3455.64481	0.43045
3453.71644	0.42782
3451.78807	0.42492
3449.85969	0.42182
3447.93132	0.41872
3446.00295	0.41589
3444.07457	0.41340
3442.14620	0.41093
3440.21783	0.40812
3438.28945	0.40515
3436.36108	0.40233
3434.43271	0.39979
3432.50433	0.39748
3430.57596	0.39501
3428.64759	0.39214
3426.71921	0.38920
3424.79084	0.38649
3422.86247	0.38387
3420.93409	0.38124
3419.00572	0.37863
3417.07735	0.37607
3415.14897	0.37346
3413.22060	0.37072
3411.29223	0.36813
3409.36385	0.36583
3407.43548	0.36365
3405.50711	0.36132
3403.57874	0.35878
3401.65036	0.35621
3399.72199	0.35378
3397.79362	0.35130
3395.86524	0.34872
3393.93687	0.34635
3392.00850	0.34398
3390.08012	0.34125
3388.15175	0.33829
3386.22338	0.33531
3384.29500	0.33238
3382.36663	0.32943
3380.43826	0.32633
3378.50988	0.32313
3376.58151	0.31996
3374.65314	0.31666
3372.72476	0.31292
3370.79639	0.30888
3368.86802	0.30478
3366.93964	0.30083
3365.01127	0.29704
3363.08290	0.29309
3361.15452	0.28895
3359.22615	0.28483
3357.29778	0.28062
3355.36940	0.27607
3353.44103	0.27125
3351.51266	0.26645
3349.58428	0.26188
3347.65591	0.25747
3345.72754	0.25283
3343.79917	0.24801
3341.87079	0.24338
3339.94242	0.23878
3338.01405	0.23386
3336.08567	0.22887
3334.15730	0.22406
3332.22893	0.21929
3330.30055	0.21452
3328.37218	0.20972
3326.44381	0.20479
3324.51543	0.19986
3322.58706	0.19506
3320.65869	0.19053
3318.73031	0.18641
3316.80194	0.18240
3314.87357	0.17831
3312.94519	0.17444
3311.01682	0.17093
3309.08845	0.16764
3307.16007	0.16442
3305.23170	0.16144
3303.30333	0.15900
3301.37495	0.15697
3299.44658	0.15506
3297.51821	0.15351
3295.58983	0.15250
3293.66146	0.15184
3291.73309	0.15159
3289.80472	0.15186
3287.87634	0.15238
3285.94797	0.15303
3284.01960	0.15412
3282.09122	0.15581
3280.16285	0.15800
3278.23448	0.16073
3276.30610	0.16408
3274.37773	0.16798
3272.44936	0.17225
3270.52098	0.17680
3268.59261	0.18177
3266.66424	0.18740
3264.73586	0.19363
3262.80749	0.20016
3260.87912	0.20700
3258.95074	0.21442
3257.02237	0.22232
3255.09400	0.23025
3253.16562	0.23809
3251.23725	0.24600
3249.30888	0.25398
3247.38050	0.26185
3245.45213	0.26965
3243.52376	0.27718
3241.59538	0.28412
3239.66701	0.29060
3237.73864	0.29684
3235.81026	0.30264
3233.88189	0.30804
3231.95352	0.31320
3230.02515	0.31807
3228.09677	0.32256
3226.16840	0.32681
3224.24003	0.33099
3222.31165	0.33518
3220.38328	0.33922
3218.45491	0.34292
3216.52653	0.34659
3214.59816	0.35048
3212.66979	0.35426
3210.74141	0.35784
3208.81304	0.36170
3206.88467	0.36589
3204.95629	0.37014
3203.02792	0.37444
3201.09955	0.37900
3199.17117	0.38384
3197.24280	0.38848
3195.31443	0.39275
3193.38605	0.39717
3191.45768	0.40193
3189.52931	0.40681
3187.60093	0.41173
3185.67256	0.41665
3183.74419	0.42172
3181.81581	0.42708
3179.88744	0.43253
3177.95907	0.43780
3176.03070	0.44269
3174.10232	0.44739
3172.17395	0.45239
3170.24558	0.45762
3168.31720	0.46275
3166.38883	0.46779
3164.46046	0.47266
3162.53208	0.47725
3160.60371	0.48157
3158.67534	0.48561
3156.74696	0.48955
3154.81859	0.49368
3152.89022	0.49785
3150.96184	0.50175
3149.03347	0.50533
3147.10510	0.50876
3145.17672	0.51221
3143.24835	0.51537
3141.31998	0.51795
3139.39160	0.52041
3137.46323	0.52311
3135.53486	0.52566
3133.60648	0.52788
3131.67811	0.52996
3129.74974	0.53187
3127.82136	0.53345
3125.89299	0.53481
3123.96462	0.53608
3122.03624	0.53716
3120.10787	0.53782
3118.17950	0.53801
3116.25113	0.53810
3114.32275	0.53830
3112.39438	0.53825
3110.46601	0.53769
3108.53763	0.53690
3106.60926	0.53612
3104.68089	0.53537
3102.75251	0.53454
3100.82414	0.53337
3098.89577	0.53186
3096.96739	0.53037
3095.03902	0.52893
3093.11065	0.52727
3091.18227	0.52527
3089.25390	0.52322
3087.32553	0.52142
3085.39715	0.51988
3083.46878	0.51865
3081.54041	0.51781
3079.61203	0.51725
3077.68366	0.51697
3075.75529	0.51707
3073.82691	0.51744
3071.89854	0.51805
3069.97017	0.51917
3068.04179	0.52076
3066.11342	0.52239
3064.18505	0.52408
3062.25668	0.52639
3060.32830	0.52963
3058.39993	0.53343
3056.47156	0.53738
3054.54318	0.54141
3052.61481	0.54562
3050.68644	0.55001
3048.75806	0.55445
3046.82969	0.55877
3044.90132	0.56305
3042.97294	0.56741
3041.04457	0.57201
3039.11620	0.57674
3037.18782	0.58111
3035.25945	0.58506
3033.33108	0.58897
3031.40270	0.59289
3029.47433	0.59663
3027.54596	0.60023
3025.61758	0.60382
3023.68921	0.60744
3021.76084	0.61101
3019.83246	0.61437
3017.90409	0.61734
3015.97572	0.61977
3014.04734	0.62163
3012.11897	0.62297
3010.19060	0.62382
3008.26222	0.62418
3006.33385	0.62417
3004.40548	0.62378
3002.47711	0.62276
3000.54873	0.62098
2998.62036	0.61848
2996.69199	0.61507
2994.76361	0.61049
2992.83524	0.60483
2990.90687	0.59818
2988.97849	0.59042
2987.05012	0.58180
2985.12175	0.57267
2983.19337	0.56302
2981.26500	0.55305
2979.33663	0.54325
2977.40825	0.53373
2975.47988	0.52417
2973.55151	0.51427
2971.62313	0.50419
2969.69476	0.49443
2967.76639	0.48549
2965.83801	0.47765
2963.90964	0.47127
2961.98127	0.46703
2960.05289	0.46574
2958.12452	0.46782
2956.19615	0.47322
2954.26777	0.48145
2952.33940	0.49141
2950.41103	0.50080
2948.48266	0.50712
2946.55428	0.50918
2944.62591	0.50699
2942.69754	0.50110
2940.76916	0.49262
2938.84079	0.48296
2936.91242	0.47323
2934.98404	0.46394
2933.05567	0.45498
2931.12730	0.44598
2929.19892	0.43661
2927.27055	0.42655
2925.34218	0.41539
2923.41380	0.40291
2921.48543	0.38962
2919.55706	0.37802
2917.62868	0.37398
2915.70031	0.38531
2913.77194	0.41384
2911.84356	0.45035
2909.91519	0.48304
2907.98682	0.50737
2906.05844	0.52463
2904.13007	0.53697
2902.20170	0.54607
2900.27332	0.55343
2898.34495	0.55998
2896.41658	0.56605
2894.48820	0.57159
2892.55983	0.57648
2890.63146	0.58063
2888.70309	0.58389
2886.77471	0.58611
2884.84634	0.58712
2882.91797	0.58681
2880.98959	0.58537
2879.06122	0.58346
2877.13285	0.58206
2875.20447	0.58238
2873.27610	0.58562
2871.34773	0.59235
2869.41935	0.60172
2867.49098	0.61155
2865.56261	0.61938
2863.63423	0.62334
2861.70586	0.62243
2859.77749	0.61655
2857.84911	0.60626
2855.92074	0.59143
2853.99237	0.57039
2852.06399	0.54314
2850.13562	0.52029
2848.20725	0.52242
2846.27887	0.55663
2844.35050	0.60434
2842.42213	0.64415
2840.49375	0.67035
2838.56538	0.68675
2836.63701	0.69775
2834.70863	0.70588
2832.78026	0.71217
2830.85189	0.71717
2828.92352	0.72129
2826.99514	0.72482
2825.06677	0.72800
2823.13840	0.73086
2821.21002	0.73333
2819.28165	0.73552
2817.35328	0.73775
2815.42490	0.74017
2813.49653	0.74263
2811.56816	0.74494
2809.63978	0.74717
2807.71141	0.74944
2805.78304	0.75180
2803.85466	0.75411
2801.92629	0.75617
2799.99792	0.75803
2798.06954	0.75995
2796.14117	0.76202
2794.21280	0.76411
2792.28442	0.76623
2790.35605	0.76839
2788.42768	0.77043
2786.49930	0.77238
2784.57093	0.77427
2782.64256	0.77597
2780.71418	0.77761
2778.78581	0.77939
2776.85744	0.78124
2774.92907	0.78300
2773.00069	0.78467
2771.07232	0.78627
2769.14395	0.78791
2767.21557	0.78969
2765.28720	0.79147
2763.35883	0.79311
2761.43045	0.79474
2759.50208	0.79637
2757.57371	0.79786
2755.64533	0.79936
2753.71696	0.80091
2751.78859	0.80237
2749.86021	0.80377
2747.93184	0.80510
2746.00347	0.80621
2744.07509	0.80716
2742.14672	0.80823
2740.21835	0.80962
2738.28997	0.81112
2736.36160	0.81254
2734.43323	0.81398
2732.50485	0.81540
2730.57648	0.81664
2728.64811	0.81785
2726.71973	0.81921
2724.79136	0.82078
2722.86299	0.82246
2720.93461	0.82403
2719.00624	0.82543
2717.07787	0.82676
2715.14950	0.82814
2713.22112	0.82952
2711.29275	0.83078
2709.36438	0.83201
2707.43600	0.83329
2705.50763	0.83446
2703.57926	0.83553
2701.65088	0.83662
2699.72251	0.83770
2697.79414	0.83865
2695.86576	0.83951
2693.93739	0.84037
2692.00902	0.84116
2690.08064	0.84182
2688.15227	0.84250
2686.22390	0.84340
2684.29552	0.84442
2682.36715	0.84531
2680.43878	0.84598
2678.51040	0.84655
2676.58203	0.84727
2674.65366	0.84825
2672.72528	0.84924
2670.79691	0.85001
2668.86854	0.85073
2666.94016	0.85149
2665.01179	0.85216
2663.08342	0.85289
2661.15505	0.85378
2659.22667	0.85455
2657.29830	0.85513
2655.36993	0.85563
2653.44155	0.85619
2651.51318	0.85687
2649.58481	0.85755
2647.65643	0.85827
2645.72806	0.85899
2643.79969	0.85952
2641.87131	0.85991
2639.94294	0.86032
2638.01457	0.86076
2636.08619	0.86124
2634.15782	0.86192
2632.22945	0.86271
2630.30107	0.86337
2628.37270	0.86395
2626.44433	0.86459
2624.51595	0.86520
2622.58758	0.86568
2620.65921	0.86620
2618.73083	0.86688
2616.80246	0.86770
2614.87409	0.86856
2612.94571	0.86938
2611.01734	0.87013
2609.08897	0.87081
2607.16059	0.87134
2605.23222	0.87181
2603.30385	0.87246
2601.37548	0.87327
2599.44710	0.87409
2597.51873	0.87487
2595.59036	0.87558
2593.66198	0.87633
2591.73361	0.87713
2589.80524	0.87784
2587.87686	0.87849
2585.94849	0.87925
2584.02012	0.88003
2582.09174	0.88070
2580.16337	0.88134
2578.23500	0.88198
2576.30662	0.88255
2574.37825	0.88318
2572.44988	0.88404
2570.52150	0.88495
2568.59313	0.88567
2566.66476	0.88624
2564.73638	0.88683
2562.80801	0.88753
2560.87964	0.88833
2558.95126	0.88912
2557.02289	0.88978
2555.09452	0.89024
2553.16614	0.89075
2551.23777	0.89140
2549.30940	0.89208
2547.38103	0.89284
2545.45265	0.89366
2543.52428	0.89418
2541.59591	0.89440
2539.66753	0.89477
2537.73916	0.89538
2535.81079	0.89603
2533.88241	0.89651
2531.95404	0.89673
2530.02567	0.89700
2528.09729	0.89744
2526.16892	0.89779
2524.24055	0.89807
2522.31217	0.89851
2520.38380	0.89900
2518.45543	0.89935
2516.52705	0.89969
2514.59868	0.90004
2512.67031	0.90019
2510.74193	0.90024
2508.81356	0.90048
2506.88519	0.90094
2504.95681	0.90130
2503.02844	0.90147
2501.10007	0.90169
2499.17169	0.90195
2497.24332	0.90216
2495.31495	0.90251
2493.38657	0.90309
2491.45820	0.90360
2489.52983	0.90387
2487.60146	0.90409
2485.67308	0.90436
2483.74471	0.90464
2481.81634	0.90501
2479.88796	0.90547
2477.95959	0.90583
2476.03122	0.90603
2474.10284	0.90629
2472.17447	0.90671
2470.24610	0.90710
2468.31772	0.90735
2466.38935	0.90763
2464.46098	0.90800
2462.53260	0.90833
2460.60423	0.90858
2458.67586	0.90878
2456.74748	0.90895
2454.81911	0.90917
2452.89074	0.90954
2450.96236	0.90998
2449.03399	0.91028
2447.10562	0.91039
2445.17724	0.91048
2443.24887	0.91068
2441.32050	0.91101
2439.39212	0.91135
2437.46375	0.91152
2435.53538	0.91171
2433.60700	0.91209
2431.67863	0.91251
2429.75026	0.91279
2427.82189	0.91286
2425.89351	0.91287
2423.96514	0.91303
2422.03677	0.91328
2420.10839	0.91351
2418.18002	0.91368
2416.25165	0.91382
2414.32327	0.91404
2412.39490	0.91433
2410.46653	0.91457
2408.53815	0.91484
2406.60978	0.91520
2404.68141	0.91551
2402.75303	0.91560
2400.82466	0.91554
2398.89629	0.91550
2396.96791	0.91565
2395.03954	0.91598
2393.11117	0.91629
2391.18279	0.91635
2389.25442	0.91622
2387.32605	0.91595
2385.39767	0.91542
2383.46930	0.91460
2381.54093	0.91357
2379.61255	0.91237
2377.68418	0.91120
2375.75581	0.91025
2373.82744	0.90942
2371.89906	0.90850
2369.97069	0.90781
2368.04232	0.90784
2366.11394	0.90829
2364.18557	0.90865
2362.25720	0.90914
2360.32882	0.91010
2358.40045	0.91069
2356.47208	0.90990
2354.54370	0.90853
2352.61533	0.90770
2350.68696	0.90745
2348.75858	0.90730
2346.83021	0.90706
2344.90184	0.90684
2342.97346	0.90678
2341.04509	0.90685
2339.11672	0.90719
2337.18834	0.90765
2335.25997	0.90767
2333.33160	0.90741
2331.40322	0.90733
2329.47485	0.90730
2327.54648	0.90707
2325.61810	0.90684
2323.68973	0.90695
2321.76136	0.90749
2319.83298	0.90824
2317.90461	0.90892
2315.97624	0.90932
2314.04787	0.90955
2312.11949	0.90983
2310.19112	0.91018
2308.26275	0.91062
2306.33437	0.91129
2304.40600	0.91209
2302.47763	0.91265
2300.54925	0.91294
2298.62088	0.91326
2296.69251	0.91359
2294.76413	0.91390
2292.83576	0.91436
2290.90739	0.91480
2288.97901	0.91503
2287.05064	0.91519
2285.12227	0.91537
2283.19389	0.91551
2281.26552	0.91549
2279.33715	0.91524
2277.40877	0.91494
2275.48040	0.91486
2273.55203	0.91488
2271.62365	0.91480
2269.69528	0.91470
2267.76691	0.91471
2265.83853	0.91478
2263.91016	0.91488
2261.98179	0.91500
2260.05342	0.91511
2258.12504	0.91516
2256.19667	0.91508
2254.26830	0.91499
2252.33992	0.91500
2250.41155	0.91491
2248.48318	0.91467
2246.55480	0.91452
2244.62643	0.91453
2242.69806	0.91448
2240.76968	0.91430
2238.84131	0.91417
2236.91294	0.91412
2234.98456	0.91404
2233.05619	0.91394
2231.12782	0.91389
2229.19944	0.91388
2227.27107	0.91385
2225.34270	0.91372
2223.41432	0.91353
2221.48595	0.91338
2219.55758	0.91331
2217.62920	0.91321
2215.70083	0.91303
2213.77246	0.91286
2211.84408	0.91278
2209.91571	0.91266
2207.98734	0.91251
2206.05896	0.91244
2204.13059	0.91245
2202.20222	0.91243
2200.27385	0.91240
2198.34547	0.91239
2196.41710	0.91231
2194.48873	0.91222
2192.56035	0.91223
2190.63198	0.91225
2188.70361	0.91216
2186.77523	0.91208
2184.84686	0.91208
2182.91849	0.91214
2180.99011	0.91221
2179.06174	0.91227
2177.13337	0.91232
2175.20499	0.91235
2173.27662	0.91237
2171.34825	0.91242
2169.41987	0.91248
2167.49150	0.91247
2165.56313	0.91239
2163.63475	0.91234
2161.70638	0.91233
2159.77801	0.91230
2157.84963	0.91232
2155.92126	0.91247
2153.99289	0.91267
2152.06451	0.91280
2150.13614	0.91287
2148.20777	0.91288
2146.27940	0.91280
2144.35102	0.91268
2142.42265	0.91272
2140.49428	0.91299
2138.56590	0.91327
2136.63753	0.91347
2134.70916	0.91364
2132.78078	0.91382
2130.85241	0.91398
2128.92404	0.91408
2126.99566	0.91420
2125.06729	0.91442
2123.13892	0.91467
2121.21054	0.91496
2119.28217	0.91531
2117.35380	0.91561
2115.42542	0.91575
2113.49705	0.91579
2111.56868	0.91594
2109.64030	0.91628
2107.71193	0.91664
2105.78356	0.91697
2103.85518	0.91729
2101.92681	0.91749
2099.99844	0.91764
2098.07006	0.91797
2096.14169	0.91847
2094.21332	0.91893
2092.28494	0.91923
2090.35657	0.91940
2088.42820	0.91962
2086.49983	0.92001
2084.57145	0.92049
2082.64308	0.92094
2080.71471	0.92126
2078.78633	0.92145
2076.85796	0.92175
2074.92959	0.92226
2073.00121	0.92281
2071.07284	0.92327
2069.14447	0.92364
2067.21609	0.92402
2065.28772	0.92447
2063.35935	0.92483
2061.43097	0.92516
2059.50260	0.92574
2057.57423	0.92639
2055.64585	0.92682
2053.71748	0.92718
2051.78911	0.92764
2049.86073	0.92824
2047.93236	0.92891
2046.00399	0.92945
2044.07561	0.92981
2042.14724	0.93024
2040.21887	0.93075
2038.29049	0.93123
2036.36212	0.93172
2034.43375	0.93225
2032.50538	0.93278
2030.57700	0.93328
2028.64863	0.93378
2026.72026	0.93426
2024.79188	0.93471
2022.86351	0.93508
2020.93514	0.93546
2019.00676	0.93601
2017.07839	0.93672
2015.15002	0.93739
2013.22164	0.93785
2011.29327	0.93824
2009.36490	0.93871
2007.43652	0.93928
2005.50815	0.93988
2003.57978	0.94041
2001.65140	0.94090
1999.72303	0.94141
1997.79466	0.94194
1995.86628	0.94251
1993.93791	0.94313
1992.00954	0.94370
1990.08116	0.94411
1988.15279	0.94443
1986.22442	0.94482
1984.29604	0.94526
1982.36767	0.94569
1980.43930	0.94608
1978.51092	0.94647
1976.58255	0.94689
1974.65418	0.94735
1972.72581	0.94783
1970.79743	0.94835
1968.86906	0.94900
1966.94069	0.94966
1965.01231	0.95007
1963.08394	0.95027
1961.15557	0.95050
1959.22719	0.95088
1957.29882	0.95130
1955.37045	0.95170
1953.44207	0.95221
1951.51370	0.95283
1949.58533	0.95340
1947.65695	0.95387
1945.72858	0.95431
1943.80021	0.95483
1941.87183	0.95537
1939.94346	0.95574
1938.01509	0.95604
1936.08671	0.95634
1934.15834	0.95659
1932.22997	0.95688
1930.30159	0.95730
1928.37322	0.95771
1926.44485	0.95816
1924.51647	0.95869
1922.58810	0.95904
1920.65973	0.95915
1918.73135	0.95940
1916.80298	0.95970
1914.87461	0.95975
1912.94624	0.95987
1911.01786	0.96027
1909.08949	0.96063
1907.16112	0.96076
1905.23274	0.96079
1903.30437	0.96088
1901.37600	0.96101
1899.44762	0.96112
1897.51925	0.96118
1895.59088	0.96131
1893.66250	0.96151
1891.73413	0.96167
1889.80576	0.96188
1887.87738	0.96209
1885.94901	0.96222
1884.02064	0.96241
1882.09226	0.96273
1880.16389	0.96306
1878.23552	0.96331
1876.30714	0.96346
1874.37877	0.96359
1872.45040	0.96391
1870.52202	0.96470
1868.59365	0.96545
1866.66528	0.96528
1864.73690	0.96462
1862.80853	0.96428
1860.88016	0.96433
1858.95179	0.96441
1857.02341	0.96437
1855.09504	0.96433
1853.16667	0.96435
1851.23829	0.96437
1849.30992	0.96432
1847.38155	0.96435
1845.45317	0.96463
1843.52480	0.96468
1841.59643	0.96405
1839.66805	0.96335
1837.73968	0.96299
1835.81131	0.96270
1833.88293	0.96241
1831.95456	0.96247
1830.02619	0.96271
1828.09781	0.96246
1826.16944	0.96185
1824.24107	0.96112
1822.31269	0.96019
1820.38432	0.95932
1818.45595	0.95860
1816.52757	0.95798
1814.59920	0.95735
1812.67083	0.95664
1810.74245	0.95592
1808.81408	0.95510
1806.88571	0.95413
1804.95733	0.95304
1803.02896	0.95201
1801.10059	0.95099
1799.17222	0.94967
1797.24384	0.94810
1795.31547	0.94662
1793.38710	0.94522
1791.45872	0.94311
1789.53035	0.94040
1787.60198	0.93798
1785.67360	0.93588
1783.74523	0.93361
1781.81686	0.93099
1779.88848	0.92831
1777.96011	0.92578
1776.03174	0.92374
1774.10336	0.92196
1772.17499	0.91932
1770.24662	0.91541
1768.31824	0.91120
1766.38987	0.90737
1764.46150	0.90402
1762.53312	0.90041
1760.60475	0.89589
1758.67638	0.89104
1756.74800	0.88576
1754.81963	0.87987
1752.89126	0.87376
1750.96288	0.86628
1749.03451	0.85648
1747.10614	0.84525
1745.17777	0.83354
1743.24939	0.82189
1741.32102	0.81038
1739.39265	0.79936
1737.46427	0.79080
1735.53590	0.78457
1733.60753	0.77720
1731.67915	0.76858
1729.75078	0.76032
1727.82241	0.75154
1725.89403	0.74241
1723.96566	0.73280
1722.03729	0.72328
1720.10891	0.71407
1718.18054	0.70195
1716.25217	0.68423
1714.32379	0.66442
1712.39542	0.64442
1710.46705	0.62253
1708.53867	0.59792
1706.61030	0.56781
1704.68193	0.53346
1702.75355	0.50092
1700.82518	0.46172
1698.89681	0.41451
1696.96843	0.37313
1695.04006	0.33128
1693.11169	0.29394
1691.18331	0.26399
1689.25494	0.23498
1687.32657	0.20986
1685.39820	0.18644
1683.46982	0.15986
1681.54145	0.13914
1679.61308	0.12502
1677.68470	0.11276
1675.75633	0.10041
1673.82796	0.08857
1671.89958	0.07885
1669.97121	0.06958
1668.04284	0.06019
1666.11446	0.05299
1664.18609	0.04667
1662.25772	0.03986
1660.32934	0.03387
1658.40097	0.02942
1656.47260	0.02662
1654.54422	0.02528
1652.61585	0.02488
1650.68748	0.02478
1648.75910	0.02610
1646.83073	0.02964
1644.90236	0.03406
1642.97398	0.03789
1641.04561	0.04151
1639.11724	0.04512
1637.18886	0.04858
1635.26049	0.05227
1633.33212	0.05588
1631.40375	0.05972
1629.47537	0.06565
1627.54700	0.07474
1625.61863	0.08713
1623.69025	0.10425
1621.76188	0.12518
1619.83351	0.14542
1617.90513	0.16776
1615.97676	0.19541
1614.04839	0.22018
1612.12001	0.24118
1610.19164	0.26265
1608.26327	0.28386
1606.33489	0.30268
1604.40652	0.31882
1602.47815	0.33276
1600.54977	0.34424
1598.62140	0.35324
1596.69303	0.36044
1594.76465	0.36662
1592.83628	0.37174
1590.90791	0.37548
1588.97953	0.37746
1587.05116	0.37728
1585.12279	0.37503
1583.19441	0.37084
1581.26604	0.36497
1579.33767	0.35801
1577.40929	0.34880
1575.48092	0.33530
1573.55255	0.32149
1571.62418	0.30858
1569.69580	0.29204
1567.76743	0.27322
1565.83906	0.25530
1563.91068	0.23761
1561.98231	0.22168
1560.05394	0.20352
1558.12556	0.17773
1556.19719	0.15888
1554.26882	0.14739
1552.34044	0.13828
1550.41207	0.13190
1548.48370	0.12833
1546.55532	0.12730
1544.62695	0.12836
1542.69858	0.13117
1540.77020	0.13613
1538.84183	0.14289
1536.91346	0.14855
1534.98508	0.15446
1533.05671	0.16251
1531.12834	0.17093
1529.19996	0.17868
1527.27159	0.18715
1525.34322	0.19575
1523.41484	0.20315
1521.48647	0.20983
1519.55810	0.21551
1517.62972	0.22223
1515.70135	0.23344
1513.77298	0.24923
1511.84461	0.26814
1509.91623	0.28822
1507.98786	0.31160
1506.05949	0.34202
1504.13111	0.36649
1502.20274	0.38377
1500.27437	0.40165
1498.34599	0.42214
1496.41762	0.44373
1494.48925	0.46219
1492.56087	0.47667
1490.63250	0.49056
1488.70413	0.50349
1486.77575	0.51190
1484.84738	0.51593
1482.91901	0.51626
1480.99063	0.51267
1479.06226	0.50466
1477.13389	0.49067
1475.20551	0.46998
1473.27714	0.44669
1471.34877	0.42906
1469.42039	0.41839
1467.49202	0.40820
1465.56365	0.39404
1463.63527	0.37843
1461.70690	0.36879
1459.77853	0.36464
1457.85016	0.35966
1455.92178	0.35179
1453.99341	0.34717
1452.06504	0.34709
1450.13666	0.35020
1448.20829	0.35599
1446.27992	0.36385
1444.35154	0.37321
1442.42317	0.38431
1440.49480	0.39643
1438.56642	0.40936
1436.63805	0.42445
1434.70968	0.43850
1432.78130	0.44874
1430.85293	0.45726
1428.92456	0.46420
1426.99618	0.46848
1425.06781	0.47055
1423.13944	0.47099
1421.21106	0.47014
1419.28269	0.46828
1417.35432	0.46614
1415.42594	0.46485
1413.49757	0.46456
1411.56920	0.46508
1409.64082	0.46613
1407.71245	0.46747
1405.78408	0.46908
1403.85570	0.47073
1401.92733	0.47207
1399.99896	0.47276
1398.07059	0.47228
1396.14221	0.47047
1394.21384	0.46746
1392.28547	0.46395
1390.35709	0.46089
1388.42872	0.45882
1386.50035	0.45836
1384.57197	0.45950
1382.64360	0.46161
1380.71523	0.46457
1378.78685	0.46836
1376.85848	0.47260
1374.93011	0.47683
1373.00173	0.48063
1371.07336	0.48423
1369.14499	0.48875
1367.21661	0.49475
1365.28824	0.50151
1363.35987	0.50790
1361.43149	0.51267
1359.50312	0.51554
1357.57475	0.51729
1355.64637	0.51826
1353.71800	0.51825
1351.78963	0.51718
1349.86125	0.51515
1347.93288	0.51226
1346.00451	0.50888
1344.07614	0.50541
1342.14776	0.50187
1340.21939	0.49831
1338.29102	0.49510
1336.36264	0.49258
1334.43427	0.49067
1332.50590	0.48915
1330.57752	0.48821
1328.64915	0.48812
1326.72078	0.48862
1324.79240	0.48908
1322.86403	0.48913
1320.93566	0.48843
1319.00728	0.48680
1317.07891	0.48436
1315.15054	0.48139
1313.22216	0.47796
1311.29379	0.47431
1309.36542	0.47093
1307.43704	0.46834
1305.50867	0.46690
1303.58030	0.46651
1301.65192	0.46709
1299.72355	0.46854
1297.79518	0.47020
1295.86680	0.47127
1293.93843	0.47125
1292.01006	0.47010
1290.08168	0.46802
1288.15331	0.46545
1286.22494	0.46311
1284.29657	0.46141
1282.36819	0.46039
1280.43982	0.45993
1278.51145	0.45988
1276.58307	0.45985
1274.65470	0.45950
1272.72633	0.45900
1270.79795	0.45851
1268.86958	0.45798
1266.94121	0.45757
1265.01283	0.45746
1263.08446	0.45763
1261.15609	0.45783
1259.22771	0.45738
1257.29934	0.45591
1255.37097	0.45369
1253.44259	0.45103
1251.51422	0.44806
1249.58585	0.44470
1247.65747	0.44101
1245.72910	0.43740
1243.80073	0.43429
1241.87235	0.43194
1239.94398	0.43086
1238.01561	0.43128
1236.08723	0.43278
1234.15886	0.43517
1232.23049	0.43900
1230.30212	0.44462
1228.37374	0.45165
1226.44537	0.45973
1224.51700	0.46874
1222.58862	0.47818
1220.66025	0.48743
1218.73188	0.49601
1216.80350	0.50348
1214.87513	0.50950
1212.94676	0.51395
1211.01838	0.51720
1209.09001	0.51983
1207.16164	0.52218
1205.23326	0.52464
1203.30489	0.52750
1201.37652	0.53094
1199.44814	0.53514
1197.51977	0.54041
1195.59140	0.54664
1193.66302	0.55310
1191.73465	0.55895
1189.80628	0.56385
1187.87790	0.56792
1185.94953	0.57129
1184.02116	0.57355
1182.09278	0.57445
1180.16441	0.57437
1178.23604	0.57320
1176.30766	0.57053
1174.37929	0.56717
1172.45092	0.56423
1170.52255	0.56204
1168.59417	0.56069
1166.66580	0.56038
1164.73743	0.56124
1162.80905	0.56334
1160.88068	0.56691
1158.95231	0.57211
1157.02393	0.57838
1155.09556	0.58496
1153.16719	0.59155
1151.23881	0.59820
1149.31044	0.60494
1147.38207	0.61160
1145.45369	0.61768
1143.52532	0.62258
1141.59695	0.62612
1139.66857	0.62830
1137.74020	0.62895
1135.81183	0.62807
1133.88345	0.62606
1131.95508	0.62348
1130.02671	0.62064
1128.09833	0.61768
1126.16996	0.61519
1124.24159	0.61369
1122.31321	0.61310
1120.38484	0.61333
1118.45647	0.61406
1116.52809	0.61489
1114.59972	0.61609
1112.67135	0.61769
1110.74298	0.61910
1108.81460	0.62015
1106.88623	0.62104
1104.95786	0.62194
1103.02948	0.62303
1101.10111	0.62448
1099.17274	0.62600
1097.24436	0.62704
1095.31599	0.62736
1093.38762	0.62717
1091.45924	0.62673
1089.53087	0.62586
1087.60250	0.62408
1085.67412	0.62154
1083.74575	0.61883
1081.81738	0.61667
1079.88900	0.61590
1077.96063	0.61692
1076.03226	0.61930
1074.10388	0.62254
1072.17551	0.62655
1070.24714	0.63111
1068.31876	0.63545
1066.39039	0.63906
1064.46202	0.64184
1062.53364	0.64392
1060.60527	0.64562
1058.67690	0.64701
1056.74853	0.64812
1054.82015	0.64914
1052.89178	0.65007
1050.96341	0.65116
1049.03503	0.65256
1047.10666	0.65389
1045.17829	0.65484
1043.24991	0.65524
1041.32154	0.65511
1039.39317	0.65469
1037.46479	0.65407
1035.53642	0.65320
1033.60805	0.65227
1031.67967	0.65180
1029.75130	0.65238
1027.82293	0.65440
1025.89455	0.65795
1023.96618	0.66296
1022.03781	0.66906
1020.10943	0.67536
1018.18106	0.68116
1016.25269	0.68663
1014.32431	0.69235
1012.39594	0.69860
1010.46757	0.70497
1008.53919	0.71076
1006.61082	0.71571
1004.68245	0.72010
1002.75407	0.72413
1000.82570	0.72762
998.89733	0.73043
996.96896	0.73290
995.04058	0.73556
993.11221	0.73842
991.18384	0.74113
989.25546	0.74364
987.32709	0.74615
985.39872	0.74879
983.47034	0.75148
981.54197	0.75414
979.61360	0.75691
977.68522	0.75994
975.75685	0.76326
973.82848	0.76693
971.90010	0.77073
969.97173	0.77424
968.04336	0.77746
966.11498	0.78030
964.18661	0.78234
962.25824	0.78372
960.32986	0.78484
958.40149	0.78576
956.47312	0.78649
954.54474	0.78742
952.61637	0.78887
950.68800	0.79073
948.75962	0.79253
946.83125	0.79381
944.90288	0.79462
942.97451	0.79508
941.04613	0.79517
939.11776	0.79509
937.18939	0.79504
935.26101	0.79514
933.33264	0.79548
931.40427	0.79599
929.47589	0.79647
927.54752	0.79704
925.61915	0.79798
923.69077	0.79910
921.76240	0.80034
919.83403	0.80200
917.90565	0.80386
915.97728	0.80530
914.04891	0.80596
912.12053	0.80585
910.19216	0.80522
908.26379	0.80458
906.33541	0.80415
904.40704	0.80393
902.47867	0.80420
900.55029	0.80498
898.62192	0.80608
896.69355	0.80744
894.76517	0.80860
892.83680	0.80899
890.90843	0.80870
888.98005	0.80825
887.05168	0.80792
885.12331	0.80764
883.19494	0.80739
881.26656	0.80697
879.33819	0.80609
877.40982	0.80490
875.48144	0.80411
873.55307	0.80410
871.62470	0.80450
869.69632	0.80512
867.76795	0.80617
865.83958	0.80712
863.91120	0.80685
861.98283	0.80561
860.05446	0.80448
858.12608	0.80339
856.19771	0.80158
854.26934	0.79910
852.34096	0.79672
850.41259	0.79498
848.48422	0.79374
846.55584	0.79251
844.62747	0.79091
842.69910	0.78856
840.77072	0.78550
838.84235	0.78245
836.91398	0.77963
834.98560	0.77665
833.05723	0.77380
831.12886	0.77182
829.20049	0.77086
827.27211	0.77060
825.34374	0.77009
823.41537	0.76895
821.48699	0.76804
819.55862	0.76738
817.63025	0.76624
815.70187	0.76482
813.77350	0.76347
811.84513	0.76193
809.91675	0.76010
807.98838	0.75829
806.06001	0.75661
804.13163	0.75489
802.20326	0.75317
800.27489	0.75146
798.34651	0.74948
796.41814	0.74679
794.48977	0.74343
792.56139	0.74049
790.63302	0.73846
788.70465	0.73629
786.77627	0.73327
784.84790	0.72981
782.91953	0.72653
780.99115	0.72361
779.06278	0.72087
777.13441	0.71828
775.20603	0.71604
773.27766	0.71400
771.34929	0.71160
769.42092	0.70884
767.49254	0.70636
765.56417	0.70415
763.63580	0.70173
761.70742	0.69915
759.77905	0.69675
757.85068	0.69456
755.92230	0.69250
753.99393	0.69045
752.06556	0.68853
750.13718	0.68714
748.20881	0.68592
746.28044	0.68410
744.35206	0.68205
742.42369	0.68028
740.49532	0.67855
738.56694	0.67659
736.63857	0.67395
734.71020	0.66941
732.78182	0.66178
730.85345	0.65303
728.92508	0.64783
726.99670	0.64671
725.06833	0.64484
723.13996	0.63847
721.21158	0.62875
719.28321	0.62223
717.35484	0.62310
715.42647	0.62631
713.49809	0.62640
711.56972	0.62390
709.64135	0.62056
707.71297	0.61707
705.78460	0.61388
703.85623	0.61058
701.92785	0.60748
699.99948	0.60593
698.07111	0.60546
696.14273	0.60453
694.21436	0.60308
692.28599	0.60154
690.35761	0.59989
688.42924	0.59799
686.50087	0.59561
684.57249	0.59285
682.64412	0.59073
680.71575	0.58962
678.78737	0.58839
676.85900	0.58662
674.93063	0.58474
673.00225	0.58349
671.07388	0.58319
669.14551	0.58286
667.21713	0.58151
665.28876	0.58067
663.36039	0.58124
661.43201	0.58247
659.50364	0.58297
657.57527	0.58293
655.64690	0.58389
653.71852	0.58588
651.79015	0.58753
649.86178	0.58887
647.93340	0.59046
646.00503	0.59156
644.07666	0.59279
642.14828	0.59491
640.21991	0.59584
638.29154	0.59486
636.36316	0.59423
634.43479	0.59489
632.50642	0.59641
630.57804	0.59821
628.64967	0.59989
626.72130	0.60187
624.79292	0.60361
622.86455	0.60464
620.93618	0.60562
619.00780	0.60656
617.07943	0.60844
615.15106	0.61133
613.22268	0.61399
611.29431	0.61782
609.36594	0.62286
607.43756	0.62521
605.50919	0.62289
603.58082	0.62148
601.65244	0.62744
599.72407	0.63562
