3997.51769	0.44143
3995.58931	0.44291
3993.66094	0.44463
3991.73257	0.44622
3989.80419	0.44784
3987.87582	0.44972
3985.94745	0.45185
3984.01907	0.45411
3982.09070	0.45620
3980.16233	0.45788
3978.23396	0.45939
3976.30558	0.46103
3974.37721	0.46257
3972.44884	0.46364
3970.52046	0.46449
3968.59209	0.46567
3966.66372	0.46728
3964.73534	0.46911
3962.80697	0.47088
3960.87860	0.47228
3958.95022	0.47342
3957.02185	0.47471
3955.09348	0.47625
3953.16510	0.47775
3951.23673	0.47917
3949.30836	0.48070
3947.37998	0.48220
3945.45161	0.48359
3943.52324	0.48494
3941.59486	0.48593
3939.66649	0.48662
3937.73812	0.48753
3935.80974	0.48888
3933.88137	0.49059
3931.95300	0.49222
3930.02462	0.49316
3928.09625	0.49377
3926.16788	0.49484
3924.23950	0.49622
3922.31113	0.49751
3920.38276	0.49905
3918.45439	0.50090
3916.52601	0.50230
3914.59764	0.50304
3912.66927	0.50385
3910.74089	0.50526
3908.81252	0.50740
3906.88415	0.51042
3904.95577	0.51415
3903.02740	0.51734
3901.09903	0.51887
3899.17065	0.51888
3897.24228	0.51831
3895.31391	0.51870
3893.38553	0.52080
3891.45716	0.52352
3889.52879	0.52510
3887.60041	0.52659
3885.67204	0.52878
3883.74367	0.53034
3881.81529	0.53174
3879.88692	0.53318
3877.95855	0.53377
3876.03017	0.53501
3874.10180	0.53754
3872.17343	0.54061
3870.24505	0.54359
3868.31668	0.54487
3866.38831	0.54515
3864.45994	0.54605
3862.53156	0.54674
3860.60319	0.54714
3858.67482	0.54836
3856.74644	0.55158
3854.81807	0.55760
3852.88970	0.56097
3850.96132	0.55685
3849.03295	0.55297
3847.10458	0.55220
3845.17620	0.55345
3843.24783	0.55549
3841.31946	0.55791
3839.39108	0.56078
3837.46271	0.56220
3835.53434	0.56096
3833.60596	0.55961
3831.67759	0.55917
3829.74922	0.55904
3827.82084	0.55940
3825.89247	0.56025
3823.96410	0.56197
3822.03572	0.56484
3820.10735	0.56642
3818.17898	0.56628
3816.25060	0.56639
3814.32223	0.56555
3812.39386	0.56410
3810.46548	0.56405
3808.53711	0.56556
3806.60874	0.56704
3804.68037	0.56765
3802.75199	0.56897
3800.82362	0.56960
3798.89525	0.56797
3796.96687	0.56674
3795.03850	0.56619
3793.11013	0.56547
3791.18175	0.56489
3789.25338	0.56470
3787.32501	0.56494
3785.39663	0.56521
3783.46826	0.56525
3781.53989	0.56554
3779.61151	0.56585
3777.68314	0.56515
3775.75477	0.56408
3773.82639	0.56394
3771.89802	0.56470
3769.96965	0.56533
3768.04127	0.56484
3766.11290	0.56392
3764.18453	0.56306
3762.25615	0.56261
3760.32778	0.56294
3758.39941	0.56294
3756.47103	0.56233
3754.54266	0.56288
3752.61429	0.56542
3750.68591	0.56714
3748.75754	0.56525
3746.82917	0.56406
3744.90080	0.56443
3742.97242	0.56138
3741.04405	0.55666
3739.11568	0.55488
3737.18730	0.55566
3735.25893	0.55625
3733.33056	0.55420
3731.40218	0.55012
3729.47381	0.54662
3727.54544	0.54458
3725.61706	0.54307
3723.68869	0.54080
3721.76032	0.53760
3719.83194	0.53422
3717.90357	0.53106
3715.97520	0.52860
3714.04682	0.52722
3712.11845	0.52592
3710.19008	0.52210
3708.26170	0.51618
3706.33333	0.51070
3704.40496	0.50620
3702.47658	0.50172
3700.54821	0.49579
3698.61984	0.48898
3696.69146	0.48200
3694.76309	0.47482
3692.83472	0.46778
3690.90635	0.46019
3688.97797	0.44939
3687.04960	0.43498
3685.12123	0.42090
3683.19285	0.40781
3681.26448	0.39436
3679.33611	0.38105
3677.40773	0.36799
3675.47936	0.35111
3673.55099	0.33208
3671.62261	0.31644
3669.69424	0.29911
3667.76587	0.27968
3665.83749	0.26299
3663.90912	0.24759
3661.98075	0.23212
3660.05237	0.21718
3658.12400	0.20311
3656.19563	0.18851
3654.26725	0.17446
3652.33888	0.16289
3650.41051	0.15090
3648.48213	0.13636
3646.55376	0.12295
3644.62539	0.11265
3642.69701	0.10379
3640.76864	0.09519
3638.84027	0.08691
3636.91189	0.07911
3634.98352	0.07182
3633.05515	0.06521
3631.12678	0.05936
3629.19840	0.05325
3627.27003	0.04706
3625.34166	0.04247
3623.41328	0.03886
3621.48491	0.03537
3619.55654	0.03161
3617.62816	0.02804
3615.69979	0.02529
3613.77142	0.02284
3611.84304	0.02027
3609.91467	0.01782
3607.98630	0.01569
3606.05792	0.01379
3604.12955	0.01206
3602.20118	0.01057
3600.27280	0.00935
3598.34443	0.00820
3596.41606	0.00700
3594.48768	0.00594
3592.55931	0.00517
3590.63094	0.00461
3588.70256	0.00401
3586.77419	0.00324
3584.84582	0.00246
3582.91744	0.00196
3580.98907	0.00160
3579.06070	0.00122
3577.13233	0.00099
3575.20395	0.00097
3573.27558	0.00091
3571.34721	0.00071
3569.41883	0.00059
3567.49046	0.00048
3565.56209	0.00050
3563.63371	0.00049
3561.70534	0.00043
3559.77697	0.00050
3557.84859	0.00041
3555.92022	0.00030
3553.99185	0.00038
3552.06347	0.00037
3550.13510	0.00032
3548.20673	0.00039
3546.27835	0.00053
3544.34998	0.00049
3542.42161	0.00054
3540.49323	0.00059
3538.56486	0.00050
3536.63649	0.00061
3534.70811	0.00076
3532.77974	0.00098
3530.85137	0.00115
3528.92299	0.00105
3526.99462	0.00084
3525.06625	0.00082
3523.13787	0.00081
3521.20950	0.00057
3519.28113	0.00047
3517.35276	0.00062
3515.42438	0.00069
3513.49601	0.00059
3511.56764	0.00052
3509.63926	0.00058
3507.71089	0.00068
3505.78252	0.00077
3503.85414	0.00086
3501.92577	0.00088
3499.99740	0.00072
3498.06902	0.00053
3496.14065	0.00060
3494.21228	0.00069
3492.28390	0.00042
3490.35553	0.00024
3488.42716	0.00038
3486.49878	0.00063
3484.57041	0.00051
3482.64204	0.00030
3480.71366	0.00044
3478.78529	0.00062
3476.85692	0.00073
3474.92854	0.00076
3473.00017	0.00067
3471.07180	0.00058
3469.14342	0.00064
3467.21505	0.00078
3465.28668	0.00100
3463.35831	0.00101
3461.42993	0.00074
3459.50156	0.00035
3457.57319	0.00050
3455.64481	0.00078
3453.71644	0.00087
3451.78807	0.00099
3449.85969	0.00114
3447.93132	0.00108
3446.00295	0.00078
3444.07457	0.00052
3442.14620	0.00052
3440.21783	0.00068
3438.28945	0.00099
3436.36108	0.00113
3434.43271	0.00104
3432.50433	0.00077
3430.57596	0.00047
3428.64759	0.00040
3426.71921	0.00043
3424.79084	0.00048
3422.86247	0.00058
3420.93409	0.00063
3419.00572	0.00065
3417.07735	0.00070
3415.14897	0.00075
3413.22060	0.00060
3411.29223	0.00038
3409.36385	0.00057
3407.43548	0.00096
3405.50711	0.00113
3403.57874	0.00100
3401.65036	0.00071
3399.72199	0.00050
3397.79362	0.00046
3395.86524	0.00042
3393.93687	0.00027
3392.00850	0.00027
3390.08012	0.00037
3388.15175	0.00050
3386.22338	0.00073
3384.29500	0.00082
3382.36663	0.00073
3380.43826	0.00056
3378.50988	0.00045
3376.58151	0.00045
3374.65314	0.00038
3372.72476	0.00042
3370.79639	0.00070
3368.86802	0.00090
3366.93964	0.00084
3365.01127	0.00070
3363.08290	0.00071
3361.15452	0.00080
3359.22615	0.00081
3357.29778	0.00079
3355.36940	0.00083
3353.44103	0.00067
3351.51266	0.00045
3349.58428	0.00041
3347.65591	0.00047
3345.72754	0.00061
3343.79917	0.00072
3341.87079	0.00060
3339.94242	0.00038
3338.01405	0.00028
3336.08567	0.00056
3334.15730	0.00091
3332.22893	0.00104
3330.30055	0.00093
3328.37218	0.00090
3326.44381	0.00092
3324.51543	0.00075
3322.58706	0.00043
3320.65869	0.00033
3318.73031	0.00032
3316.80194	0.00024
3314.87357	0.00026
3312.94519	0.00064
3311.01682	0.00101
3309.08845	0.00089
3307.16007	0.00083
3305.23170	0.00090
3303.30333	0.00080
3301.37495	0.00061
3299.44658	0.00054
3297.51821	0.00068
3295.58983	0.00079
3293.66146	0.00093
3291.73309	0.00092
3289.80472	0.00060
3287.87634	0.00044
3285.94797	0.00043
3284.01960	0.00044
3282.09122	0.00047
3280.16285	0.00049
3278.23448	0.00054
3276.30610	0.00063
3274.37773	0.00066
3272.44936	0.00069
3270.52098	0.00064
3268.59261	0.00051
3266.66424	0.00031
3264.73586	0.00043
3262.80749	0.00045
3260.87912	0.00036
3258.95074	0.00050
3257.02237	0.00029
3255.09400	0.00021
3253.16562	0.00026
3251.23725	0.00041
3249.30888	0.00044
3247.38050	0.00034
3245.45213	0.00036
3243.52376	0.00048
3241.59538	0.00049
3239.66701	0.00047
3237.73864	0.00076
3235.81026	0.00085
3233.88189	0.00064
3231.95352	0.00035
3230.02515	0.00025
3228.09677	0.00027
3226.16840	0.00039
3224.24003	0.00045
3222.31165	0.00054
3220.38328	0.00058
3218.45491	0.00049
3216.52653	0.00048
3214.59816	0.00056
3212.66979	0.00060
3210.74141	0.00076
3208.81304	0.00087
3206.88467	0.00074
3204.95629	0.00058
3203.02792	0.00065
3201.09955	0.00074
3199.17117	0.00052
3197.24280	0.00028
3195.31443	0.00043
3193.38605	0.00065
3191.45768	0.00081
3189.52931	0.00076
3187.60093	0.00060
3185.67256	0.00057
3183.74419	0.00037
3181.81581	0.00043
3179.88744	0.00060
3177.95907	0.00053
3176.03070	0.00043
3174.10232	0.00046
3172.17395	0.00058
3170.24558	0.00074
3168.31720	0.00082
3166.38883	0.00081
3164.46046	0.00084
3162.53208	0.00083
3160.60371	0.00067
3158.67534	0.00054
3156.74696	0.00056
3154.81859	0.00065
3152.89022	0.00061
3150.96184	0.00045
3149.03347	0.00046
3147.10510	0.00049
3145.17672	0.00055
3143.24835	0.00072
3141.31998	0.00070
3139.39160	0.00057
3137.46323	0.00050
3135.53486	0.00050
3133.60648	0.00052
3131.67811	0.00044
3129.74974	0.00038
3127.82136	0.00050
3125.89299	0.00072
3123.96462	0.00082
3122.03624	0.00073
3120.10787	0.00069
3118.17950	0.00059
3116.25113	0.00053
3114.32275	0.00061
3112.39438	0.00070
3110.46601	0.00076
3108.53763	0.00082
3106.60926	0.00078
3104.68089	0.00062
3102.75251	0.00044
3100.82414	0.00041
3098.89577	0.00048
3096.96739	0.00081
3095.03902	0.00094
3093.11065	0.00088
3091.18227	0.00091
3089.25390	0.00088
3087.32553	0.00075
3085.39715	0.00072
3083.46878	0.00077
3081.54041	0.00071
3079.61203	0.00063
3077.68366	0.00063
3075.75529	0.00070
3073.82691	0.00077
3071.89854	0.00067
3069.97017	0.00047
3068.04179	0.00044
3066.11342	0.00050
3064.18505	0.00056
3062.25668	0.00052
3060.32830	0.00037
3058.39993	0.00043
3056.47156	0.00063
3054.54318	0.00076
3052.61481	0.00066
3050.68644	0.00047
3048.75806	0.00031
3046.82969	0.00038
3044.90132	0.00063
3042.97294	0.00074
3041.04457	0.00068
3039.11620	0.00053
3037.18782	0.00032
3035.25945	0.00018
3033.33108	0.00029
3031.40270	0.00056
3029.47433	0.00065
3027.54596	0.00060
3025.61758	0.00040
3023.68921	0.00038
3021.76084	0.00038
3019.83246	0.00042
3017.90409	0.00033
3015.97572	0.00016
3014.04734	0.00026
3012.11897	0.00033
3010.19060	0.00036
3008.26222	0.00046
3006.33385	0.00040
3004.40548	0.00033
3002.47711	0.00039
3000.54873	0.00040
2998.62036	0.00036
2996.69199	0.00039
2994.76361	0.00035
2992.83524	0.00038
2990.90687	0.00042
2988.97849	0.00039
2987.05012	0.00034
2985.12175	0.00038
2983.19337	0.00049
2981.26500	0.00057
2979.33663	0.00057
2977.40825	0.00055
2975.47988	0.00066
2973.55151	0.00088
2971.62313	0.00096
2969.69476	0.00102
2967.76639	0.00120
2965.83801	0.00129
2963.90964	0.00125
2961.98127	0.00104
2960.05289	0.00069
2958.12452	0.00045
2956.19615	0.00054
2954.26777	0.00098
2952.33940	0.00135
2950.41103	0.00138
2948.48266	0.00112
2946.55428	0.00083
2944.62591	0.00084
2942.69754	0.00097
2940.76916	0.00081
2938.84079	0.00060
2936.91242	0.00051
2934.98404	0.00066
2933.05567	0.00074
2931.12730	0.00066
2929.19892	0.00069
2927.27055	0.00081
2925.34218	0.00072
2923.41380	0.00042
2921.48543	0.00043
2919.55706	0.00060
2917.62868	0.00065
2915.70031	0.00048
2913.77194	0.00035
2911.84356	0.00053
2909.91519	0.00086
2907.98682	0.00108
2906.05844	0.00100
2904.13007	0.00086
2902.20170	0.00065
2900.27332	0.00045
2898.34495	0.00049
2896.41658	0.00062
2894.48820	0.00058
2892.55983	0.00046
2890.63146	0.00043
2888.70309	0.00053
2886.77471	0.00058
2884.84634	0.00058
2882.91797	0.00050
2880.98959	0.00043
2879.06122	0.00054
2877.13285	0.00063
2875.20447	0.00068
2873.27610	0.00075
2871.34773	0.00066
2869.41935	0.00049
2867.49098	0.00044
2865.56261	0.00039
2863.63423	0.00033
2861.70586	0.00036
2859.77749	0.00045
2857.84911	0.00048
2855.92074	0.00047
2853.99237	0.00050
2852.06399	0.00045
2850.13562	0.00042
2848.20725	0.00061
2846.27887	0.00093
2844.35050	0.00116
2842.42213	0.00131
2840.49375	0.00149
2838.56538	0.00164
2836.63701	0.00183
2834.70863	0.00216
2832.78026	0.00247
2830.85189	0.00262
2828.92352	0.00280
2826.99514	0.00311
2825.06677	0.00340
2823.13840	0.00371
2821.21002	0.00401
2819.28165	0.00414
2817.35328	0.00423
2815.42490	0.00455
2813.49653	0.00507
2811.56816	0.00565
2809.63978	0.00613
2807.71141	0.00651
2805.78304	0.00692
2803.85466	0.00741
2801.92629	0.00798
2799.99792	0.00859
2798.06954	0.00910
2796.14117	0.00962
2794.21280	0.01028
2792.28442	0.01090
2790.35605	0.01130
2788.42768	0.01159
2786.49930	0.01202
2784.57093	0.01263
2782.64256	0.01327
2780.71418	0.01381
2778.78581	0.01415
2776.85744	0.01439
2774.92907	0.01474
2773.00069	0.01517
2771.07232	0.01550
2769.14395	0.01585
2767.21557	0.01637
2765.28720	0.01691
2763.35883	0.01735
2761.43045	0.01772
2759.50208	0.01812
2757.57371	0.01860
2755.64533	0.01918
2753.71696	0.01981
2751.78859	0.02042
2749.86021	0.02087
2747.93184	0.02119
2746.00347	0.02150
2744.07509	0.02187
2742.14672	0.02230
2740.21835	0.02278
2738.28997	0.02321
2736.36160	0.02353
2734.43323	0.02382
2732.50485	0.02410
2730.57648	0.02446
2728.64811	0.02497
2726.71973	0.02551
2724.79136	0.02601
2722.86299	0.02646
2720.93461	0.02691
2719.00624	0.02750
2717.07787	0.02827
2715.14950	0.02906
2713.22112	0.02975
2711.29275	0.03036
2709.36438	0.03092
2707.43600	0.03154
2705.50763	0.03234
2703.57926	0.03328
2701.65088	0.03422
2699.72251	0.03514
2697.79414	0.03605
2695.86576	0.03688
2693.93739	0.03764
2692.00902	0.03841
2690.08064	0.03920
2688.15227	0.04006
2686.22390	0.04110
2684.29552	0.04216
2682.36715	0.04307
2680.43878	0.04392
2678.51040	0.04489
2676.58203	0.04595
2674.65366	0.04689
2672.72528	0.04774
2670.79691	0.04874
2668.86854	0.04982
2666.94016	0.05073
2665.01179	0.05147
2663.08342	0.05219
2661.15505	0.05293
2659.22667	0.05357
2657.29830	0.05414
2655.36993	0.05479
2653.44155	0.05544
2651.51318	0.05591
2649.58481	0.05631
2647.65643	0.05673
2645.72806	0.05705
2643.79969	0.05734
2641.87131	0.05783
2639.94294	0.05842
2638.01457	0.05889
2636.08619	0.05930
2634.15782	0.05975
2632.22945	0.06023
2630.30107	0.06070
2628.37270	0.06122
2626.44433	0.06184
2624.51595	0.06251
2622.58758	0.06328
2620.65921	0.06416
2618.73083	0.06504
2616.80246	0.06585
2614.87409	0.06665
2612.94571	0.06750
2611.01734	0.06839
2609.08897	0.06929
2607.16059	0.07020
2605.23222	0.07112
2603.30385	0.07198
2601.37548	0.07272
2599.44710	0.07342
2597.51873	0.07412
2595.59036	0.07475
2593.66198	0.07532
2591.73361	0.07585
2589.80524	0.07634
2587.87686	0.07685
2585.94849	0.07747
2584.02012	0.07818
2582.09174	0.07891
2580.16337	0.07968
2578.23500	0.08053
2576.30662	0.08150
2574.37825	0.08253
2572.44988	0.08360
2570.52150	0.08487
2568.59313	0.08641
2566.66476	0.08809
2564.73638	0.08984
2562.80801	0.09174
2560.87964	0.09366
2558.95126	0.09555
2557.02289	0.09754
2555.09452	0.09956
2553.16614	0.10140
2551.23777	0.10305
2549.30940	0.10460
2547.38103	0.10607
2545.45265	0.10744
2543.52428	0.10870
2541.59591	0.10980
2539.66753	0.11076
2537.73916	0.11150
2535.81079	0.11205
2533.88241	0.11266
2531.95404	0.11344
2530.02567	0.11432
2528.09729	0.11520
2526.16892	0.11606
2524.24055	0.11699
2522.31217	0.11816
2520.38380	0.11956
2518.45543	0.12092
2516.52705	0.12211
2514.59868	0.12334
2512.67031	0.12469
2510.74193	0.12610
2508.81356	0.12752
2506.88519	0.12892
2504.95681	0.13026
2503.02844	0.13158
2501.10007	0.13291
2499.17169	0.13432
2497.24332	0.13584
2495.31495	0.13745
2493.38657	0.13904
2491.45820	0.14057
2489.52983	0.14221
2487.60146	0.14399
2485.67308	0.14580
2483.74471	0.14755
2481.81634	0.14916
2479.88796	0.15078
2477.95959	0.15249
2476.03122	0.15426
2474.10284	0.15603
2472.17447	0.15773
2470.24610	0.15937
2468.31772	0.16106
2466.38935	0.16289
2464.46098	0.16478
2462.53260	0.16666
2460.60423	0.16859
2458.67586	0.17056
2456.74748	0.17237
2454.81911	0.17396
2452.89074	0.17558
2450.96236	0.17732
2449.03399	0.17899
2447.10562	0.18060
2445.17724	0.18226
2443.24887	0.18391
2441.32050	0.18550
2439.39212	0.18713
2437.46375	0.18885
2435.53538	0.19057
2433.60700	0.19229
2431.67863	0.19408
2429.75026	0.19576
2427.82189	0.19723
2425.89351	0.19863
2423.96514	0.19986
2422.03677	0.20086
2420.10839	0.20185
2418.18002	0.20293
2416.25165	0.20404
2414.32327	0.20521
2412.39490	0.20645
2410.46653	0.20777
2408.53815	0.20932
2406.60978	0.21118
2404.68141	0.21314
2402.75303	0.21498
2400.82466	0.21682
2398.89629	0.21883
2396.96791	0.22093
2395.03954	0.22298
2393.11117	0.22490
2391.18279	0.22668
2389.25442	0.22841
2387.32605	0.23007
2385.39767	0.23155
2383.46930	0.23281
2381.54093	0.23395
2379.61255	0.23506
2377.68418	0.23631
2375.75581	0.23774
2373.82744	0.23912
2371.89906	0.24025
2369.97069	0.24133
2368.04232	0.24279
2366.11394	0.24454
2364.18557	0.24610
2362.25720	0.24760
2360.32882	0.24907
2358.40045	0.25018
2356.47208	0.25089
2354.54370	0.25144
2352.61533	0.25237
2350.68696	0.25355
2348.75858	0.25447
2346.83021	0.25529
2344.90184	0.25619
2342.97346	0.25685
2341.04509	0.25729
2339.11672	0.25765
2337.18834	0.25782
2335.25997	0.25810
2333.33160	0.25875
2331.40322	0.25962
2329.47485	0.26047
2327.54648	0.26116
2325.61810	0.26171
2323.68973	0.26224
2321.76136	0.26308
2319.83298	0.26461
2317.90461	0.26657
2315.97624	0.26856
2314.04787	0.27074
2312.11949	0.27329
2310.19112	0.27597
2308.26275	0.27851
2306.33437	0.28095
2304.40600	0.28338
2302.47763	0.28571
2300.54925	0.28782
2298.62088	0.28967
2296.69251	0.29128
2294.76413	0.29269
2292.83576	0.29399
2290.90739	0.29511
2288.97901	0.29601
2287.05064	0.29684
2285.12227	0.29765
2283.19389	0.29835
2281.26552	0.29884
2279.33715	0.29909
2277.40877	0.29919
2275.48040	0.29932
2273.55203	0.29949
2271.62365	0.29960
2269.69528	0.29964
2267.76691	0.29963
2265.83853	0.29962
2263.91016	0.29971
2261.98179	0.29995
2260.05342	0.30033
2258.12504	0.30091
2256.19667	0.30179
2254.26830	0.30295
2252.33992	0.30429
2250.41155	0.30571
2248.48318	0.30713
2246.55480	0.30854
2244.62643	0.30994
2242.69806	0.31123
2240.76968	0.31236
2238.84131	0.31332
2236.91294	0.31411
2234.98456	0.31466
2233.05619	0.31507
2231.12782	0.31546
2229.19944	0.31584
2227.27107	0.31613
2225.34270	0.31632
2223.41432	0.31640
2221.48595	0.31635
2219.55758	0.31616
2217.62920	0.31588
2215.70083	0.31553
2213.77246	0.31507
2211.84408	0.31451
2209.91571	0.31390
2207.98734	0.31326
2206.05896	0.31263
2204.13059	0.31201
2202.20222	0.31135
2200.27385	0.31059
2198.34547	0.30976
2196.41710	0.30884
2194.48873	0.30787
2192.56035	0.30699
2190.63198	0.30623
2188.70361	0.30555
2186.77523	0.30495
2184.84686	0.30441
2182.91849	0.30387
2180.99011	0.30332
2179.06174	0.30288
2177.13337	0.30249
2175.20499	0.30202
2173.27662	0.30147
2171.34825	0.30091
2169.41987	0.30040
2167.49150	0.29998
2165.56313	0.29956
2163.63475	0.29914
2161.70638	0.29880
2159.77801	0.29858
2157.84963	0.29847
2155.92126	0.29851
2153.99289	0.29869
2152.06451	0.29896
2150.13614	0.29929
2148.20777	0.29962
2146.27940	0.29997
2144.35102	0.30040
2142.42265	0.30084
2140.49428	0.30116
2138.56590	0.30139
2136.63753	0.30164
2134.70916	0.30192
2132.78078	0.30226
2130.85241	0.30277
2128.92404	0.30346
2126.99566	0.30430
2125.06729	0.30538
2123.13892	0.30675
2121.21054	0.30817
2119.28217	0.30953
2117.35380	0.31092
2115.42542	0.31241
2113.49705	0.31391
2111.56868	0.31532
2109.64030	0.31661
2107.71193	0.31774
2105.78356	0.31876
2103.85518	0.31978
2101.92681	0.32076
2099.99844	0.32156
2098.07006	0.32222
2096.14169	0.32280
2094.21332	0.32320
2092.28494	0.32343
2090.35657	0.32359
2088.42820	0.32368
2086.49983	0.32366
2084.57145	0.32352
2082.64308	0.32332
2080.71471	0.32311
2078.78633	0.32290
2076.85796	0.32274
2074.92959	0.32274
2073.00121	0.32284
2071.07284	0.32301
2069.14447	0.32333
2067.21609	0.32387
2065.28772	0.32466
2063.35935	0.32571
2061.43097	0.32711
2059.50260	0.32888
2057.57423	0.33090
2055.64585	0.33303
2053.71748	0.33525
2051.78911	0.33752
2049.86073	0.33982
2047.93236	0.34213
2046.00399	0.34432
2044.07561	0.34628
2042.14724	0.34805
2040.21887	0.34965
2038.29049	0.35109
2036.36212	0.35238
2034.43375	0.35355
2032.50538	0.35463
2030.57700	0.35560
2028.64863	0.35641
2026.72026	0.35703
2024.79188	0.35748
2022.86351	0.35796
2020.93514	0.35858
2019.00676	0.35935
2017.07839	0.36025
2015.15002	0.36128
2013.22164	0.36249
2011.29327	0.36392
2009.36490	0.36551
2007.43652	0.36707
2005.50815	0.36852
2003.57978	0.36992
2001.65140	0.37138
1999.72303	0.37283
1997.79466	0.37413
1995.86628	0.37518
1993.93791	0.37601
1992.00954	0.37658
1990.08116	0.37690
1988.15279	0.37714
1986.22442	0.37738
1984.29604	0.37762
1982.36767	0.37783
1980.43930	0.37797
1978.51092	0.37806
1976.58255	0.37822
1974.65418	0.37848
1972.72581	0.37879
1970.79743	0.37920
1968.86906	0.37973
1966.94069	0.38028
1965.01231	0.38082
1963.08394	0.38144
1961.15557	0.38221
1959.22719	0.38309
1957.29882	0.38410
1955.37045	0.38538
1953.44207	0.38695
1951.51370	0.38864
1949.58533	0.39036
1947.65695	0.39213
1945.72858	0.39389
1943.80021	0.39553
1941.87183	0.39708
1939.94346	0.39842
1938.01509	0.39948
1936.08671	0.40035
1934.15834	0.40116
1932.22997	0.40193
1930.30159	0.40260
1928.37322	0.40315
1926.44485	0.40356
1924.51647	0.40390
1922.58810	0.40427
1920.65973	0.40464
1918.73135	0.40498
1916.80298	0.40525
1914.87461	0.40537
1912.94624	0.40543
1911.01786	0.40544
1909.08949	0.40529
1907.16112	0.40494
1905.23274	0.40440
1903.30437	0.40366
1901.37600	0.40275
1899.44762	0.40179
1897.51925	0.40087
1895.59088	0.40000
1893.66250	0.39917
1891.73413	0.39842
1889.80576	0.39777
1887.87738	0.39720
1885.94901	0.39671
1884.02064	0.39642
1882.09226	0.39630
1880.16389	0.39630
1878.23552	0.39642
1876.30714	0.39653
1874.37877	0.39652
1872.45040	0.39643
1870.52202	0.39630
1868.59365	0.39596
1866.66528	0.39536
1864.73690	0.39457
1862.80853	0.39368
1860.88016	0.39268
1858.95179	0.39156
1857.02341	0.39034
1855.09504	0.38899
1853.16667	0.38756
1851.23829	0.38609
1849.30992	0.38459
1847.38155	0.38304
1845.45317	0.38139
1843.52480	0.37961
1841.59643	0.37778
1839.66805	0.37601
1837.73968	0.37422
1835.81131	0.37240
1833.88293	0.37055
1831.95456	0.36862
1830.02619	0.36645
1828.09781	0.36401
1826.16944	0.36142
1824.24107	0.35862
1822.31269	0.35565
1820.38432	0.35242
1818.45595	0.34889
1816.52757	0.34513
1814.59920	0.34111
1812.67083	0.33676
1810.74245	0.33204
1808.81408	0.32714
1806.88571	0.32218
1804.95733	0.31699
1803.02896	0.31137
1801.10059	0.30507
1799.17222	0.29832
1797.24384	0.29148
1795.31547	0.28449
1793.38710	0.27659
1791.45872	0.26749
1789.53035	0.25880
1787.60198	0.25091
1785.67360	0.24278
1783.74523	0.23432
1781.81686	0.22597
1779.88848	0.21763
1777.96011	0.20963
1776.03174	0.20231
1774.10336	0.19487
1772.17499	0.18630
1770.24662	0.17760
1768.31824	0.16972
1766.38987	0.16194
1764.46150	0.15420
1762.53312	0.14556
1760.60475	0.13571
1758.67638	0.12585
1756.74800	0.11505
1754.81963	0.10360
1752.89126	0.09216
1750.96288	0.07907
1749.03451	0.06445
1747.10614	0.05064
1745.17777	0.03824
1743.24939	0.02747
1741.32102	0.01868
1739.39265	0.01180
1737.46427	0.00731
1735.53590	0.00447
1733.60753	0.00222
1731.67915	0.00083
1729.75078	0.00024
1727.82241	0.00013
1725.89403	0.00029
1723.96566	0.00046
1722.03729	0.00051
1720.10891	0.00056
1718.18054	0.00056
1716.25217	0.00060
1714.32379	0.00071
1712.39542	0.00067
1710.46705	0.00061
1708.53867	0.00068
1706.61030	0.00080
1704.68193	0.00088
1702.75355	0.00104
1700.82518	0.00131
1698.89681	0.00132
1696.96843	0.00095
1695.04006	0.00064
1693.11169	0.00053
1691.18331	0.00054
1689.25494	0.00069
1687.32657	0.00074
1685.39820	0.00071
1683.46982	0.00064
1681.54145	0.00060
1679.61308	0.00058
1677.68470	0.00058
1675.75633	0.00061
1673.82796	0.00053
1671.89958	0.00049
1669.97121	0.00045
1668.04284	0.00041
1666.11446	0.00040
1664.18609	0.00040
1662.25772	0.00043
1660.32934	0.00044
1658.40097	0.00043
1656.47260	0.00053
1654.54422	0.00083
1652.61585	0.00099
1650.68748	0.00073
1648.75910	0.00056
1646.83073	0.00061
1644.90236	0.00067
1642.97398	0.00064
1641.04561	0.00057
1639.11724	0.00058
1637.18886	0.00064
1635.26049	0.00063
1633.33212	0.00049
1631.40375	0.00049
1629.47537	0.00047
1627.54700	0.00046
1625.61863	0.00048
1623.69025	0.00049
1621.76188	0.00046
1619.83351	0.00047
1617.90513	0.00058
1615.97676	0.00055
1614.04839	0.00036
1612.12001	0.00025
1610.19164	0.00022
1608.26327	0.00026
1606.33489	0.00023
1604.40652	0.00023
1602.47815	0.00023
1600.54977	0.00027
1598.62140	0.00043
1596.69303	0.00060
1594.76465	0.00068
1592.83628	0.00064
1590.90791	0.00058
1588.97953	0.00055
1587.05116	0.00056
1585.12279	0.00053
1583.19441	0.00040
1581.26604	0.00037
1579.33767	0.00046
1577.40929	0.00058
1575.48092	0.00061
1573.55255	0.00056
1571.62418	0.00047
1569.69580	0.00039
1567.76743	0.00030
1565.83906	0.00031
1563.91068	0.00037
1561.98231	0.00044
1560.05394	0.00053
1558.12556	0.00049
1556.19719	0.00044
1554.26882	0.00044
1552.34044	0.00049
1550.41207	0.00050
1548.48370	0.00042
1546.55532	0.00041
1544.62695	0.00051
1542.69858	0.00063
1540.77020	0.00090
1538.84183	0.00088
1536.91346	0.00062
1534.98508	0.00048
1533.05671	0.00043
1531.12834	0.00047
1529.19996	0.00054
1527.27159	0.00060
1525.34322	0.00074
1523.41484	0.00092
1521.48647	0.00099
1519.55810	0.00096
1517.62972	0.00085
1515.70135	0.00072
1513.77298	0.00069
1511.84461	0.00067
1509.91623	0.00063
1507.98786	0.00069
1506.05949	0.00076
1504.13111	0.00063
1502.20274	0.00051
1500.27437	0.00056
1498.34599	0.00073
1496.41762	0.00080
1494.48925	0.00078
1492.56087	0.00082
1490.63250	0.00083
1488.70413	0.00070
1486.77575	0.00061
1484.84738	0.00061
1482.91901	0.00059
1480.99063	0.00052
1479.06226	0.00047
1477.13389	0.00047
1475.20551	0.00052
1473.27714	0.00070
1471.34877	0.00076
1469.42039	0.00052
1467.49202	0.00033
1465.56365	0.00041
1463.63527	0.00053
1461.70690	0.00060
1459.77853	0.00073
1457.85016	0.00083
1455.92178	0.00076
1453.99341	0.00069
1452.06504	0.00076
1450.13666	0.00080
1448.20829	0.00077
1446.27992	0.00069
1444.35154	0.00070
1442.42317	0.00071
1440.49480	0.00063
1438.56642	0.00057
1436.63805	0.00067
1434.70968	0.00068
1432.78130	0.00051
1430.85293	0.00048
1428.92456	0.00059
1426.99618	0.00070
1425.06781	0.00083
1423.13944	0.00094
1421.21106	0.00095
1419.28269	0.00086
1417.35432	0.00073
1415.42594	0.00066
1413.49757	0.00061
1411.56920	0.00059
1409.64082	0.00051
1407.71245	0.00053
1405.78408	0.00055
1403.85570	0.00054
1401.92733	0.00052
1399.99896	0.00047
1398.07059	0.00040
1396.14221	0.00046
1394.21384	0.00063
1392.28547	0.00073
1390.35709	0.00075
1388.42872	0.00077
1386.50035	0.00075
1384.57197	0.00066
1382.64360	0.00068
1380.71523	0.00082
1378.78685	0.00084
1376.85848	0.00075
1374.93011	0.00072
1373.00173	0.00077
1371.07336	0.00069
1369.14499	0.00051
1367.21661	0.00042
1365.28824	0.00037
1363.35987	0.00039
1361.43149	0.00050
1359.50312	0.00061
1357.57475	0.00071
1355.64637	0.00073
1353.71800	0.00064
1351.78963	0.00046
1349.86125	0.00048
1347.93288	0.00057
1346.00451	0.00064
1344.07614	0.00061
1342.14776	0.00050
1340.21939	0.00050
1338.29102	0.00054
1336.36264	0.00059
1334.43427	0.00065
1332.50590	0.00066
1330.57752	0.00056
1328.64915	0.00050
1326.72078	0.00055
1324.79240	0.00062
1322.86403	0.00070
1320.93566	0.00084
1319.00728	0.00091
1317.07891	0.00086
1315.15054	0.00091
1313.22216	0.00098
1311.29379	0.00093
1309.36542	0.00077
1307.43704	0.00063
1305.50867	0.00058
1303.58030	0.00058
1301.65192	0.00061
1299.72355	0.00065
1297.79518	0.00071
1295.86680	0.00076
1293.93843	0.00071
1292.01006	0.00063
1290.08168	0.00063
1288.15331	0.00077
1286.22494	0.00094
1284.29657	0.00112
1282.36819	0.00117
1280.43982	0.00093
1278.51145	0.00061
1276.58307	0.00060
1274.65470	0.00080
1272.72633	0.00094
1270.79795	0.00096
1268.86958	0.00096
1266.94121	0.00101
1265.01283	0.00106
1263.08446	0.00103
1261.15609	0.00088
1259.22771	0.00075
1257.29934	0.00082
1255.37097	0.00091
1253.44259	0.00087
1251.51422	0.00081
1249.58585	0.00070
1247.65747	0.00056
1245.72910	0.00058
1243.80073	0.00073
1241.87235	0.00096
1239.94398	0.00102
1238.01561	0.00103
1236.08723	0.00102
1234.15886	0.00084
1232.23049	0.00057
1230.30212	0.00059
1228.37374	0.00105
1226.44537	0.00142
1224.51700	0.00163
1222.58862	0.00158
1220.66025	0.00147
1218.73188	0.00140
1216.80350	0.00132
1214.87513	0.00166
1212.94676	0.00204
1211.01838	0.00205
1209.09001	0.00175
1207.16164	0.00131
1205.23326	0.00125
1203.30489	0.00139
1201.37652	0.00145
1199.44814	0.00140
1197.51977	0.00130
1195.59140	0.00132
1193.66302	0.00138
1191.73465	0.00149
1189.80628	0.00164
1187.87790	0.00160
1185.94953	0.00149
1184.02116	0.00153
1182.09278	0.00141
1180.16441	0.00094
1178.23604	0.00065
1176.30766	0.00074
1174.37929	0.00087
1172.45092	0.00098
1170.52255	0.00105
1168.59417	0.00117
1166.66580	0.00129
1164.73743	0.00152
1162.80905	0.00161
1160.88068	0.00150
1158.95231	0.00143
1157.02393	0.00130
1155.09556	0.00138
1153.16719	0.00156
1151.23881	0.00143
1149.31044	0.00125
1147.38207	0.00144
1145.45369	0.00163
1143.52532	0.00121
1141.59695	0.00097
1139.66857	0.00120
1137.74020	0.00161
1135.81183	0.00152
1133.88345	0.00126
1131.95508	0.00121
1130.02671	0.00131
1128.09833	0.00137
1126.16996	0.00131
1124.24159	0.00117
1122.31321	0.00114
1120.38484	0.00131
1118.45647	0.00137
1116.52809	0.00129
1114.59972	0.00124
1112.67135	0.00113
1110.74298	0.00089
1108.81460	0.00068
1106.88623	0.00076
1104.95786	0.00102
1103.02948	0.00113
1101.10111	0.00116
1099.17274	0.00119
1097.24436	0.00123
1095.31599	0.00136
1093.38762	0.00146
1091.45924	0.00133
1089.53087	0.00123
1087.60250	0.00140
1085.67412	0.00159
1083.74575	0.00161
1081.81738	0.00156
1079.88900	0.00157
1077.96063	0.00153
1076.03226	0.00153
1074.10388	0.00155
1072.17551	0.00155
1070.24714	0.00164
1068.31876	0.00183
1066.39039	0.00188
1064.46202	0.00161
1062.53364	0.00104
1060.60527	0.00072
1058.67690	0.00074
1056.74853	0.00092
1054.82015	0.00120
1052.89178	0.00154
1050.96341	0.00179
1049.03503	0.00177
1047.10666	0.00146
1045.17829	0.00113
1043.24991	0.00096
1041.32154	0.00106
1039.39317	0.00120
1037.46479	0.00123
1035.53642	0.00130
1033.60805	0.00144
1031.67967	0.00151
1029.75130	0.00148
1027.82293	0.00139
1025.89455	0.00138
1023.96618	0.00141
1022.03781	0.00135
1020.10943	0.00123
1018.18106	0.00109
1016.25269	0.00092
1014.32431	0.00073
1012.39594	0.00065
1010.46757	0.00062
1008.53919	0.00072
1006.61082	0.00106
1004.68245	0.00142
1002.75407	0.00154
1000.82570	0.00140
998.89733	0.00123
996.96896	0.00121
995.04058	0.00106
993.11221	0.00069
991.18384	0.00041
989.25546	0.00041
987.32709	0.00059
985.39872	0.00072
983.47034	0.00076
981.54197	0.00085
979.61360	0.00095
977.68522	0.00106
975.75685	0.00119
973.82848	0.00126
971.90010	0.00137
969.97173	0.00186
968.04336	0.00239
966.11498	0.00290
964.18661	0.00342
962.25824	0.00340
960.32986	0.00258
958.40149	0.00146
956.47312	0.00096
954.54474	0.00098
952.61637	0.00084
950.68800	0.00082
948.75962	0.00130
946.83125	0.00190
944.90288	0.00239
942.97451	0.00292
941.04613	0.00381
939.11776	0.00529
937.18939	0.00750
935.26101	0.01024
933.33264	0.01282
931.40427	0.01464
929.47589	0.01561
927.54752	0.01580
925.61915	0.01536
923.69077	0.01444
921.76240	0.01371
919.83403	0.01416
917.90565	0.01595
915.97728	0.01827
914.04891	0.02013
912.12053	0.02081
910.19216	0.02000
908.26379	0.01770
906.33541	0.01436
904.40704	0.01088
902.47867	0.00822
900.55029	0.00675
898.62192	0.00619
896.69355	0.00630
894.76517	0.00683
892.83680	0.00766
890.90843	0.00886
888.98005	0.01026
887.05168	0.01123
885.12331	0.01176
883.19494	0.01282
881.26656	0.01525
879.33819	0.01868
877.40982	0.02176
875.48144	0.02346
873.55307	0.02414
871.62470	0.02486
869.69632	0.02558
867.76795	0.02553
865.83958	0.02478
863.91120	0.02375
861.98283	0.02250
860.05446	0.02111
858.12608	0.01998
856.19771	0.01907
854.26934	0.01797
852.34096	0.01704
850.41259	0.01715
848.48422	0.01804
846.55584	0.01888
844.62747	0.01927
842.69910	0.01932
840.77072	0.01928
838.84235	0.01907
836.91398	0.01848
834.98560	0.01793
833.05723	0.01774
831.12886	0.01735
829.20049	0.01610
827.27211	0.01426
825.34374	0.01282
823.41537	0.01222
821.48699	0.01200
819.55862	0.01176
817.63025	0.01131
815.70187	0.01063
813.77350	0.01007
811.84513	0.00980
809.91675	0.00959
807.98838	0.00938
806.06001	0.00915
804.13163	0.00875
802.20326	0.00814
800.27489	0.00736
798.34651	0.00663
796.41814	0.00622
794.48977	0.00589
792.56139	0.00528
790.63302	0.00439
788.70465	0.00343
786.77627	0.00260
784.84790	0.00213
782.91953	0.00219
780.99115	0.00223
779.06278	0.00220
777.13441	0.00232
775.20603	0.00247
773.27766	0.00254
771.34929	0.00252
769.42092	0.00252
767.49254	0.00274
765.56417	0.00273
763.63580	0.00229
761.70742	0.00194
759.77905	0.00192
757.85068	0.00212
755.92230	0.00226
753.99393	0.00238
752.06556	0.00250
750.13718	0.00259
748.20881	0.00257
746.28044	0.00249
744.35206	0.00252
742.42369	0.00267
740.49532	0.00280
738.56694	0.00265
736.63857	0.00214
734.71020	0.00162
732.78182	0.00157
730.85345	0.00179
728.92508	0.00208
726.99670	0.00236
725.06833	0.00248
723.13996	0.00255
721.21158	0.00274
719.28321	0.00289
717.35484	0.00271
715.42647	0.00222
713.49809	0.00177
711.56972	0.00169
709.64135	0.00242
707.71297	0.00312
705.78460	0.00285
703.85623	0.00208
701.92785	0.00197
699.99948	0.00242
698.07111	0.00279
696.14273	0.00289
694.21436	0.00286
692.28599	0.00275
690.35761	0.00265
688.42924	0.00301
686.50087	0.00304
684.57249	0.00253
682.64412	0.00245
680.71575	0.00278
678.78737	0.00302
676.85900	0.00334
674.93063	0.00405
673.00225	0.00493
671.07388	0.00566
669.14551	0.00588
667.21713	0.00464
665.28876	0.00313
663.36039	0.00304
661.43201	0.00356
659.50364	0.00389
657.57527	0.00409
655.64690	0.00385
653.71852	0.00261
651.79015	0.00289
649.86178	0.00393
647.93340	0.00428
646.00503	0.00451
644.07666	0.00508
642.14828	0.00542
640.21991	0.00503
638.29154	0.00420
636.36316	0.00420
634.43479	0.00517
632.50642	0.00661
630.57804	0.00743
628.64967	0.00729
626.72130	0.00646
624.79292	0.00473
622.86455	0.00346
620.93618	0.00432
619.00780	0.00611
617.07943	0.00696
615.15106	0.00703
613.22268	0.00717
611.29431	0.00870
609.36594	0.00987
607.43756	0.00989
605.50919	0.00986
603.58082	0.00957
601.65244	0.00904
599.72407	0.01069
