3997.51769	0.42166
3995.58931	0.42297
3993.66094	0.42445
3991.73257	0.42626
3989.80419	0.42853
3987.87582	0.43106
3985.94745	0.43363
3984.01907	0.43614
3982.09070	0.43842
3980.16233	0.44032
3978.23396	0.44206
3976.30558	0.44383
3974.37721	0.44544
3972.44884	0.44669
3970.52046	0.44782
3968.59209	0.44925
3966.66372	0.45091
3964.73534	0.45254
3962.80697	0.45413
3960.87860	0.45573
3958.95022	0.45738
3957.02185	0.45914
3955.09348	0.46096
3953.16510	0.46265
3951.23673	0.46426
3949.30836	0.46594
3947.37998	0.46726
3945.45161	0.46826
3943.52324	0.46957
3941.59486	0.47099
3939.66649	0.47204
3937.73812	0.47299
3935.80974	0.47437
3933.88137	0.47640
3931.95300	0.47847
3930.02462	0.47947
3928.09625	0.47995
3926.16788	0.48124
3924.23950	0.48290
3922.31113	0.48419
3920.38276	0.48564
3918.45439	0.48748
3916.52601	0.48894
3914.59764	0.48976
3912.66927	0.49058
3910.74089	0.49174
3908.81252	0.49335
3906.88415	0.49593
3904.95577	0.49983
3903.02740	0.50374
3901.09903	0.50594
3899.17065	0.50635
3897.24228	0.50597
3895.31391	0.50624
3893.38553	0.50817
3891.45716	0.51108
3889.52879	0.51287
3887.60041	0.51423
3885.67204	0.51653
3883.74367	0.51834
3881.81529	0.51957
3879.88692	0.52107
3877.95855	0.52197
3876.03017	0.52309
3874.10180	0.52533
3872.17343	0.52819
3870.24505	0.53121
3868.31668	0.53278
3866.38831	0.53314
3864.45994	0.53418
3862.53156	0.53507
3860.60319	0.53522
3858.67482	0.53596
3856.74644	0.53880
3854.81807	0.54492
3852.88970	0.54949
3850.96132	0.54605
3849.03295	0.54172
3847.10458	0.54044
3845.17620	0.54154
3843.24783	0.54368
3841.31946	0.54615
3839.39108	0.54895
3837.46271	0.55073
3835.53434	0.55001
3833.60596	0.54863
3831.67759	0.54778
3829.74922	0.54723
3827.82084	0.54736
3825.89247	0.54822
3823.96410	0.54977
3822.03572	0.55248
3820.10735	0.55435
3818.17898	0.55425
3816.25060	0.55411
3814.32223	0.55306
3812.39386	0.55119
3810.46548	0.55065
3808.53711	0.55187
3806.60874	0.55336
3804.68037	0.55393
3802.75199	0.55506
3800.82362	0.55622
3798.89525	0.55502
3796.96687	0.55322
3795.03850	0.55196
3793.11013	0.55093
3791.18175	0.55033
3789.25338	0.55011
3787.32501	0.55007
3785.39663	0.54999
3783.46826	0.54978
3781.53989	0.54978
3779.61151	0.54996
3777.68314	0.54923
3775.75477	0.54770
3773.82639	0.54678
3771.89802	0.54700
3769.96965	0.54756
3768.04127	0.54722
3766.11290	0.54628
3764.18453	0.54528
3762.25615	0.54442
3760.32778	0.54421
3758.39941	0.54381
3756.47103	0.54249
3754.54266	0.54196
3752.61429	0.54397
3750.68591	0.54636
3748.75754	0.54503
3746.82917	0.54320
3744.90080	0.54272
3742.97242	0.53954
3741.04405	0.53456
3739.11568	0.53196
3737.18730	0.53196
3735.25893	0.53206
3733.33056	0.52956
3731.40218	0.52510
3729.47381	0.52121
3727.54544	0.51872
3725.61706	0.51680
3723.68869	0.51429
3721.76032	0.51095
3719.83194	0.50703
3717.90357	0.50294
3715.97520	0.49955
3714.04682	0.49713
3712.11845	0.49483
3710.19008	0.49058
3708.26170	0.48449
3706.33333	0.47845
3704.40496	0.47300
3702.47658	0.46721
3700.54821	0.45986
3698.61984	0.45189
3696.69146	0.44389
3694.76309	0.43575
3692.83472	0.42764
3690.90635	0.41858
3688.97797	0.40590
3687.04960	0.38973
3685.12123	0.37429
3683.19285	0.36013
3681.26448	0.34547
3679.33611	0.33057
3677.40773	0.31587
3675.47936	0.29771
3673.55099	0.27808
3671.62261	0.26226
3669.69424	0.24491
3667.76587	0.22567
3665.83749	0.20934
3663.90912	0.19445
3661.98075	0.17958
3660.05237	0.16531
3658.12400	0.15201
3656.19563	0.13860
3654.26725	0.12620
3652.33888	0.11625
3650.41051	0.10605
3648.48213	0.09394
3646.55376	0.08296
3644.62539	0.07453
3642.69701	0.06734
3640.76864	0.06060
3638.84027	0.05431
3636.91189	0.04853
3634.98352	0.04336
3633.05515	0.03897
3631.12678	0.03521
3629.19840	0.03113
3627.27003	0.02668
3625.34166	0.02323
3623.41328	0.02074
3621.48491	0.01878
3619.55654	0.01671
3617.62816	0.01433
3615.69979	0.01230
3613.77142	0.01070
3611.84304	0.00941
3609.91467	0.00854
3607.98630	0.00779
3606.05792	0.00681
3604.12955	0.00585
3602.20118	0.00502
3600.27280	0.00437
3598.34443	0.00394
3596.41606	0.00354
3594.48768	0.00303
3592.55931	0.00255
3590.63094	0.00232
3588.70256	0.00230
3586.77419	0.00218
3584.84582	0.00178
3582.91744	0.00126
3580.98907	0.00097
3579.06070	0.00094
3577.13233	0.00108
3575.20395	0.00129
3573.27558	0.00140
3571.34721	0.00131
3569.41883	0.00108
3567.49046	0.00080
3565.56209	0.00064
3563.63371	0.00057
3561.70534	0.00065
3559.77697	0.00079
3557.84859	0.00078
3555.92022	0.00057
3553.99185	0.00050
3552.06347	0.00049
3550.13510	0.00044
3548.20673	0.00043
3546.27835	0.00056
3544.34998	0.00069
3542.42161	0.00061
3540.49323	0.00049
3538.56486	0.00042
3536.63649	0.00048
3534.70811	0.00060
3532.77974	0.00053
3530.85137	0.00057
3528.92299	0.00053
3526.99462	0.00057
3525.06625	0.00068
3523.13787	0.00057
3521.20950	0.00049
3519.28113	0.00039
3517.35276	0.00041
3515.42438	0.00045
3513.49601	0.00059
3511.56764	0.00070
3509.63926	0.00046
3507.71089	0.00017
3505.78252	0.00019
3503.85414	0.00042
3501.92577	0.00054
3499.99740	0.00057
3498.06902	0.00052
3496.14065	0.00029
3494.21228	0.00024
3492.28390	0.00026
3490.35553	0.00027
3488.42716	0.00024
3486.49878	0.00039
3484.57041	0.00061
3482.64204	0.00075
3480.71366	0.00067
3478.78529	0.00055
3476.85692	0.00056
3474.92854	0.00056
3473.00017	0.00052
3471.07180	0.00049
3469.14342	0.00039
3467.21505	0.00031
3465.28668	0.00033
3463.35831	0.00029
3461.42993	0.00013
3459.50156	0.00016
3457.57319	0.00029
3455.64481	0.00023
3453.71644	0.00044
3451.78807	0.00068
3449.85969	0.00073
3447.93132	0.00056
3446.00295	0.00047
3444.07457	0.00052
3442.14620	0.00053
3440.21783	0.00051
3438.28945	0.00046
3436.36108	0.00028
3434.43271	0.00042
3432.50433	0.00065
3430.57596	0.00071
3428.64759	0.00063
3426.71921	0.00054
3424.79084	0.00056
3422.86247	0.00052
3420.93409	0.00037
3419.00572	0.00026
3417.07735	0.00043
3415.14897	0.00060
3413.22060	0.00066
3411.29223	0.00062
3409.36385	0.00057
3407.43548	0.00057
3405.50711	0.00037
3403.57874	0.00033
3401.65036	0.00037
3399.72199	0.00035
3397.79362	0.00022
3395.86524	0.00028
3393.93687	0.00038
3392.00850	0.00027
3390.08012	0.00035
3388.15175	0.00040
3386.22338	0.00046
3384.29500	0.00043
3382.36663	0.00026
3380.43826	0.00019
3378.50988	0.00022
3376.58151	0.00030
3374.65314	0.00031
3372.72476	0.00049
3370.79639	0.00051
3368.86802	0.00035
3366.93964	0.00054
3365.01127	0.00075
3363.08290	0.00077
3361.15452	0.00067
3359.22615	0.00060
3357.29778	0.00054
3355.36940	0.00038
3353.44103	0.00034
3351.51266	0.00059
3349.58428	0.00083
3347.65591	0.00084
3345.72754	0.00072
3343.79917	0.00050
3341.87079	0.00036
3339.94242	0.00040
3338.01405	0.00043
3336.08567	0.00051
3334.15730	0.00047
3332.22893	0.00051
3330.30055	0.00043
3328.37218	0.00023
3326.44381	0.00028
3324.51543	0.00031
3322.58706	0.00026
3320.65869	0.00032
3318.73031	0.00039
3316.80194	0.00037
3314.87357	0.00057
3312.94519	0.00074
3311.01682	0.00061
3309.08845	0.00045
3307.16007	0.00048
3305.23170	0.00040
3303.30333	0.00038
3301.37495	0.00036
3299.44658	0.00027
3297.51821	0.00059
3295.58983	0.00062
3293.66146	0.00042
3291.73309	0.00026
3289.80472	0.00026
3287.87634	0.00023
3285.94797	0.00056
3284.01960	0.00080
3282.09122	0.00078
3280.16285	0.00052
3278.23448	0.00056
3276.30610	0.00084
3274.37773	0.00075
3272.44936	0.00048
3270.52098	0.00031
3268.59261	0.00029
3266.66424	0.00029
3264.73586	0.00046
3262.80749	0.00043
3260.87912	0.00036
3258.95074	0.00043
3257.02237	0.00045
3255.09400	0.00026
3253.16562	0.00025
3251.23725	0.00043
3249.30888	0.00054
3247.38050	0.00068
3245.45213	0.00072
3243.52376	0.00061
3241.59538	0.00054
3239.66701	0.00050
3237.73864	0.00048
3235.81026	0.00047
3233.88189	0.00049
3231.95352	0.00052
3230.02515	0.00052
3228.09677	0.00032
3226.16840	0.00011
3224.24003	0.00014
3222.31165	0.00025
3220.38328	0.00037
3218.45491	0.00039
3216.52653	0.00030
3214.59816	0.00032
3212.66979	0.00035
3210.74141	0.00038
3208.81304	0.00038
3206.88467	0.00036
3204.95629	0.00041
3203.02792	0.00044
3201.09955	0.00038
3199.17117	0.00043
3197.24280	0.00057
3195.31443	0.00058
3193.38605	0.00057
3191.45768	0.00055
3189.52931	0.00048
3187.60093	0.00051
3185.67256	0.00052
3183.74419	0.00052
3181.81581	0.00049
3179.88744	0.00053
3177.95907	0.00050
3176.03070	0.00041
3174.10232	0.00039
3172.17395	0.00039
3170.24558	0.00045
3168.31720	0.00048
3166.38883	0.00042
3164.46046	0.00030
3162.53208	0.00042
3160.60371	0.00054
3158.67534	0.00056
3156.74696	0.00062
3154.81859	0.00062
3152.89022	0.00039
3150.96184	0.00028
3149.03347	0.00028
3147.10510	0.00027
3145.17672	0.00028
3143.24835	0.00047
3141.31998	0.00065
3139.39160	0.00065
3137.46323	0.00060
3135.53486	0.00056
3133.60648	0.00059
3131.67811	0.00071
3129.74974	0.00073
3127.82136	0.00062
3125.89299	0.00051
3123.96462	0.00043
3122.03624	0.00037
3120.10787	0.00033
3118.17950	0.00035
3116.25113	0.00056
3114.32275	0.00068
3112.39438	0.00050
3110.46601	0.00020
3108.53763	0.00028
3106.60926	0.00037
3104.68089	0.00042
3102.75251	0.00055
3100.82414	0.00060
3098.89577	0.00039
3096.96739	0.00022
3095.03902	0.00029
3093.11065	0.00035
3091.18227	0.00049
3089.25390	0.00030
3087.32553	0.00020
3085.39715	0.00025
3083.46878	0.00023
3081.54041	0.00022
3079.61203	0.00035
3077.68366	0.00044
3075.75529	0.00034
3073.82691	0.00024
3071.89854	0.00025
3069.97017	0.00037
3068.04179	0.00050
3066.11342	0.00058
3064.18505	0.00058
3062.25668	0.00065
3060.32830	0.00072
3058.39993	0.00056
3056.47156	0.00036
3054.54318	0.00044
3052.61481	0.00058
3050.68644	0.00064
3048.75806	0.00059
3046.82969	0.00045
3044.90132	0.00048
3042.97294	0.00058
3041.04457	0.00052
3039.11620	0.00034
3037.18782	0.00031
3035.25945	0.00047
3033.33108	0.00062
3031.40270	0.00060
3029.47433	0.00053
3027.54596	0.00053
3025.61758	0.00052
3023.68921	0.00055
3021.76084	0.00048
3019.83246	0.00029
3017.90409	0.00029
3015.97572	0.00040
3014.04734	0.00043
3012.11897	0.00037
3010.19060	0.00051
3008.26222	0.00058
3006.33385	0.00052
3004.40548	0.00051
3002.47711	0.00069
3000.54873	0.00072
2998.62036	0.00068
2996.69199	0.00080
2994.76361	0.00087
2992.83524	0.00085
2990.90687	0.00076
2988.97849	0.00072
2987.05012	0.00066
2985.12175	0.00051
2983.19337	0.00038
2981.26500	0.00036
2979.33663	0.00042
2977.40825	0.00047
2975.47988	0.00044
2973.55151	0.00020
2971.62313	0.00025
2969.69476	0.00037
2967.76639	0.00032
2965.83801	0.00040
2963.90964	0.00060
2961.98127	0.00083
2960.05289	0.00069
2958.12452	0.00064
2956.19615	0.00076
2954.26777	0.00056
2952.33940	0.00051
2950.41103	0.00059
2948.48266	0.00062
2946.55428	0.00071
2944.62591	0.00078
2942.69754	0.00055
2940.76916	0.00030
2938.84079	0.00048
2936.91242	0.00074
2934.98404	0.00064
2933.05567	0.00060
2931.12730	0.00048
2929.19892	0.00055
2927.27055	0.00066
2925.34218	0.00051
2923.41380	0.00036
2921.48543	0.00029
2919.55706	0.00029
2917.62868	0.00034
2915.70031	0.00071
2913.77194	0.00099
2911.84356	0.00090
2909.91519	0.00071
2907.98682	0.00060
2906.05844	0.00055
2904.13007	0.00047
2902.20170	0.00051
2900.27332	0.00072
2898.34495	0.00054
2896.41658	0.00014
2894.48820	0.00020
2892.55983	0.00027
2890.63146	0.00034
2888.70309	0.00047
2886.77471	0.00074
2884.84634	0.00088
2882.91797	0.00071
2880.98959	0.00048
2879.06122	0.00047
2877.13285	0.00049
2875.20447	0.00032
2873.27610	0.00028
2871.34773	0.00026
2869.41935	0.00026
2867.49098	0.00035
2865.56261	0.00035
2863.63423	0.00041
2861.70586	0.00056
2859.77749	0.00061
2857.84911	0.00049
2855.92074	0.00046
2853.99237	0.00058
2852.06399	0.00070
2850.13562	0.00084
2848.20725	0.00081
2846.27887	0.00067
2844.35050	0.00074
2842.42213	0.00088
2840.49375	0.00109
2838.56538	0.00132
2836.63701	0.00147
2834.70863	0.00155
2832.78026	0.00157
2830.85189	0.00153
2828.92352	0.00153
2826.99514	0.00164
2825.06677	0.00179
2823.13840	0.00197
2821.21002	0.00214
2819.28165	0.00231
2817.35328	0.00252
2815.42490	0.00268
2813.49653	0.00275
2811.56816	0.00293
2809.63978	0.00325
2807.71141	0.00360
2805.78304	0.00400
2803.85466	0.00438
2801.92629	0.00459
2799.99792	0.00482
2798.06954	0.00527
2796.14117	0.00577
2794.21280	0.00611
2792.28442	0.00636
2790.35605	0.00663
2788.42768	0.00691
2786.49930	0.00720
2784.57093	0.00757
2782.64256	0.00790
2780.71418	0.00810
2778.78581	0.00825
2776.85744	0.00844
2774.92907	0.00874
2773.00069	0.00913
2771.07232	0.00943
2769.14395	0.00963
2767.21557	0.00995
2765.28720	0.01036
2763.35883	0.01066
2761.43045	0.01098
2759.50208	0.01133
2757.57371	0.01163
2755.64533	0.01196
2753.71696	0.01236
2751.78859	0.01276
2749.86021	0.01314
2747.93184	0.01349
2746.00347	0.01377
2744.07509	0.01398
2742.14672	0.01419
2740.21835	0.01449
2738.28997	0.01486
2736.36160	0.01518
2734.43323	0.01539
2732.50485	0.01552
2730.57648	0.01566
2728.64811	0.01586
2726.71973	0.01611
2724.79136	0.01640
2722.86299	0.01684
2720.93461	0.01740
2719.00624	0.01789
2717.07787	0.01834
2715.14950	0.01878
2713.22112	0.01916
2711.29275	0.01957
2709.36438	0.02004
2707.43600	0.02060
2705.50763	0.02128
2703.57926	0.02199
2701.65088	0.02258
2699.72251	0.02313
2697.79414	0.02371
2695.86576	0.02432
2693.93739	0.02494
2692.00902	0.02560
2690.08064	0.02625
2688.15227	0.02692
2686.22390	0.02763
2684.29552	0.02837
2682.36715	0.02911
2680.43878	0.02987
2678.51040	0.03064
2676.58203	0.03143
2674.65366	0.03225
2672.72528	0.03311
2670.79691	0.03400
2668.86854	0.03484
2666.94016	0.03555
2665.01179	0.03609
2663.08342	0.03661
2661.15505	0.03717
2659.22667	0.03770
2657.29830	0.03815
2655.36993	0.03849
2653.44155	0.03879
2651.51318	0.03919
2649.58481	0.03964
2647.65643	0.04000
2645.72806	0.04029
2643.79969	0.04055
2641.87131	0.04086
2639.94294	0.04121
2638.01457	0.04145
2636.08619	0.04159
2634.15782	0.04189
2632.22945	0.04237
2630.30107	0.04279
2628.37270	0.04311
2626.44433	0.04358
2624.51595	0.04427
2622.58758	0.04493
2620.65921	0.04537
2618.73083	0.04574
2616.80246	0.04626
2614.87409	0.04694
2612.94571	0.04769
2611.01734	0.04845
2609.08897	0.04922
2607.16059	0.05000
2605.23222	0.05079
2603.30385	0.05152
2601.37548	0.05208
2599.44710	0.05258
2597.51873	0.05312
2595.59036	0.05368
2593.66198	0.05419
2591.73361	0.05457
2589.80524	0.05479
2587.87686	0.05496
2585.94849	0.05527
2584.02012	0.05581
2582.09174	0.05645
2580.16337	0.05705
2578.23500	0.05768
2576.30662	0.05841
2574.37825	0.05931
2572.44988	0.06032
2570.52150	0.06140
2568.59313	0.06252
2566.66476	0.06373
2564.73638	0.06514
2562.80801	0.06674
2560.87964	0.06830
2558.95126	0.06986
2557.02289	0.07159
2555.09452	0.07338
2553.16614	0.07502
2551.23777	0.07649
2549.30940	0.07785
2547.38103	0.07913
2545.45265	0.08027
2543.52428	0.08122
2541.59591	0.08192
2539.66753	0.08237
2537.73916	0.08269
2535.81079	0.08319
2533.88241	0.08389
2531.95404	0.08461
2530.02567	0.08523
2528.09729	0.08586
2526.16892	0.08665
2524.24055	0.08759
2522.31217	0.08860
2520.38380	0.08966
2518.45543	0.09069
2516.52705	0.09165
2514.59868	0.09269
2512.67031	0.09388
2510.74193	0.09514
2508.81356	0.09633
2506.88519	0.09744
2504.95681	0.09854
2503.02844	0.09964
2501.10007	0.10077
2499.17169	0.10197
2497.24332	0.10323
2495.31495	0.10460
2493.38657	0.10606
2491.45820	0.10760
2489.52983	0.10918
2487.60146	0.11073
2485.67308	0.11216
2483.74471	0.11355
2481.81634	0.11498
2479.88796	0.11645
2477.95959	0.11795
2476.03122	0.11948
2474.10284	0.12096
2472.17447	0.12241
2470.24610	0.12386
2468.31772	0.12533
2466.38935	0.12686
2464.46098	0.12848
2462.53260	0.13010
2460.60423	0.13168
2458.67586	0.13331
2456.74748	0.13496
2454.81911	0.13658
2452.89074	0.13815
2450.96236	0.13967
2449.03399	0.14109
2447.10562	0.14247
2445.17724	0.14392
2443.24887	0.14547
2441.32050	0.14702
2439.39212	0.14858
2437.46375	0.15018
2435.53538	0.15180
2433.60700	0.15344
2431.67863	0.15505
2429.75026	0.15650
2427.82189	0.15783
2425.89351	0.15909
2423.96514	0.16024
2422.03677	0.16125
2420.10839	0.16220
2418.18002	0.16318
2416.25165	0.16417
2414.32327	0.16517
2412.39490	0.16632
2410.46653	0.16765
2408.53815	0.16906
2406.60978	0.17050
2404.68141	0.17212
2402.75303	0.17399
2400.82466	0.17592
2398.89629	0.17784
2396.96791	0.17979
2395.03954	0.18172
2393.11117	0.18363
2391.18279	0.18549
2389.25442	0.18722
2387.32605	0.18883
2385.39767	0.19040
2383.46930	0.19186
2381.54093	0.19318
2379.61255	0.19438
2377.68418	0.19550
2375.75581	0.19665
2373.82744	0.19807
2371.89906	0.19978
2369.97069	0.20154
2368.04232	0.20303
2366.11394	0.20451
2364.18557	0.20665
2362.25720	0.20912
2360.32882	0.21089
2358.40045	0.21169
2356.47208	0.21187
2354.54370	0.21196
2352.61533	0.21223
2350.68696	0.21256
2348.75858	0.21286
2346.83021	0.21330
2344.90184	0.21418
2342.97346	0.21531
2341.04509	0.21595
2339.11672	0.21615
2337.18834	0.21629
2335.25997	0.21660
2333.33160	0.21715
2331.40322	0.21769
2329.47485	0.21785
2327.54648	0.21772
2325.61810	0.21769
2323.68973	0.21805
2321.76136	0.21890
2319.83298	0.22006
2317.90461	0.22139
2315.97624	0.22302
2314.04787	0.22502
2312.11949	0.22725
2310.19112	0.22949
2308.26275	0.23158
2306.33437	0.23355
2304.40600	0.23561
2302.47763	0.23772
2300.54925	0.23957
2298.62088	0.24104
2296.69251	0.24224
2294.76413	0.24331
2292.83576	0.24436
2290.90739	0.24537
2288.97901	0.24618
2287.05064	0.24678
2285.12227	0.24724
2283.19389	0.24761
2281.26552	0.24794
2279.33715	0.24813
2277.40877	0.24804
2275.48040	0.24782
2273.55203	0.24767
2271.62365	0.24747
2269.69528	0.24718
2267.76691	0.24698
2265.83853	0.24686
2263.91016	0.24675
2261.98179	0.24678
2260.05342	0.24706
2258.12504	0.24753
2256.19667	0.24813
2254.26830	0.24901
2252.33992	0.25023
2250.41155	0.25147
2248.48318	0.25255
2246.55480	0.25363
2244.62643	0.25487
2242.69806	0.25606
2240.76968	0.25698
2238.84131	0.25764
2236.91294	0.25810
2234.98456	0.25842
2233.05619	0.25866
2231.12782	0.25883
2229.19944	0.25893
2227.27107	0.25905
2225.34270	0.25909
2223.41432	0.25894
2221.48595	0.25866
2219.55758	0.25832
2217.62920	0.25784
2215.70083	0.25722
2213.77246	0.25655
2211.84408	0.25586
2209.91571	0.25520
2207.98734	0.25460
2206.05896	0.25391
2204.13059	0.25312
2202.20222	0.25227
2200.27385	0.25132
2198.34547	0.25031
2196.41710	0.24932
2194.48873	0.24830
2192.56035	0.24726
2190.63198	0.24630
2188.70361	0.24540
2186.77523	0.24455
2184.84686	0.24380
2182.91849	0.24325
2180.99011	0.24280
2179.06174	0.24229
2177.13337	0.24167
2175.20499	0.24101
2173.27662	0.24035
2171.34825	0.23967
2169.41987	0.23898
2167.49150	0.23835
2165.56313	0.23781
2163.63475	0.23735
2161.70638	0.23698
2159.77801	0.23665
2157.84963	0.23634
2155.92126	0.23615
2153.99289	0.23609
2152.06451	0.23604
2150.13614	0.23607
2148.20777	0.23628
2146.27940	0.23655
2144.35102	0.23679
2142.42265	0.23698
2140.49428	0.23718
2138.56590	0.23740
2136.63753	0.23754
2134.70916	0.23764
2132.78078	0.23785
2130.85241	0.23814
2128.92404	0.23851
2126.99566	0.23913
2125.06729	0.24003
2123.13892	0.24103
2121.21054	0.24204
2119.28217	0.24317
2117.35380	0.24447
2115.42542	0.24585
2113.49705	0.24716
2111.56868	0.24835
2109.64030	0.24943
2107.71193	0.25039
2105.78356	0.25120
2103.85518	0.25197
2101.92681	0.25274
2099.99844	0.25338
2098.07006	0.25385
2096.14169	0.25424
2094.21332	0.25448
2092.28494	0.25449
2090.35657	0.25437
2088.42820	0.25428
2086.49983	0.25418
2084.57145	0.25399
2082.64308	0.25374
2080.71471	0.25345
2078.78633	0.25314
2076.85796	0.25288
2074.92959	0.25277
2073.00121	0.25279
2071.07284	0.25290
2069.14447	0.25320
2067.21609	0.25380
2065.28772	0.25461
2063.35935	0.25557
2061.43097	0.25679
2059.50260	0.25831
2057.57423	0.26008
2055.64585	0.26201
2053.71748	0.26404
2051.78911	0.26612
2049.86073	0.26817
2047.93236	0.27015
2046.00399	0.27200
2044.07561	0.27375
2042.14724	0.27538
2040.21887	0.27684
2038.29049	0.27816
2036.36212	0.27942
2034.43375	0.28061
2032.50538	0.28163
2030.57700	0.28245
2028.64863	0.28301
2026.72026	0.28333
2024.79188	0.28360
2022.86351	0.28401
2020.93514	0.28457
2019.00676	0.28523
2017.07839	0.28603
2015.15002	0.28691
2013.22164	0.28790
2011.29327	0.28917
2009.36490	0.29066
2007.43652	0.29213
2005.50815	0.29355
2003.57978	0.29493
2001.65140	0.29625
1999.72303	0.29745
1997.79466	0.29851
1995.86628	0.29946
1993.93791	0.30026
1992.00954	0.30081
1990.08116	0.30115
1988.15279	0.30136
1986.22442	0.30148
1984.29604	0.30155
1982.36767	0.30157
1980.43930	0.30152
1978.51092	0.30152
1976.58255	0.30168
1974.65418	0.30196
1972.72581	0.30225
1970.79743	0.30253
1968.86906	0.30290
1966.94069	0.30342
1965.01231	0.30403
1963.08394	0.30463
1961.15557	0.30525
1959.22719	0.30597
1957.29882	0.30687
1955.37045	0.30795
1953.44207	0.30924
1951.51370	0.31076
1949.58533	0.31241
1947.65695	0.31403
1945.72858	0.31557
1943.80021	0.31712
1941.87183	0.31863
1939.94346	0.31987
1938.01509	0.32084
1936.08671	0.32166
1934.15834	0.32234
1932.22997	0.32289
1930.30159	0.32338
1928.37322	0.32383
1926.44485	0.32416
1924.51647	0.32439
1922.58810	0.32456
1920.65973	0.32466
1918.73135	0.32479
1916.80298	0.32499
1914.87461	0.32512
1912.94624	0.32519
1911.01786	0.32523
1909.08949	0.32510
1907.16112	0.32472
1905.23274	0.32414
1903.30437	0.32347
1901.37600	0.32265
1899.44762	0.32169
1897.51925	0.32069
1895.59088	0.31972
1893.66250	0.31880
1891.73413	0.31798
1889.80576	0.31734
1887.87738	0.31676
1885.94901	0.31619
1884.02064	0.31580
1882.09226	0.31571
1880.16389	0.31574
1878.23552	0.31571
1876.30714	0.31561
1874.37877	0.31551
1872.45040	0.31544
1870.52202	0.31532
1868.59365	0.31497
1866.66528	0.31438
1864.73690	0.31361
1862.80853	0.31264
1860.88016	0.31149
1858.95179	0.31025
1857.02341	0.30895
1855.09504	0.30754
1853.16667	0.30605
1851.23829	0.30445
1849.30992	0.30283
1847.38155	0.30125
1845.45317	0.29962
1843.52480	0.29776
1841.59643	0.29593
1839.66805	0.29429
1837.73968	0.29263
1835.81131	0.29082
1833.88293	0.28891
1831.95456	0.28690
1830.02619	0.28470
1828.09781	0.28238
1826.16944	0.27995
1824.24107	0.27714
1822.31269	0.27412
1820.38432	0.27104
1818.45595	0.26776
1816.52757	0.26432
1814.59920	0.26072
1812.67083	0.25687
1810.74245	0.25254
1808.81408	0.24798
1806.88571	0.24349
1804.95733	0.23896
1803.02896	0.23412
1801.10059	0.22864
1799.17222	0.22256
1797.24384	0.21644
1795.31547	0.21051
1793.38710	0.20394
1791.45872	0.19623
1789.53035	0.18882
1787.60198	0.18208
1785.67360	0.17515
1783.74523	0.16803
1781.81686	0.16116
1779.88848	0.15435
1777.96011	0.14783
1776.03174	0.14195
1774.10336	0.13608
1772.17499	0.12942
1770.24662	0.12271
1768.31824	0.11657
1766.38987	0.11050
1764.46150	0.10456
1762.53312	0.09790
1760.60475	0.09031
1758.67638	0.08288
1756.74800	0.07493
1754.81963	0.06658
1752.89126	0.05831
1750.96288	0.04896
1749.03451	0.03880
1747.10614	0.02965
1745.17777	0.02180
1743.24939	0.01513
1741.32102	0.00985
1739.39265	0.00597
1737.46427	0.00356
1735.53590	0.00221
1733.60753	0.00136
1731.67915	0.00081
1729.75078	0.00048
1727.82241	0.00029
1725.89403	0.00011
1723.96566	0.00006
1722.03729	0.00017
1720.10891	0.00022
1718.18054	0.00029
1716.25217	0.00015
1714.32379	0.00016
1712.39542	0.00016
1710.46705	0.00018
1708.53867	0.00037
1706.61030	0.00056
1704.68193	0.00054
1702.75355	0.00038
1700.82518	0.00022
1698.89681	0.00014
1696.96843	0.00020
1695.04006	0.00030
1693.11169	0.00033
1691.18331	0.00024
1689.25494	0.00021
1687.32657	0.00019
1685.39820	0.00024
1683.46982	0.00026
1681.54145	0.00030
1679.61308	0.00025
1677.68470	0.00029
1675.75633	0.00041
1673.82796	0.00049
1671.89958	0.00048
1669.97121	0.00050
1668.04284	0.00041
1666.11446	0.00019
1664.18609	0.00027
1662.25772	0.00026
1660.32934	0.00024
1658.40097	0.00018
1656.47260	0.00036
1654.54422	0.00054
1652.61585	0.00040
1650.68748	0.00020
1648.75910	0.00014
1646.83073	0.00018
1644.90236	0.00032
1642.97398	0.00033
1641.04561	0.00026
1639.11724	0.00020
1637.18886	0.00023
1635.26049	0.00034
1633.33212	0.00030
1631.40375	0.00024
1629.47537	0.00025
1627.54700	0.00020
1625.61863	0.00010
1623.69025	0.00009
1621.76188	0.00022
1619.83351	0.00034
1617.90513	0.00047
1615.97676	0.00040
1614.04839	0.00024
1612.12001	0.00013
1610.19164	0.00015
1608.26327	0.00020
1606.33489	0.00017
1604.40652	0.00018
1602.47815	0.00021
1600.54977	0.00030
1598.62140	0.00045
1596.69303	0.00042
1594.76465	0.00031
1592.83628	0.00036
1590.90791	0.00044
1588.97953	0.00038
1587.05116	0.00027
1585.12279	0.00022
1583.19441	0.00022
1581.26604	0.00026
1579.33767	0.00023
1577.40929	0.00024
1575.48092	0.00034
1573.55255	0.00034
1571.62418	0.00029
1569.69580	0.00021
1567.76743	0.00015
1565.83906	0.00014
1563.91068	0.00013
1561.98231	0.00026
1560.05394	0.00051
1558.12556	0.00050
1556.19719	0.00026
1554.26882	0.00020
1552.34044	0.00026
1550.41207	0.00039
1548.48370	0.00044
1546.55532	0.00045
1544.62695	0.00045
1542.69858	0.00037
1540.77020	0.00027
1538.84183	0.00025
1536.91346	0.00027
1534.98508	0.00033
1533.05671	0.00022
1531.12834	0.00004
1529.19996	0.00015
1527.27159	0.00023
1525.34322	0.00039
1523.41484	0.00045
1521.48647	0.00037
1519.55810	0.00018
1517.62972	0.00020
1515.70135	0.00019
1513.77298	0.00018
1511.84461	0.00034
1509.91623	0.00052
1507.98786	0.00050
1506.05949	0.00051
1504.13111	0.00052
1502.20274	0.00041
1500.27437	0.00041
1498.34599	0.00061
1496.41762	0.00072
1494.48925	0.00061
1492.56087	0.00044
1490.63250	0.00043
1488.70413	0.00044
1486.77575	0.00034
1484.84738	0.00021
1482.91901	0.00019
1480.99063	0.00024
1479.06226	0.00024
1477.13389	0.00032
1475.20551	0.00032
1473.27714	0.00030
1471.34877	0.00021
1469.42039	0.00020
1467.49202	0.00021
1465.56365	0.00031
1463.63527	0.00044
1461.70690	0.00046
1459.77853	0.00046
1457.85016	0.00042
1455.92178	0.00029
1453.99341	0.00032
1452.06504	0.00033
1450.13666	0.00024
1448.20829	0.00026
1446.27992	0.00036
1444.35154	0.00041
1442.42317	0.00038
1440.49480	0.00032
1438.56642	0.00041
1436.63805	0.00044
1434.70968	0.00034
1432.78130	0.00026
1430.85293	0.00024
1428.92456	0.00028
1426.99618	0.00028
1425.06781	0.00031
1423.13944	0.00039
1421.21106	0.00043
1419.28269	0.00037
1417.35432	0.00028
1415.42594	0.00025
1413.49757	0.00025
1411.56920	0.00026
1409.64082	0.00036
1407.71245	0.00034
1405.78408	0.00031
1403.85570	0.00030
1401.92733	0.00028
1399.99896	0.00028
1398.07059	0.00025
1396.14221	0.00024
1394.21384	0.00047
1392.28547	0.00057
1390.35709	0.00055
1388.42872	0.00046
1386.50035	0.00028
1384.57197	0.00021
1382.64360	0.00030
1380.71523	0.00034
1378.78685	0.00027
1376.85848	0.00027
1374.93011	0.00025
1373.00173	0.00034
1371.07336	0.00043
1369.14499	0.00035
1367.21661	0.00038
1365.28824	0.00045
1363.35987	0.00045
1361.43149	0.00050
1359.50312	0.00048
1357.57475	0.00038
1355.64637	0.00037
1353.71800	0.00035
1351.78963	0.00039
1349.86125	0.00043
1347.93288	0.00048
1346.00451	0.00043
1344.07614	0.00038
1342.14776	0.00048
1340.21939	0.00055
1338.29102	0.00048
1336.36264	0.00049
1334.43427	0.00050
1332.50590	0.00038
1330.57752	0.00034
1328.64915	0.00036
1326.72078	0.00039
1324.79240	0.00050
1322.86403	0.00064
1320.93566	0.00062
1319.00728	0.00045
1317.07891	0.00036
1315.15054	0.00037
1313.22216	0.00033
1311.29379	0.00030
1309.36542	0.00048
1307.43704	0.00056
1305.50867	0.00053
1303.58030	0.00058
1301.65192	0.00058
1299.72355	0.00043
1297.79518	0.00033
1295.86680	0.00034
1293.93843	0.00043
1292.01006	0.00056
1290.08168	0.00062
1288.15331	0.00056
1286.22494	0.00047
1284.29657	0.00037
1282.36819	0.00035
1280.43982	0.00054
1278.51145	0.00070
1276.58307	0.00070
1274.65470	0.00073
1272.72633	0.00071
1270.79795	0.00067
1268.86958	0.00062
1266.94121	0.00069
1265.01283	0.00081
1263.08446	0.00076
1261.15609	0.00080
1259.22771	0.00102
1257.29934	0.00107
1255.37097	0.00083
1253.44259	0.00051
1251.51422	0.00031
1249.58585	0.00051
1247.65747	0.00072
1245.72910	0.00078
1243.80073	0.00085
1241.87235	0.00097
1239.94398	0.00098
1238.01561	0.00098
1236.08723	0.00097
1234.15886	0.00102
1232.23049	0.00104
1230.30212	0.00098
1228.37374	0.00078
1226.44537	0.00061
1224.51700	0.00080
1222.58862	0.00081
1220.66025	0.00076
1218.73188	0.00081
1216.80350	0.00071
1214.87513	0.00057
1212.94676	0.00044
1211.01838	0.00064
1209.09001	0.00099
1207.16164	0.00097
1205.23326	0.00094
1203.30489	0.00094
1201.37652	0.00074
1199.44814	0.00065
1197.51977	0.00087
1195.59140	0.00105
1193.66302	0.00089
1191.73465	0.00071
1189.80628	0.00066
1187.87790	0.00075
1185.94953	0.00088
1184.02116	0.00082
1182.09278	0.00063
1180.16441	0.00071
1178.23604	0.00068
1176.30766	0.00056
1174.37929	0.00046
1172.45092	0.00044
1170.52255	0.00050
1168.59417	0.00065
1166.66580	0.00078
1164.73743	0.00083
1162.80905	0.00091
1160.88068	0.00088
1158.95231	0.00082
1157.02393	0.00073
1155.09556	0.00061
1153.16719	0.00104
1151.23881	0.00159
1149.31044	0.00165
1147.38207	0.00133
1145.45369	0.00115
1143.52532	0.00126
1141.59695	0.00132
1139.66857	0.00112
1137.74020	0.00087
1135.81183	0.00091
1133.88345	0.00108
1131.95508	0.00103
1130.02671	0.00097
1128.09833	0.00120
1126.16996	0.00125
1124.24159	0.00115
1122.31321	0.00109
1120.38484	0.00111
1118.45647	0.00115
1116.52809	0.00099
1114.59972	0.00093
1112.67135	0.00084
1110.74298	0.00073
1108.81460	0.00102
1106.88623	0.00134
1104.95786	0.00133
1103.02948	0.00113
1101.10111	0.00088
1099.17274	0.00064
1097.24436	0.00045
1095.31599	0.00069
1093.38762	0.00083
1091.45924	0.00083
1089.53087	0.00082
1087.60250	0.00095
1085.67412	0.00109
1083.74575	0.00131
1081.81738	0.00149
1079.88900	0.00135
1077.96063	0.00107
1076.03226	0.00096
1074.10388	0.00115
1072.17551	0.00148
1070.24714	0.00152
1068.31876	0.00121
1066.39039	0.00100
1064.46202	0.00106
1062.53364	0.00114
1060.60527	0.00109
1058.67690	0.00103
1056.74853	0.00093
1054.82015	0.00067
1052.89178	0.00049
1050.96341	0.00064
1049.03503	0.00075
1047.10666	0.00086
1045.17829	0.00121
1043.24991	0.00151
1041.32154	0.00149
1039.39317	0.00127
1037.46479	0.00103
1035.53642	0.00081
1033.60805	0.00071
1031.67967	0.00069
1029.75130	0.00068
1027.82293	0.00076
1025.89455	0.00083
1023.96618	0.00088
1022.03781	0.00097
1020.10943	0.00099
1018.18106	0.00092
1016.25269	0.00088
1014.32431	0.00105
1012.39594	0.00121
1010.46757	0.00122
1008.53919	0.00115
1006.61082	0.00107
1004.68245	0.00107
1002.75407	0.00098
1000.82570	0.00086
998.89733	0.00083
996.96896	0.00091
995.04058	0.00099
993.11221	0.00087
991.18384	0.00073
989.25546	0.00081
987.32709	0.00091
985.39872	0.00095
983.47034	0.00103
981.54197	0.00115
979.61360	0.00129
977.68522	0.00130
975.75685	0.00116
973.82848	0.00094
971.90010	0.00081
969.97173	0.00096
968.04336	0.00120
966.11498	0.00127
964.18661	0.00123
962.25824	0.00115
960.32986	0.00124
958.40149	0.00147
956.47312	0.00142
954.54474	0.00117
952.61637	0.00099
950.68800	0.00096
948.75962	0.00095
946.83125	0.00108
944.90288	0.00132
942.97451	0.00152
941.04613	0.00183
939.11776	0.00239
937.18939	0.00316
935.26101	0.00417
933.33264	0.00530
931.40427	0.00631
929.47589	0.00696
927.54752	0.00723
925.61915	0.00723
923.69077	0.00689
921.76240	0.00637
919.83403	0.00641
917.90565	0.00742
915.97728	0.00879
914.04891	0.00966
912.12053	0.00966
910.19216	0.00910
908.26379	0.00828
906.33541	0.00702
904.40704	0.00532
902.47867	0.00379
900.55029	0.00305
898.62192	0.00306
896.69355	0.00317
894.76517	0.00319
892.83680	0.00350
890.90843	0.00431
888.98005	0.00512
887.05168	0.00539
885.12331	0.00544
883.19494	0.00614
881.26656	0.00780
879.33819	0.00982
877.40982	0.01147
875.48144	0.01244
873.55307	0.01271
871.62470	0.01259
869.69632	0.01240
867.76795	0.01205
865.83958	0.01156
863.91120	0.01113
861.98283	0.01074
860.05446	0.01016
858.12608	0.00938
856.19771	0.00876
854.26934	0.00851
852.34096	0.00844
850.41259	0.00857
848.48422	0.00884
846.55584	0.00894
844.62747	0.00885
842.69910	0.00885
840.77072	0.00916
838.84235	0.00931
836.91398	0.00877
834.98560	0.00826
833.05723	0.00830
831.12886	0.00822
829.20049	0.00778
827.27211	0.00720
825.34374	0.00658
823.41537	0.00618
821.48699	0.00604
819.55862	0.00578
817.63025	0.00544
815.70187	0.00511
813.77350	0.00467
811.84513	0.00435
809.91675	0.00438
807.98838	0.00435
806.06001	0.00410
804.13163	0.00414
802.20326	0.00454
800.27489	0.00435
798.34651	0.00350
796.41814	0.00283
794.48977	0.00253
792.56139	0.00221
790.63302	0.00199
788.70465	0.00228
786.77627	0.00243
784.84790	0.00219
782.91953	0.00198
780.99115	0.00212
779.06278	0.00247
777.13441	0.00256
775.20603	0.00208
773.27766	0.00144
771.34929	0.00123
769.42092	0.00124
767.49254	0.00157
765.56417	0.00170
763.63580	0.00125
761.70742	0.00102
759.77905	0.00124
757.85068	0.00101
755.92230	0.00124
753.99393	0.00152
752.06556	0.00114
750.13718	0.00076
748.20881	0.00084
746.28044	0.00135
744.35206	0.00153
742.42369	0.00156
740.49532	0.00172
738.56694	0.00181
736.63857	0.00176
734.71020	0.00184
732.78182	0.00213
730.85345	0.00205
728.92508	0.00196
726.99670	0.00232
725.06833	0.00248
723.13996	0.00225
721.21158	0.00197
719.28321	0.00174
717.35484	0.00164
715.42647	0.00158
713.49809	0.00148
711.56972	0.00152
709.64135	0.00146
707.71297	0.00162
705.78460	0.00205
703.85623	0.00208
701.92785	0.00179
699.99948	0.00166
698.07111	0.00212
696.14273	0.00300
694.21436	0.00352
692.28599	0.00335
690.35761	0.00317
688.42924	0.00335
686.50087	0.00341
684.57249	0.00309
682.64412	0.00283
680.71575	0.00270
678.78737	0.00232
676.85900	0.00227
674.93063	0.00311
673.00225	0.00414
671.07388	0.00476
669.14551	0.00539
667.21713	0.00563
665.28876	0.00483
663.36039	0.00417
661.43201	0.00398
659.50364	0.00394
657.57527	0.00401
655.64690	0.00406
653.71852	0.00357
651.79015	0.00298
649.86178	0.00309
647.93340	0.00304
646.00503	0.00256
644.07666	0.00251
642.14828	0.00313
640.21991	0.00422
638.29154	0.00481
636.36316	0.00507
634.43479	0.00483
632.50642	0.00442
630.57804	0.00354
628.64967	0.00268
626.72130	0.00406
624.79292	0.00516
622.86455	0.00495
620.93618	0.00484
619.00780	0.00514
617.07943	0.00603
615.15106	0.00741
613.22268	0.00805
611.29431	0.00818
609.36594	0.00832
607.43756	0.00871
605.50919	0.00955
603.58082	0.01042
601.65244	0.01114
599.72407	0.01186
