3997.51769	0.45895
3995.58931	0.46010
3993.66094	0.46165
3991.73257	0.46333
3989.80419	0.46533
3987.87582	0.46770
3985.94745	0.47021
3984.01907	0.47272
3982.09070	0.47499
3980.16233	0.47685
3978.23396	0.47847
3976.30558	0.48001
3974.37721	0.48133
3972.44884	0.48232
3970.52046	0.48342
3968.59209	0.48515
3966.66372	0.48729
3964.73534	0.48931
3962.80697	0.49110
3960.87860	0.49265
3958.95022	0.49412
3957.02185	0.49579
3955.09348	0.49754
3953.16510	0.49917
3951.23673	0.50075
3949.30836	0.50236
3947.37998	0.50387
3945.45161	0.50538
3943.52324	0.50699
3941.59486	0.50826
3939.66649	0.50893
3937.73812	0.50953
3935.80974	0.51062
3933.88137	0.51255
3931.95300	0.51473
3930.02462	0.51593
3928.09625	0.51651
3926.16788	0.51766
3924.23950	0.51941
3922.31113	0.52118
3920.38276	0.52285
3918.45439	0.52441
3916.52601	0.52570
3914.59764	0.52683
3912.66927	0.52803
3910.74089	0.52943
3908.81252	0.53118
3906.88415	0.53369
3904.95577	0.53707
3903.02740	0.54049
3901.09903	0.54301
3899.17065	0.54427
3897.24228	0.54442
3895.31391	0.54475
3893.38553	0.54657
3891.45716	0.54942
3889.52879	0.55134
3887.60041	0.55294
3885.67204	0.55534
3883.74367	0.55698
3881.81529	0.55799
3879.88692	0.55952
3877.95855	0.56080
3876.03017	0.56252
3874.10180	0.56528
3872.17343	0.56813
3870.24505	0.57086
3868.31668	0.57233
3866.38831	0.57273
3864.45994	0.57393
3862.53156	0.57519
3860.60319	0.57571
3858.67482	0.57649
3856.74644	0.57902
3854.81807	0.58507
3852.88970	0.59014
3850.96132	0.58711
3849.03295	0.58284
3847.10458	0.58163
3845.17620	0.58299
3843.24783	0.58546
3841.31946	0.58796
3839.39108	0.59078
3837.46271	0.59278
3835.53434	0.59214
3833.60596	0.59092
3831.67759	0.59054
3829.74922	0.59033
3827.82084	0.59038
3825.89247	0.59108
3823.96410	0.59275
3822.03572	0.59577
3820.10735	0.59788
3818.17898	0.59790
3816.25060	0.59814
3814.32223	0.59752
3812.39386	0.59568
3810.46548	0.59503
3808.53711	0.59637
3806.60874	0.59831
3804.68037	0.59932
3802.75199	0.60083
3800.82362	0.60226
3798.89525	0.60100
3796.96687	0.59918
3795.03850	0.59814
3793.11013	0.59727
3791.18175	0.59673
3789.25338	0.59667
3787.32501	0.59698
3785.39663	0.59744
3783.46826	0.59769
3781.53989	0.59789
3779.61151	0.59813
3777.68314	0.59772
3775.75477	0.59688
3773.82639	0.59662
3771.89802	0.59718
3769.96965	0.59786
3768.04127	0.59759
3766.11290	0.59675
3764.18453	0.59595
3762.25615	0.59548
3760.32778	0.59574
3758.39941	0.59558
3756.47103	0.59461
3754.54266	0.59472
3752.61429	0.59724
3750.68591	0.59983
3748.75754	0.59865
3746.82917	0.59694
3744.90080	0.59689
3742.97242	0.59440
3741.04405	0.58968
3739.11568	0.58728
3737.18730	0.58776
3735.25893	0.58852
3733.33056	0.58667
3731.40218	0.58250
3729.47381	0.57863
3727.54544	0.57621
3725.61706	0.57470
3723.68869	0.57298
3721.76032	0.57048
3719.83194	0.56724
3717.90357	0.56353
3715.97520	0.56027
3714.04682	0.55817
3712.11845	0.55669
3710.19008	0.55337
3708.26170	0.54779
3706.33333	0.54190
3704.40496	0.53647
3702.47658	0.53113
3700.54821	0.52458
3698.61984	0.51711
3696.69146	0.50950
3694.76309	0.50178
3692.83472	0.49409
3690.90635	0.48575
3688.97797	0.47449
3687.04960	0.45974
3685.12123	0.44482
3683.19285	0.43050
3681.26448	0.41570
3679.33611	0.40094
3677.40773	0.38643
3675.47936	0.36830
3673.55099	0.34801
3671.62261	0.33091
3669.69424	0.31246
3667.76587	0.29243
3665.83749	0.27486
3663.90912	0.25815
3661.98075	0.24133
3660.05237	0.22518
3658.12400	0.20984
3656.19563	0.19388
3654.26725	0.17894
3652.33888	0.16685
3650.41051	0.15445
3648.48213	0.13966
3646.55376	0.12576
3644.62539	0.11464
3642.69701	0.10501
3640.76864	0.09581
3638.84027	0.08693
3636.91189	0.07880
3634.98352	0.07153
3633.05515	0.06496
3631.12678	0.05899
3629.19840	0.05258
3627.27003	0.04596
3625.34166	0.04095
3623.41328	0.03706
3621.48491	0.03359
3619.55654	0.03000
3617.62816	0.02637
3615.69979	0.02338
3613.77142	0.02079
3611.84304	0.01837
3609.91467	0.01635
3607.98630	0.01453
3606.05792	0.01264
3604.12955	0.01101
3602.20118	0.00971
3600.27280	0.00854
3598.34443	0.00743
3596.41606	0.00644
3594.48768	0.00562
3592.55931	0.00476
3590.63094	0.00375
3588.70256	0.00280
3586.77419	0.00231
3584.84582	0.00214
3582.91744	0.00192
3580.98907	0.00181
3579.06070	0.00178
3577.13233	0.00154
3575.20395	0.00107
3573.27558	0.00062
3571.34721	0.00033
3569.41883	0.00030
3567.49046	0.00043
3565.56209	0.00042
3563.63371	0.00039
3561.70534	0.00043
3559.77697	0.00057
3557.84859	0.00083
3555.92022	0.00098
3553.99185	0.00093
3552.06347	0.00081
3550.13510	0.00068
3548.20673	0.00061
3546.27835	0.00064
3544.34998	0.00083
3542.42161	0.00092
3540.49323	0.00085
3538.56486	0.00086
3536.63649	0.00084
3534.70811	0.00088
3532.77974	0.00100
3530.85137	0.00097
3528.92299	0.00086
3526.99462	0.00077
3525.06625	0.00079
3523.13787	0.00096
3521.20950	0.00100
3519.28113	0.00088
3517.35276	0.00078
3515.42438	0.00073
3513.49601	0.00075
3511.56764	0.00080
3509.63926	0.00077
3507.71089	0.00080
3505.78252	0.00095
3503.85414	0.00100
3501.92577	0.00087
3499.99740	0.00081
3498.06902	0.00089
3496.14065	0.00082
3494.21228	0.00088
3492.28390	0.00097
3490.35553	0.00089
3488.42716	0.00074
3486.49878	0.00076
3484.57041	0.00094
3482.64204	0.00105
3480.71366	0.00104
3478.78529	0.00091
3476.85692	0.00080
3474.92854	0.00089
3473.00017	0.00081
3471.07180	0.00056
3469.14342	0.00036
3467.21505	0.00045
3465.28668	0.00052
3463.35831	0.00062
3461.42993	0.00084
3459.50156	0.00089
3457.57319	0.00073
3455.64481	0.00075
3453.71644	0.00093
3451.78807	0.00095
3449.85969	0.00086
3447.93132	0.00068
3446.00295	0.00067
3444.07457	0.00083
3442.14620	0.00085
3440.21783	0.00050
3438.28945	0.00032
3436.36108	0.00049
3434.43271	0.00076
3432.50433	0.00086
3430.57596	0.00091
3428.64759	0.00097
3426.71921	0.00085
3424.79084	0.00066
3422.86247	0.00061
3420.93409	0.00082
3419.00572	0.00111
3417.07735	0.00109
3415.14897	0.00088
3413.22060	0.00075
3411.29223	0.00072
3409.36385	0.00067
3407.43548	0.00072
3405.50711	0.00091
3403.57874	0.00110
3401.65036	0.00121
3399.72199	0.00113
3397.79362	0.00094
3395.86524	0.00087
3393.93687	0.00084
3392.00850	0.00089
3390.08012	0.00103
3388.15175	0.00106
3386.22338	0.00083
3384.29500	0.00057
3382.36663	0.00053
3380.43826	0.00061
3378.50988	0.00087
3376.58151	0.00109
3374.65314	0.00108
3372.72476	0.00090
3370.79639	0.00078
3368.86802	0.00069
3366.93964	0.00061
3365.01127	0.00048
3363.08290	0.00042
3361.15452	0.00050
3359.22615	0.00042
3357.29778	0.00060
3355.36940	0.00080
3353.44103	0.00101
3351.51266	0.00115
3349.58428	0.00112
3347.65591	0.00095
3345.72754	0.00081
3343.79917	0.00085
3341.87079	0.00103
3339.94242	0.00112
3338.01405	0.00096
3336.08567	0.00095
3334.15730	0.00120
3332.22893	0.00140
3330.30055	0.00133
3328.37218	0.00114
3326.44381	0.00104
3324.51543	0.00100
3322.58706	0.00096
3320.65869	0.00101
3318.73031	0.00100
3316.80194	0.00084
3314.87357	0.00068
3312.94519	0.00069
3311.01682	0.00083
3309.08845	0.00093
3307.16007	0.00085
3305.23170	0.00077
3303.30333	0.00079
3301.37495	0.00067
3299.44658	0.00047
3297.51821	0.00051
3295.58983	0.00070
3293.66146	0.00075
3291.73309	0.00085
3289.80472	0.00103
3287.87634	0.00106
3285.94797	0.00092
3284.01960	0.00077
3282.09122	0.00081
3280.16285	0.00090
3278.23448	0.00097
3276.30610	0.00086
3274.37773	0.00073
3272.44936	0.00065
3270.52098	0.00068
3268.59261	0.00076
3266.66424	0.00084
3264.73586	0.00091
3262.80749	0.00094
3260.87912	0.00088
3258.95074	0.00072
3257.02237	0.00064
3255.09400	0.00060
3253.16562	0.00046
3251.23725	0.00045
3249.30888	0.00063
3247.38050	0.00085
3245.45213	0.00098
3243.52376	0.00100
3241.59538	0.00098
3239.66701	0.00095
3237.73864	0.00080
3235.81026	0.00066
3233.88189	0.00070
3231.95352	0.00068
3230.02515	0.00068
3228.09677	0.00082
3226.16840	0.00090
3224.24003	0.00087
3222.31165	0.00086
3220.38328	0.00078
3218.45491	0.00069
3216.52653	0.00068
3214.59816	0.00062
3212.66979	0.00053
3210.74141	0.00075
3208.81304	0.00093
3206.88467	0.00088
3204.95629	0.00088
3203.02792	0.00095
3201.09955	0.00095
3199.17117	0.00083
3197.24280	0.00060
3195.31443	0.00043
3193.38605	0.00039
3191.45768	0.00058
3189.52931	0.00073
3187.60093	0.00081
3185.67256	0.00089
3183.74419	0.00087
3181.81581	0.00076
3179.88744	0.00069
3177.95907	0.00061
3176.03070	0.00054
3174.10232	0.00071
3172.17395	0.00096
3170.24558	0.00090
3168.31720	0.00061
3166.38883	0.00059
3164.46046	0.00081
3162.53208	0.00086
3160.60371	0.00060
3158.67534	0.00036
3156.74696	0.00042
3154.81859	0.00061
3152.89022	0.00076
3150.96184	0.00081
3149.03347	0.00077
3147.10510	0.00073
3145.17672	0.00067
3143.24835	0.00060
3141.31998	0.00075
3139.39160	0.00090
3137.46323	0.00093
3135.53486	0.00085
3133.60648	0.00073
3131.67811	0.00071
3129.74974	0.00079
3127.82136	0.00074
3125.89299	0.00060
3123.96462	0.00057
3122.03624	0.00057
3120.10787	0.00056
3118.17950	0.00054
3116.25113	0.00071
3114.32275	0.00085
3112.39438	0.00073
3110.46601	0.00055
3108.53763	0.00053
3106.60926	0.00062
3104.68089	0.00075
3102.75251	0.00080
3100.82414	0.00071
3098.89577	0.00067
3096.96739	0.00075
3095.03902	0.00079
3093.11065	0.00075
3091.18227	0.00078
3089.25390	0.00076
3087.32553	0.00071
3085.39715	0.00079
3083.46878	0.00102
3081.54041	0.00118
3079.61203	0.00122
3077.68366	0.00111
3075.75529	0.00098
3073.82691	0.00101
3071.89854	0.00107
3069.97017	0.00109
3068.04179	0.00094
3066.11342	0.00061
3064.18505	0.00046
3062.25668	0.00060
3060.32830	0.00078
3058.39993	0.00070
3056.47156	0.00056
3054.54318	0.00071
3052.61481	0.00094
3050.68644	0.00087
3048.75806	0.00062
3046.82969	0.00064
3044.90132	0.00073
3042.97294	0.00077
3041.04457	0.00072
3039.11620	0.00055
3037.18782	0.00037
3035.25945	0.00035
3033.33108	0.00048
3031.40270	0.00057
3029.47433	0.00045
3027.54596	0.00030
3025.61758	0.00024
3023.68921	0.00025
3021.76084	0.00034
3019.83246	0.00041
3017.90409	0.00053
3015.97572	0.00053
3014.04734	0.00047
3012.11897	0.00061
3010.19060	0.00080
3008.26222	0.00082
3006.33385	0.00073
3004.40548	0.00073
3002.47711	0.00074
3000.54873	0.00048
2998.62036	0.00027
2996.69199	0.00045
2994.76361	0.00074
2992.83524	0.00090
2990.90687	0.00087
2988.97849	0.00089
2987.05012	0.00098
2985.12175	0.00098
2983.19337	0.00099
2981.26500	0.00097
2979.33663	0.00090
2977.40825	0.00080
2975.47988	0.00073
2973.55151	0.00082
2971.62313	0.00110
2969.69476	0.00132
2967.76639	0.00138
2965.83801	0.00116
2963.90964	0.00090
2961.98127	0.00089
2960.05289	0.00118
2958.12452	0.00162
2956.19615	0.00165
2954.26777	0.00132
2952.33940	0.00103
2950.41103	0.00100
2948.48266	0.00105
2946.55428	0.00111
2944.62591	0.00109
2942.69754	0.00098
2940.76916	0.00113
2938.84079	0.00134
2936.91242	0.00125
2934.98404	0.00107
2933.05567	0.00104
2931.12730	0.00098
2929.19892	0.00092
2927.27055	0.00099
2925.34218	0.00102
2923.41380	0.00104
2921.48543	0.00106
2919.55706	0.00095
2917.62868	0.00078
2915.70031	0.00079
2913.77194	0.00088
2911.84356	0.00096
2909.91519	0.00100
2907.98682	0.00100
2906.05844	0.00100
2904.13007	0.00102
2902.20170	0.00102
2900.27332	0.00105
2898.34495	0.00106
2896.41658	0.00103
2894.48820	0.00107
2892.55983	0.00106
2890.63146	0.00090
2888.70309	0.00083
2886.77471	0.00092
2884.84634	0.00096
2882.91797	0.00090
2880.98959	0.00088
2879.06122	0.00096
2877.13285	0.00103
2875.20447	0.00098
2873.27610	0.00089
2871.34773	0.00079
2869.41935	0.00068
2867.49098	0.00067
2865.56261	0.00060
2863.63423	0.00045
2861.70586	0.00043
2859.77749	0.00060
2857.84911	0.00068
2855.92074	0.00058
2853.99237	0.00050
2852.06399	0.00046
2850.13562	0.00045
2848.20725	0.00059
2846.27887	0.00082
2844.35050	0.00097
2842.42213	0.00115
2840.49375	0.00141
2838.56538	0.00162
2836.63701	0.00181
2834.70863	0.00207
2832.78026	0.00241
2830.85189	0.00271
2828.92352	0.00293
2826.99514	0.00315
2825.06677	0.00335
2823.13840	0.00353
2821.21002	0.00372
2819.28165	0.00392
2817.35328	0.00408
2815.42490	0.00440
2813.49653	0.00499
2811.56816	0.00557
2809.63978	0.00605
2807.71141	0.00653
2805.78304	0.00697
2803.85466	0.00746
2801.92629	0.00806
2799.99792	0.00869
2798.06954	0.00933
2796.14117	0.01000
2794.21280	0.01059
2792.28442	0.01102
2790.35605	0.01141
2788.42768	0.01189
2786.49930	0.01245
2784.57093	0.01297
2782.64256	0.01338
2780.71418	0.01373
2778.78581	0.01417
2776.85744	0.01465
2774.92907	0.01497
2773.00069	0.01520
2771.07232	0.01559
2769.14395	0.01608
2767.21557	0.01659
2765.28720	0.01716
2763.35883	0.01776
2761.43045	0.01825
2759.50208	0.01869
2757.57371	0.01916
2755.64533	0.01969
2753.71696	0.02027
2751.78859	0.02081
2749.86021	0.02128
2747.93184	0.02177
2746.00347	0.02229
2744.07509	0.02277
2742.14672	0.02319
2740.21835	0.02356
2738.28997	0.02396
2736.36160	0.02437
2734.43323	0.02476
2732.50485	0.02514
2730.57648	0.02552
2728.64811	0.02587
2726.71973	0.02621
2724.79136	0.02670
2722.86299	0.02740
2720.93461	0.02819
2719.00624	0.02885
2717.07787	0.02944
2715.14950	0.03010
2713.22112	0.03074
2711.29275	0.03137
2709.36438	0.03214
2707.43600	0.03303
2705.50763	0.03387
2703.57926	0.03471
2701.65088	0.03571
2699.72251	0.03675
2697.79414	0.03760
2695.86576	0.03836
2693.93739	0.03921
2692.00902	0.04015
2690.08064	0.04116
2688.15227	0.04218
2686.22390	0.04315
2684.29552	0.04409
2682.36715	0.04511
2680.43878	0.04617
2678.51040	0.04723
2676.58203	0.04831
2674.65366	0.04944
2672.72528	0.05050
2670.79691	0.05150
2668.86854	0.05256
2666.94016	0.05362
2665.01179	0.05459
2663.08342	0.05552
2661.15505	0.05640
2659.22667	0.05717
2657.29830	0.05788
2655.36993	0.05846
2653.44155	0.05881
2651.51318	0.05909
2649.58481	0.05944
2647.65643	0.05989
2645.72806	0.06036
2643.79969	0.06083
2641.87131	0.06136
2639.94294	0.06192
2638.01457	0.06238
2636.08619	0.06280
2634.15782	0.06329
2632.22945	0.06384
2630.30107	0.06440
2628.37270	0.06504
2626.44433	0.06578
2624.51595	0.06657
2622.58758	0.06728
2620.65921	0.06791
2618.73083	0.06864
2616.80246	0.06961
2614.87409	0.07072
2612.94571	0.07182
2611.01734	0.07286
2609.08897	0.07384
2607.16059	0.07477
2605.23222	0.07572
2603.30385	0.07666
2601.37548	0.07755
2599.44710	0.07839
2597.51873	0.07922
2595.59036	0.07999
2593.66198	0.08058
2591.73361	0.08094
2589.80524	0.08131
2587.87686	0.08196
2585.94849	0.08277
2584.02012	0.08351
2582.09174	0.08424
2580.16337	0.08512
2578.23500	0.08611
2576.30662	0.08707
2574.37825	0.08809
2572.44988	0.08932
2570.52150	0.09084
2568.59313	0.09253
2566.66476	0.09423
2564.73638	0.09600
2562.80801	0.09802
2560.87964	0.10026
2558.95126	0.10258
2557.02289	0.10484
2555.09452	0.10697
2553.16614	0.10903
2551.23777	0.11097
2549.30940	0.11264
2547.38103	0.11415
2545.45265	0.11555
2543.52428	0.11677
2541.59591	0.11784
2539.66753	0.11877
2537.73916	0.11962
2535.81079	0.12047
2533.88241	0.12129
2531.95404	0.12207
2530.02567	0.12284
2528.09729	0.12366
2526.16892	0.12467
2524.24055	0.12593
2522.31217	0.12733
2520.38380	0.12872
2518.45543	0.13004
2516.52705	0.13136
2514.59868	0.13277
2512.67031	0.13426
2510.74193	0.13575
2508.81356	0.13722
2506.88519	0.13870
2504.95681	0.14021
2503.02844	0.14175
2501.10007	0.14331
2499.17169	0.14493
2497.24332	0.14670
2495.31495	0.14857
2493.38657	0.15032
2491.45820	0.15195
2489.52983	0.15365
2487.60146	0.15550
2485.67308	0.15744
2483.74471	0.15936
2481.81634	0.16122
2479.88796	0.16300
2477.95959	0.16471
2476.03122	0.16652
2474.10284	0.16851
2472.17447	0.17059
2470.24610	0.17258
2468.31772	0.17451
2466.38935	0.17651
2464.46098	0.17856
2462.53260	0.18059
2460.60423	0.18264
2458.67586	0.18462
2456.74748	0.18649
2454.81911	0.18840
2452.89074	0.19041
2450.96236	0.19247
2449.03399	0.19449
2447.10562	0.19637
2445.17724	0.19812
2443.24887	0.19985
2441.32050	0.20164
2439.39212	0.20357
2437.46375	0.20561
2435.53538	0.20761
2433.60700	0.20953
2431.67863	0.21135
2429.75026	0.21306
2427.82189	0.21478
2425.89351	0.21649
2423.96514	0.21802
2422.03677	0.21931
2420.10839	0.22045
2418.18002	0.22159
2416.25165	0.22273
2414.32327	0.22388
2412.39490	0.22524
2410.46653	0.22692
2408.53815	0.22875
2406.60978	0.23061
2404.68141	0.23269
2402.75303	0.23497
2400.82466	0.23723
2398.89629	0.23943
2396.96791	0.24167
2395.03954	0.24397
2393.11117	0.24622
2391.18279	0.24833
2389.25442	0.25030
2387.32605	0.25211
2385.39767	0.25371
2383.46930	0.25519
2381.54093	0.25663
2379.61255	0.25791
2377.68418	0.25908
2375.75581	0.26033
2373.82744	0.26177
2371.89906	0.26334
2369.97069	0.26492
2368.04232	0.26644
2366.11394	0.26792
2364.18557	0.26946
2362.25720	0.27127
2360.32882	0.27313
2358.40045	0.27466
2356.47208	0.27591
2354.54370	0.27698
2352.61533	0.27806
2350.68696	0.27894
2348.75858	0.27947
2346.83021	0.28008
2344.90184	0.28106
2342.97346	0.28218
2341.04509	0.28299
2339.11672	0.28332
2337.18834	0.28343
2335.25997	0.28392
2333.33160	0.28480
2331.40322	0.28573
2329.47485	0.28650
2327.54648	0.28701
2325.61810	0.28745
2323.68973	0.28819
2321.76136	0.28945
2319.83298	0.29104
2317.90461	0.29274
2315.97624	0.29471
2314.04787	0.29718
2312.11949	0.30006
2310.19112	0.30304
2308.26275	0.30591
2306.33437	0.30859
2304.40600	0.31111
2302.47763	0.31354
2300.54925	0.31582
2298.62088	0.31772
2296.69251	0.31933
2294.76413	0.32088
2292.83576	0.32241
2290.90739	0.32376
2288.97901	0.32485
2287.05064	0.32578
2285.12227	0.32653
2283.19389	0.32704
2281.26552	0.32738
2279.33715	0.32760
2277.40877	0.32774
2275.48040	0.32785
2273.55203	0.32795
2271.62365	0.32792
2269.69528	0.32783
2267.76691	0.32781
2265.83853	0.32791
2263.91016	0.32816
2261.98179	0.32854
2260.05342	0.32904
2258.12504	0.32977
2256.19667	0.33073
2254.26830	0.33190
2252.33992	0.33333
2250.41155	0.33489
2248.48318	0.33638
2246.55480	0.33787
2244.62643	0.33940
2242.69806	0.34084
2240.76968	0.34205
2238.84131	0.34304
2236.91294	0.34384
2234.98456	0.34446
2233.05619	0.34494
2231.12782	0.34541
2229.19944	0.34587
2227.27107	0.34621
2225.34270	0.34643
2223.41432	0.34661
2221.48595	0.34666
2219.55758	0.34647
2217.62920	0.34607
2215.70083	0.34549
2213.77246	0.34486
2211.84408	0.34429
2209.91571	0.34373
2207.98734	0.34306
2206.05896	0.34231
2204.13059	0.34152
2202.20222	0.34073
2200.27385	0.33990
2198.34547	0.33891
2196.41710	0.33783
2194.48873	0.33683
2192.56035	0.33588
2190.63198	0.33491
2188.70361	0.33401
2186.77523	0.33332
2184.84686	0.33279
2182.91849	0.33227
2180.99011	0.33170
2179.06174	0.33121
2177.13337	0.33074
2175.20499	0.33018
2173.27662	0.32949
2171.34825	0.32882
2169.41987	0.32822
2167.49150	0.32762
2165.56313	0.32706
2163.63475	0.32669
2161.70638	0.32647
2159.77801	0.32630
2157.84963	0.32619
2155.92126	0.32618
2153.99289	0.32630
2152.06451	0.32656
2150.13614	0.32693
2148.20777	0.32735
2146.27940	0.32768
2144.35102	0.32796
2142.42265	0.32833
2140.49428	0.32872
2138.56590	0.32905
2136.63753	0.32937
2134.70916	0.32973
2132.78078	0.33015
2130.85241	0.33066
2128.92404	0.33129
2126.99566	0.33211
2125.06729	0.33319
2123.13892	0.33462
2121.21054	0.33627
2119.28217	0.33789
2117.35380	0.33947
2115.42542	0.34114
2113.49705	0.34286
2111.56868	0.34447
2109.64030	0.34595
2107.71193	0.34728
2105.78356	0.34845
2103.85518	0.34945
2101.92681	0.35033
2099.99844	0.35117
2098.07006	0.35191
2096.14169	0.35248
2094.21332	0.35295
2092.28494	0.35329
2090.35657	0.35339
2088.42820	0.35329
2086.49983	0.35317
2084.57145	0.35304
2082.64308	0.35287
2080.71471	0.35267
2078.78633	0.35245
2076.85796	0.35228
2074.92959	0.35220
2073.00121	0.35219
2071.07284	0.35234
2069.14447	0.35278
2067.21609	0.35353
2065.28772	0.35454
2063.35935	0.35579
2061.43097	0.35736
2059.50260	0.35929
2057.57423	0.36146
2055.64585	0.36379
2053.71748	0.36628
2051.78911	0.36891
2049.86073	0.37150
2047.93236	0.37388
2046.00399	0.37607
2044.07561	0.37819
2042.14724	0.38028
2040.21887	0.38223
2038.29049	0.38393
2036.36212	0.38539
2034.43375	0.38672
2032.50538	0.38793
2030.57700	0.38902
2028.64863	0.38991
2026.72026	0.39053
2024.79188	0.39102
2022.86351	0.39162
2020.93514	0.39238
2019.00676	0.39334
2017.07839	0.39450
2015.15002	0.39576
2013.22164	0.39711
2011.29327	0.39862
2009.36490	0.40028
2007.43652	0.40201
2005.50815	0.40379
2003.57978	0.40557
2001.65140	0.40730
1999.72303	0.40886
1997.79466	0.41020
1995.86628	0.41125
1993.93791	0.41207
1992.00954	0.41277
1990.08116	0.41327
1988.15279	0.41358
1986.22442	0.41386
1984.29604	0.41412
1982.36767	0.41427
1980.43930	0.41437
1978.51092	0.41451
1976.58255	0.41475
1974.65418	0.41512
1972.72581	0.41560
1970.79743	0.41611
1968.86906	0.41665
1966.94069	0.41728
1965.01231	0.41795
1963.08394	0.41868
1961.15557	0.41963
1959.22719	0.42078
1957.29882	0.42205
1955.37045	0.42347
1953.44207	0.42513
1951.51370	0.42702
1949.58533	0.42903
1947.65695	0.43104
1945.72858	0.43297
1943.80021	0.43484
1941.87183	0.43668
1939.94346	0.43830
1938.01509	0.43952
1936.08671	0.44045
1934.15834	0.44122
1932.22997	0.44197
1930.30159	0.44269
1928.37322	0.44327
1926.44485	0.44373
1924.51647	0.44418
1922.58810	0.44456
1920.65973	0.44485
1918.73135	0.44517
1916.80298	0.44554
1914.87461	0.44577
1912.94624	0.44581
1911.01786	0.44575
1909.08949	0.44554
1907.16112	0.44518
1905.23274	0.44455
1903.30437	0.44368
1901.37600	0.44271
1899.44762	0.44164
1897.51925	0.44045
1895.59088	0.43921
1893.66250	0.43805
1891.73413	0.43700
1889.80576	0.43613
1887.87738	0.43551
1885.94901	0.43511
1884.02064	0.43488
1882.09226	0.43470
1880.16389	0.43459
1878.23552	0.43456
1876.30714	0.43455
1874.37877	0.43444
1872.45040	0.43425
1870.52202	0.43409
1868.59365	0.43378
1866.66528	0.43310
1864.73690	0.43211
1862.80853	0.43095
1860.88016	0.42967
1858.95179	0.42831
1857.02341	0.42689
1855.09504	0.42535
1853.16667	0.42370
1851.23829	0.42199
1849.30992	0.42017
1847.38155	0.41826
1845.45317	0.41638
1843.52480	0.41446
1841.59643	0.41242
1839.66805	0.41041
1837.73968	0.40834
1835.81131	0.40614
1833.88293	0.40392
1831.95456	0.40170
1830.02619	0.39930
1828.09781	0.39666
1826.16944	0.39386
1824.24107	0.39064
1822.31269	0.38703
1820.38432	0.38321
1818.45595	0.37928
1816.52757	0.37519
1814.59920	0.37069
1812.67083	0.36579
1810.74245	0.36056
1808.81408	0.35517
1806.88571	0.34968
1804.95733	0.34395
1803.02896	0.33775
1801.10059	0.33085
1799.17222	0.32346
1797.24384	0.31591
1795.31547	0.30817
1793.38710	0.29945
1791.45872	0.28950
1789.53035	0.27993
1787.60198	0.27110
1785.67360	0.26196
1783.74523	0.25254
1781.81686	0.24335
1779.88848	0.23422
1777.96011	0.22538
1776.03174	0.21728
1774.10336	0.20922
1772.17499	0.20008
1770.24662	0.19080
1768.31824	0.18228
1766.38987	0.17377
1764.46150	0.16527
1762.53312	0.15579
1760.60475	0.14492
1758.67638	0.13404
1756.74800	0.12228
1754.81963	0.10989
1752.89126	0.09756
1750.96288	0.08353
1749.03451	0.06797
1747.10614	0.05344
1745.17777	0.04050
1743.24939	0.02915
1741.32102	0.01973
1739.39265	0.01223
1737.46427	0.00727
1735.53590	0.00427
1733.60753	0.00217
1731.67915	0.00102
1729.75078	0.00050
1727.82241	0.00035
1725.89403	0.00033
1723.96566	0.00036
1722.03729	0.00057
1720.10891	0.00082
1718.18054	0.00102
1716.25217	0.00100
1714.32379	0.00088
1712.39542	0.00090
1710.46705	0.00091
1708.53867	0.00084
1706.61030	0.00074
1704.68193	0.00068
1702.75355	0.00078
1700.82518	0.00108
1698.89681	0.00123
1696.96843	0.00105
1695.04006	0.00082
1693.11169	0.00063
1691.18331	0.00051
1689.25494	0.00050
1687.32657	0.00046
1685.39820	0.00054
1683.46982	0.00089
1681.54145	0.00093
1679.61308	0.00083
1677.68470	0.00078
1675.75633	0.00072
1673.82796	0.00063
1671.89958	0.00059
1669.97121	0.00064
1668.04284	0.00062
1666.11446	0.00055
1664.18609	0.00050
1662.25772	0.00042
1660.32934	0.00039
1658.40097	0.00050
1656.47260	0.00062
1654.54422	0.00076
1652.61585	0.00084
1650.68748	0.00079
1648.75910	0.00076
1646.83073	0.00066
1644.90236	0.00049
1642.97398	0.00047
1641.04561	0.00061
1639.11724	0.00080
1637.18886	0.00098
1635.26049	0.00103
1633.33212	0.00084
1631.40375	0.00059
1629.47537	0.00043
1627.54700	0.00051
1625.61863	0.00067
1623.69025	0.00071
1621.76188	0.00063
1619.83351	0.00051
1617.90513	0.00048
1615.97676	0.00058
1614.04839	0.00069
1612.12001	0.00063
1610.19164	0.00060
1608.26327	0.00065
1606.33489	0.00066
1604.40652	0.00067
1602.47815	0.00074
1600.54977	0.00071
1598.62140	0.00053
1596.69303	0.00044
1594.76465	0.00058
1592.83628	0.00069
1590.90791	0.00068
1588.97953	0.00061
1587.05116	0.00061
1585.12279	0.00064
1583.19441	0.00062
1581.26604	0.00060
1579.33767	0.00068
1577.40929	0.00080
1575.48092	0.00073
1573.55255	0.00056
1571.62418	0.00046
1569.69580	0.00051
1567.76743	0.00060
1565.83906	0.00069
1563.91068	0.00070
1561.98231	0.00074
1560.05394	0.00101
1558.12556	0.00118
1556.19719	0.00087
1554.26882	0.00063
1552.34044	0.00068
1550.41207	0.00071
1548.48370	0.00062
1546.55532	0.00056
1544.62695	0.00061
1542.69858	0.00075
1540.77020	0.00086
1538.84183	0.00093
1536.91346	0.00084
1534.98508	0.00081
1533.05671	0.00080
1531.12834	0.00077
1529.19996	0.00076
1527.27159	0.00065
1525.34322	0.00060
1523.41484	0.00073
1521.48647	0.00100
1519.55810	0.00097
1517.62972	0.00070
1515.70135	0.00056
1513.77298	0.00065
1511.84461	0.00072
1509.91623	0.00076
1507.98786	0.00084
1506.05949	0.00081
1504.13111	0.00064
1502.20274	0.00054
1500.27437	0.00048
1498.34599	0.00050
1496.41762	0.00047
1494.48925	0.00047
1492.56087	0.00047
1490.63250	0.00058
1488.70413	0.00071
1486.77575	0.00068
1484.84738	0.00053
1482.91901	0.00040
1480.99063	0.00044
1479.06226	0.00058
1477.13389	0.00074
1475.20551	0.00084
1473.27714	0.00080
1471.34877	0.00074
1469.42039	0.00073
1467.49202	0.00077
1465.56365	0.00077
1463.63527	0.00071
1461.70690	0.00077
1459.77853	0.00099
1457.85016	0.00125
1455.92178	0.00116
1453.99341	0.00076
1452.06504	0.00048
1450.13666	0.00039
1448.20829	0.00045
1446.27992	0.00049
1444.35154	0.00038
1442.42317	0.00040
1440.49480	0.00048
1438.56642	0.00050
1436.63805	0.00045
1434.70968	0.00045
1432.78130	0.00048
1430.85293	0.00056
1428.92456	0.00068
1426.99618	0.00074
1425.06781	0.00071
1423.13944	0.00065
1421.21106	0.00058
1419.28269	0.00067
1417.35432	0.00079
1415.42594	0.00088
1413.49757	0.00098
1411.56920	0.00107
1409.64082	0.00100
1407.71245	0.00080
1405.78408	0.00065
1403.85570	0.00058
1401.92733	0.00057
1399.99896	0.00055
1398.07059	0.00061
1396.14221	0.00071
1394.21384	0.00071
1392.28547	0.00064
1390.35709	0.00069
1388.42872	0.00069
1386.50035	0.00072
1384.57197	0.00092
1382.64360	0.00101
1380.71523	0.00097
1378.78685	0.00090
1376.85848	0.00080
1374.93011	0.00068
1373.00173	0.00061
1371.07336	0.00064
1369.14499	0.00072
1367.21661	0.00077
1365.28824	0.00079
1363.35987	0.00074
1361.43149	0.00065
1359.50312	0.00069
1357.57475	0.00080
1355.64637	0.00075
1353.71800	0.00061
1351.78963	0.00056
1349.86125	0.00057
1347.93288	0.00052
1346.00451	0.00052
1344.07614	0.00061
1342.14776	0.00068
1340.21939	0.00062
1338.29102	0.00055
1336.36264	0.00061
1334.43427	0.00067
1332.50590	0.00065
1330.57752	0.00067
1328.64915	0.00080
1326.72078	0.00089
1324.79240	0.00084
1322.86403	0.00079
1320.93566	0.00084
1319.00728	0.00091
1317.07891	0.00089
1315.15054	0.00081
1313.22216	0.00075
1311.29379	0.00069
1309.36542	0.00077
1307.43704	0.00100
1305.50867	0.00105
1303.58030	0.00086
1301.65192	0.00071
1299.72355	0.00069
1297.79518	0.00068
1295.86680	0.00063
1293.93843	0.00068
1292.01006	0.00087
1290.08168	0.00103
1288.15331	0.00100
1286.22494	0.00086
1284.29657	0.00078
1282.36819	0.00086
1280.43982	0.00104
1278.51145	0.00110
1276.58307	0.00094
1274.65470	0.00078
1272.72633	0.00072
1270.79795	0.00058
1268.86958	0.00051
1266.94121	0.00069
1265.01283	0.00099
1263.08446	0.00118
1261.15609	0.00122
1259.22771	0.00109
1257.29934	0.00096
1255.37097	0.00103
1253.44259	0.00109
1251.51422	0.00092
1249.58585	0.00063
1247.65747	0.00061
1245.72910	0.00079
1243.80073	0.00101
1241.87235	0.00128
1239.94398	0.00148
1238.01561	0.00145
1236.08723	0.00126
1234.15886	0.00123
1232.23049	0.00133
1230.30212	0.00152
1228.37374	0.00179
1226.44537	0.00198
1224.51700	0.00188
1222.58862	0.00150
1220.66025	0.00123
1218.73188	0.00135
1216.80350	0.00142
1214.87513	0.00130
1212.94676	0.00125
1211.01838	0.00143
1209.09001	0.00167
1207.16164	0.00185
1205.23326	0.00201
1203.30489	0.00187
1201.37652	0.00159
1199.44814	0.00154
1197.51977	0.00161
1195.59140	0.00153
1193.66302	0.00128
1191.73465	0.00107
1189.80628	0.00120
1187.87790	0.00147
1185.94953	0.00142
1184.02116	0.00113
1182.09278	0.00093
1180.16441	0.00109
1178.23604	0.00135
1176.30766	0.00164
1174.37929	0.00180
1172.45092	0.00171
1170.52255	0.00139
1168.59417	0.00115
1166.66580	0.00121
1164.73743	0.00147
1162.80905	0.00172
1160.88068	0.00199
1158.95231	0.00204
1157.02393	0.00167
1155.09556	0.00126
1153.16719	0.00114
1151.23881	0.00114
1149.31044	0.00127
1147.38207	0.00135
1145.45369	0.00126
1143.52532	0.00114
1141.59695	0.00099
1139.66857	0.00105
1137.74020	0.00124
1135.81183	0.00124
1133.88345	0.00110
1131.95508	0.00107
1130.02671	0.00114
1128.09833	0.00120
1126.16996	0.00120
1124.24159	0.00129
1122.31321	0.00140
1120.38484	0.00141
1118.45647	0.00147
1116.52809	0.00166
1114.59972	0.00186
1112.67135	0.00180
1110.74298	0.00143
1108.81460	0.00126
1106.88623	0.00142
1104.95786	0.00149
1103.02948	0.00141
1101.10111	0.00127
1099.17274	0.00137
1097.24436	0.00155
1095.31599	0.00150
1093.38762	0.00129
1091.45924	0.00104
1089.53087	0.00090
1087.60250	0.00109
1085.67412	0.00147
1083.74575	0.00190
1081.81738	0.00209
1079.88900	0.00180
1077.96063	0.00150
1076.03226	0.00146
1074.10388	0.00150
1072.17551	0.00154
1070.24714	0.00149
1068.31876	0.00124
1066.39039	0.00108
1064.46202	0.00123
1062.53364	0.00156
1060.60527	0.00182
1058.67690	0.00172
1056.74853	0.00134
1054.82015	0.00088
1052.89178	0.00070
1050.96341	0.00098
1049.03503	0.00138
1047.10666	0.00152
1045.17829	0.00150
1043.24991	0.00153
1041.32154	0.00142
1039.39317	0.00127
1037.46479	0.00124
1035.53642	0.00113
1033.60805	0.00092
1031.67967	0.00084
1029.75130	0.00101
1027.82293	0.00122
1025.89455	0.00135
1023.96618	0.00138
1022.03781	0.00127
1020.10943	0.00112
1018.18106	0.00101
1016.25269	0.00097
1014.32431	0.00099
1012.39594	0.00094
1010.46757	0.00090
1008.53919	0.00090
1006.61082	0.00090
1004.68245	0.00089
1002.75407	0.00088
1000.82570	0.00088
998.89733	0.00079
996.96896	0.00065
995.04058	0.00060
993.11221	0.00069
991.18384	0.00076
989.25546	0.00076
987.32709	0.00078
985.39872	0.00094
983.47034	0.00111
981.54197	0.00125
979.61360	0.00115
977.68522	0.00095
975.75685	0.00087
973.82848	0.00082
971.90010	0.00082
969.97173	0.00122
968.04336	0.00188
966.11498	0.00250
964.18661	0.00293
962.25824	0.00286
960.32986	0.00202
958.40149	0.00097
956.47312	0.00084
954.54474	0.00133
952.61637	0.00164
950.68800	0.00164
948.75962	0.00133
946.83125	0.00126
944.90288	0.00158
942.97451	0.00220
941.04613	0.00339
939.11776	0.00536
937.18939	0.00808
935.26101	0.01102
933.33264	0.01339
931.40427	0.01494
929.47589	0.01592
927.54752	0.01629
925.61915	0.01592
923.69077	0.01516
921.76240	0.01455
919.83403	0.01477
917.90565	0.01632
915.97728	0.01853
914.04891	0.02039
912.12053	0.02121
910.19216	0.02022
908.26379	0.01741
906.33541	0.01384
904.40704	0.01057
902.47867	0.00814
900.55029	0.00666
898.62192	0.00592
896.69355	0.00574
894.76517	0.00604
892.83680	0.00692
890.90843	0.00839
888.98005	0.00998
887.05168	0.01121
885.12331	0.01196
883.19494	0.01314
881.26656	0.01583
879.33819	0.01964
877.40982	0.02290
875.48144	0.02461
873.55307	0.02510
871.62470	0.02526
869.69632	0.02552
867.76795	0.02577
865.83958	0.02548
863.91120	0.02430
861.98283	0.02272
860.05446	0.02128
858.12608	0.01988
856.19771	0.01856
854.26934	0.01772
852.34096	0.01756
850.41259	0.01796
848.48422	0.01867
846.55584	0.01938
844.62747	0.01975
842.69910	0.01982
840.77072	0.01992
838.84235	0.01987
836.91398	0.01940
834.98560	0.01872
833.05723	0.01804
831.12886	0.01730
829.20049	0.01625
827.27211	0.01470
825.34374	0.01302
823.41537	0.01200
821.48699	0.01164
819.55862	0.01121
817.63025	0.01078
815.70187	0.01083
813.77350	0.01077
811.84513	0.01010
809.91675	0.00933
807.98838	0.00906
806.06001	0.00910
804.13163	0.00860
802.20326	0.00743
800.27489	0.00631
798.34651	0.00571
796.41814	0.00552
794.48977	0.00522
792.56139	0.00440
790.63302	0.00339
788.70465	0.00273
786.77627	0.00250
784.84790	0.00239
782.91953	0.00223
780.99115	0.00196
779.06278	0.00166
777.13441	0.00145
775.20603	0.00172
773.27766	0.00246
771.34929	0.00291
769.42092	0.00255
767.49254	0.00176
765.56417	0.00128
763.63580	0.00170
761.70742	0.00224
759.77905	0.00200
757.85068	0.00170
755.92230	0.00166
753.99393	0.00199
752.06556	0.00234
750.13718	0.00223
748.20881	0.00203
746.28044	0.00225
744.35206	0.00241
742.42369	0.00217
740.49532	0.00183
738.56694	0.00179
736.63857	0.00207
734.71020	0.00236
732.78182	0.00224
730.85345	0.00184
728.92508	0.00160
726.99670	0.00181
725.06833	0.00209
723.13996	0.00185
721.21158	0.00140
719.28321	0.00143
717.35484	0.00189
715.42647	0.00238
713.49809	0.00261
711.56972	0.00231
709.64135	0.00189
707.71297	0.00190
705.78460	0.00206
703.85623	0.00228
701.92785	0.00263
699.99948	0.00286
698.07111	0.00290
696.14273	0.00295
694.21436	0.00313
692.28599	0.00313
690.35761	0.00281
688.42924	0.00231
686.50087	0.00215
684.57249	0.00278
682.64412	0.00312
680.71575	0.00261
678.78737	0.00278
676.85900	0.00382
674.93063	0.00423
673.00225	0.00366
671.07388	0.00302
669.14551	0.00308
667.21713	0.00245
665.28876	0.00210
663.36039	0.00270
661.43201	0.00294
659.50364	0.00274
657.57527	0.00211
655.64690	0.00165
653.71852	0.00244
651.79015	0.00411
649.86178	0.00493
647.93340	0.00422
646.00503	0.00355
644.07666	0.00391
642.14828	0.00526
640.21991	0.00604
638.29154	0.00591
636.36316	0.00557
634.43479	0.00505
632.50642	0.00459
630.57804	0.00500
628.64967	0.00582
626.72130	0.00604
624.79292	0.00575
622.86455	0.00578
620.93618	0.00593
619.00780	0.00515
617.07943	0.00514
615.15106	0.00538
613.22268	0.00524
611.29431	0.00595
609.36594	0.00765
607.43756	0.00956
605.50919	0.01030
603.58082	0.01025
601.65244	0.01047
599.72407	0.01104
