3997.51769	0.37120
3995.58931	0.37232
3993.66094	0.37361
3991.73257	0.37519
3989.80419	0.37706
3987.87582	0.37922
3985.94745	0.38153
3984.01907	0.38375
3982.09070	0.38580
3980.16233	0.38769
3978.23396	0.38938
3976.30558	0.39084
3974.37721	0.39204
3972.44884	0.39303
3970.52046	0.39402
3968.59209	0.39534
3966.66372	0.39697
3964.73534	0.39860
3962.80697	0.40015
3960.87860	0.40169
3958.95022	0.40308
3957.02185	0.40435
3955.09348	0.40571
3953.16510	0.40724
3951.23673	0.40875
3949.30836	0.40994
3947.37998	0.41094
3945.45161	0.41233
3943.52324	0.41391
3941.59486	0.41492
3939.66649	0.41538
3937.73812	0.41589
3935.80974	0.41682
3933.88137	0.41841
3931.95300	0.42032
3930.02462	0.42167
3928.09625	0.42253
3926.16788	0.42354
3924.23950	0.42460
3922.31113	0.42564
3920.38276	0.42704
3918.45439	0.42868
3916.52601	0.42991
3914.59764	0.43071
3912.66927	0.43161
3910.74089	0.43282
3908.81252	0.43451
3906.88415	0.43708
3904.95577	0.44050
3903.02740	0.44351
3901.09903	0.44503
3899.17065	0.44539
3897.24228	0.44531
3895.31391	0.44582
3893.38553	0.44748
3891.45716	0.44953
3889.52879	0.45085
3887.60041	0.45241
3885.67204	0.45479
3883.74367	0.45652
3881.81529	0.45774
3879.88692	0.45900
3877.95855	0.45969
3876.03017	0.46073
3874.10180	0.46280
3872.17343	0.46535
3870.24505	0.46786
3868.31668	0.46920
3866.38831	0.46985
3864.45994	0.47095
3862.53156	0.47167
3860.60319	0.47177
3858.67482	0.47240
3856.74644	0.47490
3854.81807	0.48029
3852.88970	0.48397
3850.96132	0.48082
3849.03295	0.47727
3847.10458	0.47634
3845.17620	0.47738
3843.24783	0.47925
3841.31946	0.48135
3839.39108	0.48375
3837.46271	0.48518
3835.53434	0.48447
3833.60596	0.48333
3831.67759	0.48266
3829.74922	0.48210
3827.82084	0.48202
3825.89247	0.48277
3823.96410	0.48439
3822.03572	0.48675
3820.10735	0.48809
3818.17898	0.48808
3816.25060	0.48801
3814.32223	0.48681
3812.39386	0.48505
3810.46548	0.48469
3808.53711	0.48598
3806.60874	0.48737
3804.68037	0.48784
3802.75199	0.48877
3800.82362	0.48946
3798.89525	0.48842
3796.96687	0.48720
3795.03850	0.48612
3793.11013	0.48501
3791.18175	0.48438
3789.25338	0.48424
3787.32501	0.48435
3785.39663	0.48449
3783.46826	0.48448
3781.53989	0.48467
3779.61151	0.48494
3777.68314	0.48423
3775.75477	0.48287
3773.82639	0.48228
3771.89802	0.48278
3769.96965	0.48339
3768.04127	0.48285
3766.11290	0.48165
3764.18453	0.48059
3762.25615	0.48000
3760.32778	0.48005
3758.39941	0.47971
3756.47103	0.47874
3754.54266	0.47864
3752.61429	0.48034
3750.68591	0.48180
3748.75754	0.48044
3746.82917	0.47930
3744.90080	0.47901
3742.97242	0.47572
3741.04405	0.47122
3739.11568	0.46917
3737.18730	0.46924
3735.25893	0.46931
3733.33056	0.46732
3731.40218	0.46361
3729.47381	0.46012
3727.54544	0.45750
3725.61706	0.45537
3723.68869	0.45318
3721.76032	0.45051
3719.83194	0.44727
3717.90357	0.44383
3715.97520	0.44104
3714.04682	0.43920
3712.11845	0.43716
3710.19008	0.43286
3708.26170	0.42712
3706.33333	0.42166
3704.40496	0.41674
3702.47658	0.41160
3700.54821	0.40510
3698.61984	0.39809
3696.69146	0.39111
3694.76309	0.38384
3692.83472	0.37675
3690.90635	0.36936
3688.97797	0.35898
3687.04960	0.34513
3685.12123	0.33160
3683.19285	0.31920
3681.26448	0.30658
3679.33611	0.29396
3677.40773	0.28150
3675.47936	0.26587
3673.55099	0.24883
3671.62261	0.23492
3669.69424	0.21938
3667.76587	0.20231
3665.83749	0.18807
3663.90912	0.17510
3661.98075	0.16229
3660.05237	0.15011
3658.12400	0.13846
3656.19563	0.12628
3654.26725	0.11485
3652.33888	0.10575
3650.41051	0.09672
3648.48213	0.08622
3646.55376	0.07654
3644.62539	0.06906
3642.69701	0.06278
3640.76864	0.05684
3638.84027	0.05114
3636.91189	0.04587
3634.98352	0.04102
3633.05515	0.03667
3631.12678	0.03300
3629.19840	0.02923
3627.27003	0.02529
3625.34166	0.02238
3623.41328	0.02014
3621.48491	0.01800
3619.55654	0.01589
3617.62816	0.01396
3615.69979	0.01228
3613.77142	0.01079
3611.84304	0.00958
3609.91467	0.00845
3607.98630	0.00727
3606.05792	0.00632
3604.12955	0.00554
3602.20118	0.00464
3600.27280	0.00377
3598.34443	0.00323
3596.41606	0.00280
3594.48768	0.00222
3592.55931	0.00168
3590.63094	0.00134
3588.70256	0.00112
3586.77419	0.00108
3584.84582	0.00119
3582.91744	0.00111
3580.98907	0.00084
3579.06070	0.00075
3577.13233	0.00083
3575.20395	0.00071
3573.27558	0.00047
3571.34721	0.00049
3569.41883	0.00070
3567.49046	0.00084
3565.56209	0.00074
3563.63371	0.00073
3561.70534	0.00068
3559.77697	0.00046
3557.84859	0.00033
3555.92022	0.00032
3553.99185	0.00012
3552.06347	0.00023
3550.13510	0.00044
3548.20673	0.00068
3546.27835	0.00071
3544.34998	0.00053
3542.42161	0.00045
3540.49323	0.00054
3538.56486	0.00070
3536.63649	0.00070
3534.70811	0.00062
3532.77974	0.00056
3530.85137	0.00057
3528.92299	0.00068
3526.99462	0.00096
3525.06625	0.00116
3523.13787	0.00100
3521.20950	0.00061
3519.28113	0.00023
3517.35276	0.00013
3515.42438	0.00028
3513.49601	0.00036
3511.56764	0.00059
3509.63926	0.00068
3507.71089	0.00064
3505.78252	0.00079
3503.85414	0.00075
3501.92577	0.00062
3499.99740	0.00070
3498.06902	0.00075
3496.14065	0.00056
3494.21228	0.00039
3492.28390	0.00040
3490.35553	0.00047
3488.42716	0.00051
3486.49878	0.00074
3484.57041	0.00071
3482.64204	0.00057
3480.71366	0.00044
3478.78529	0.00049
3476.85692	0.00065
3474.92854	0.00076
3473.00017	0.00073
3471.07180	0.00048
3469.14342	0.00029
3467.21505	0.00042
3465.28668	0.00074
3463.35831	0.00090
3461.42993	0.00084
3459.50156	0.00070
3457.57319	0.00057
3455.64481	0.00056
3453.71644	0.00045
3451.78807	0.00037
3449.85969	0.00045
3447.93132	0.00062
3446.00295	0.00049
3444.07457	0.00016
3442.14620	0.00014
3440.21783	0.00028
3438.28945	0.00069
3436.36108	0.00086
3434.43271	0.00065
3432.50433	0.00054
3430.57596	0.00051
3428.64759	0.00060
3426.71921	0.00050
3424.79084	0.00040
3422.86247	0.00047
3420.93409	0.00057
3419.00572	0.00066
3417.07735	0.00055
3415.14897	0.00033
3413.22060	0.00028
3411.29223	0.00036
3409.36385	0.00060
3407.43548	0.00069
3405.50711	0.00055
3403.57874	0.00050
3401.65036	0.00055
3399.72199	0.00044
3397.79362	0.00038
3395.86524	0.00063
3393.93687	0.00067
3392.00850	0.00050
3390.08012	0.00059
3388.15175	0.00068
3386.22338	0.00051
3384.29500	0.00033
3382.36663	0.00034
3380.43826	0.00043
3378.50988	0.00036
3376.58151	0.00042
3374.65314	0.00062
3372.72476	0.00076
3370.79639	0.00077
3368.86802	0.00059
3366.93964	0.00043
3365.01127	0.00049
3363.08290	0.00062
3361.15452	0.00067
3359.22615	0.00073
3357.29778	0.00067
3355.36940	0.00048
3353.44103	0.00032
3351.51266	0.00026
3349.58428	0.00047
3347.65591	0.00063
3345.72754	0.00062
3343.79917	0.00069
3341.87079	0.00081
3339.94242	0.00080
3338.01405	0.00048
3336.08567	0.00046
3334.15730	0.00061
3332.22893	0.00051
3330.30055	0.00039
3328.37218	0.00057
3326.44381	0.00068
3324.51543	0.00064
3322.58706	0.00044
3320.65869	0.00040
3318.73031	0.00042
3316.80194	0.00042
3314.87357	0.00055
3312.94519	0.00066
3311.01682	0.00054
3309.08845	0.00033
3307.16007	0.00037
3305.23170	0.00057
3303.30333	0.00053
3301.37495	0.00045
3299.44658	0.00038
3297.51821	0.00025
3295.58983	0.00026
3293.66146	0.00044
3291.73309	0.00050
3289.80472	0.00065
3287.87634	0.00076
3285.94797	0.00064
3284.01960	0.00046
3282.09122	0.00036
3280.16285	0.00046
3278.23448	0.00030
3276.30610	0.00030
3274.37773	0.00037
3272.44936	0.00053
3270.52098	0.00057
3268.59261	0.00048
3266.66424	0.00050
3264.73586	0.00041
3262.80749	0.00033
3260.87912	0.00038
3258.95074	0.00047
3257.02237	0.00047
3255.09400	0.00032
3253.16562	0.00029
3251.23725	0.00034
3249.30888	0.00037
3247.38050	0.00035
3245.45213	0.00045
3243.52376	0.00049
3241.59538	0.00046
3239.66701	0.00050
3237.73864	0.00051
3235.81026	0.00044
3233.88189	0.00039
3231.95352	0.00046
3230.02515	0.00050
3228.09677	0.00054
3226.16840	0.00036
3224.24003	0.00012
3222.31165	0.00026
3220.38328	0.00044
3218.45491	0.00050
3216.52653	0.00048
3214.59816	0.00047
3212.66979	0.00056
3210.74141	0.00068
3208.81304	0.00067
3206.88467	0.00062
3204.95629	0.00056
3203.02792	0.00044
3201.09955	0.00041
3199.17117	0.00057
3197.24280	0.00066
3195.31443	0.00053
3193.38605	0.00038
3191.45768	0.00036
3189.52931	0.00055
3187.60093	0.00069
3185.67256	0.00059
3183.74419	0.00046
3181.81581	0.00049
3179.88744	0.00051
3177.95907	0.00046
3176.03070	0.00041
3174.10232	0.00046
3172.17395	0.00051
3170.24558	0.00053
3168.31720	0.00065
3166.38883	0.00075
3164.46046	0.00082
3162.53208	0.00072
3160.60371	0.00055
3158.67534	0.00041
3156.74696	0.00051
3154.81859	0.00066
3152.89022	0.00068
3150.96184	0.00068
3149.03347	0.00059
3147.10510	0.00045
3145.17672	0.00040
3143.24835	0.00037
3141.31998	0.00033
3139.39160	0.00029
3137.46323	0.00042
3135.53486	0.00062
3133.60648	0.00063
3131.67811	0.00050
3129.74974	0.00048
3127.82136	0.00035
3125.89299	0.00018
3123.96462	0.00028
3122.03624	0.00044
3120.10787	0.00069
3118.17950	0.00071
3116.25113	0.00063
3114.32275	0.00058
3112.39438	0.00044
3110.46601	0.00023
3108.53763	0.00013
3106.60926	0.00031
3104.68089	0.00049
3102.75251	0.00054
3100.82414	0.00060
3098.89577	0.00062
3096.96739	0.00067
3095.03902	0.00079
3093.11065	0.00082
3091.18227	0.00059
3089.25390	0.00054
3087.32553	0.00056
3085.39715	0.00055
3083.46878	0.00061
3081.54041	0.00057
3079.61203	0.00045
3077.68366	0.00037
3075.75529	0.00048
3073.82691	0.00066
3071.89854	0.00069
3069.97017	0.00056
3068.04179	0.00044
3066.11342	0.00039
3064.18505	0.00038
3062.25668	0.00047
3060.32830	0.00042
3058.39993	0.00048
3056.47156	0.00072
3054.54318	0.00080
3052.61481	0.00065
3050.68644	0.00042
3048.75806	0.00038
3046.82969	0.00040
3044.90132	0.00033
3042.97294	0.00029
3041.04457	0.00028
3039.11620	0.00028
3037.18782	0.00036
3035.25945	0.00042
3033.33108	0.00048
3031.40270	0.00034
3029.47433	0.00019
3027.54596	0.00016
3025.61758	0.00022
3023.68921	0.00049
3021.76084	0.00062
3019.83246	0.00052
3017.90409	0.00034
3015.97572	0.00035
3014.04734	0.00046
3012.11897	0.00054
3010.19060	0.00052
3008.26222	0.00042
3006.33385	0.00056
3004.40548	0.00060
3002.47711	0.00040
3000.54873	0.00031
2998.62036	0.00035
2996.69199	0.00029
2994.76361	0.00032
2992.83524	0.00036
2990.90687	0.00034
2988.97849	0.00046
2987.05012	0.00047
2985.12175	0.00050
2983.19337	0.00050
2981.26500	0.00064
2979.33663	0.00072
2977.40825	0.00078
2975.47988	0.00072
2973.55151	0.00058
2971.62313	0.00059
2969.69476	0.00073
2967.76639	0.00076
2965.83801	0.00066
2963.90964	0.00068
2961.98127	0.00071
2960.05289	0.00059
2958.12452	0.00045
2956.19615	0.00059
2954.26777	0.00074
2952.33940	0.00078
2950.41103	0.00080
2948.48266	0.00081
2946.55428	0.00079
2944.62591	0.00069
2942.69754	0.00045
2940.76916	0.00052
2938.84079	0.00058
2936.91242	0.00047
2934.98404	0.00057
2933.05567	0.00065
2931.12730	0.00069
2929.19892	0.00078
2927.27055	0.00082
2925.34218	0.00072
2923.41380	0.00071
2921.48543	0.00082
2919.55706	0.00085
2917.62868	0.00079
2915.70031	0.00081
2913.77194	0.00091
2911.84356	0.00097
2909.91519	0.00094
2907.98682	0.00084
2906.05844	0.00067
2904.13007	0.00060
2902.20170	0.00052
2900.27332	0.00035
2898.34495	0.00028
2896.41658	0.00036
2894.48820	0.00046
2892.55983	0.00046
2890.63146	0.00051
2888.70309	0.00071
2886.77471	0.00083
2884.84634	0.00071
2882.91797	0.00057
2880.98959	0.00056
2879.06122	0.00052
2877.13285	0.00046
2875.20447	0.00035
2873.27610	0.00023
2871.34773	0.00025
2869.41935	0.00043
2867.49098	0.00057
2865.56261	0.00045
2863.63423	0.00032
2861.70586	0.00026
2859.77749	0.00023
2857.84911	0.00021
2855.92074	0.00032
2853.99237	0.00047
2852.06399	0.00053
2850.13562	0.00034
2848.20725	0.00014
2846.27887	0.00016
2844.35050	0.00017
2842.42213	0.00027
2840.49375	0.00034
2838.56538	0.00047
2836.63701	0.00064
2834.70863	0.00082
2832.78026	0.00094
2830.85189	0.00098
2828.92352	0.00107
2826.99514	0.00122
2825.06677	0.00137
2823.13840	0.00152
2821.21002	0.00175
2819.28165	0.00208
2817.35328	0.00237
2815.42490	0.00251
2813.49653	0.00258
2811.56816	0.00265
2809.63978	0.00283
2807.71141	0.00318
2805.78304	0.00351
2803.85466	0.00378
2801.92629	0.00416
2799.99792	0.00462
2798.06954	0.00505
2796.14117	0.00544
2794.21280	0.00568
2792.28442	0.00581
2790.35605	0.00606
2788.42768	0.00645
2786.49930	0.00682
2784.57093	0.00718
2782.64256	0.00755
2780.71418	0.00787
2778.78581	0.00815
2776.85744	0.00843
2774.92907	0.00859
2773.00069	0.00863
2771.07232	0.00875
2769.14395	0.00906
2767.21557	0.00939
2765.28720	0.00965
2763.35883	0.00994
2761.43045	0.01025
2759.50208	0.01058
2757.57371	0.01095
2755.64533	0.01129
2753.71696	0.01161
2751.78859	0.01197
2749.86021	0.01235
2747.93184	0.01273
2746.00347	0.01304
2744.07509	0.01333
2742.14672	0.01355
2740.21835	0.01365
2738.28997	0.01378
2736.36160	0.01402
2734.43323	0.01429
2732.50485	0.01462
2730.57648	0.01501
2728.64811	0.01538
2726.71973	0.01567
2724.79136	0.01588
2722.86299	0.01607
2720.93461	0.01637
2719.00624	0.01672
2717.07787	0.01702
2715.14950	0.01738
2713.22112	0.01793
2711.29275	0.01856
2709.36438	0.01909
2707.43600	0.01955
2705.50763	0.02003
2703.57926	0.02056
2701.65088	0.02116
2699.72251	0.02182
2697.79414	0.02251
2695.86576	0.02316
2693.93739	0.02371
2692.00902	0.02420
2690.08064	0.02478
2688.15227	0.02546
2686.22390	0.02612
2684.29552	0.02673
2682.36715	0.02738
2680.43878	0.02808
2678.51040	0.02874
2676.58203	0.02943
2674.65366	0.03025
2672.72528	0.03109
2670.79691	0.03186
2668.86854	0.03253
2666.94016	0.03313
2665.01179	0.03371
2663.08342	0.03429
2661.15505	0.03484
2659.22667	0.03532
2657.29830	0.03573
2655.36993	0.03608
2653.44155	0.03638
2651.51318	0.03664
2649.58481	0.03689
2647.65643	0.03718
2645.72806	0.03747
2643.79969	0.03774
2641.87131	0.03803
2639.94294	0.03829
2638.01457	0.03851
2636.08619	0.03879
2634.15782	0.03907
2632.22945	0.03936
2630.30107	0.03979
2628.37270	0.04036
2626.44433	0.04095
2624.51595	0.04147
2622.58758	0.04190
2620.65921	0.04231
2618.73083	0.04275
2616.80246	0.04325
2614.87409	0.04385
2612.94571	0.04456
2611.01734	0.04531
2609.08897	0.04600
2607.16059	0.04659
2605.23222	0.04718
2603.30385	0.04787
2601.37548	0.04855
2599.44710	0.04911
2597.51873	0.04959
2595.59036	0.04999
2593.66198	0.05033
2591.73361	0.05067
2589.80524	0.05100
2587.87686	0.05133
2585.94849	0.05166
2584.02012	0.05205
2582.09174	0.05252
2580.16337	0.05308
2578.23500	0.05375
2576.30662	0.05457
2574.37825	0.05542
2572.44988	0.05629
2570.52150	0.05728
2568.59313	0.05836
2566.66476	0.05951
2564.73638	0.06082
2562.80801	0.06221
2560.87964	0.06356
2558.95126	0.06497
2557.02289	0.06648
2555.09452	0.06796
2553.16614	0.06943
2551.23777	0.07087
2549.30940	0.07211
2547.38103	0.07318
2545.45265	0.07417
2543.52428	0.07498
2541.59591	0.07563
2539.66753	0.07619
2537.73916	0.07669
2535.81079	0.07720
2533.88241	0.07784
2531.95404	0.07852
2530.02567	0.07907
2528.09729	0.07956
2526.16892	0.08018
2524.24055	0.08099
2522.31217	0.08187
2520.38380	0.08276
2518.45543	0.08370
2516.52705	0.08472
2514.59868	0.08576
2512.67031	0.08673
2510.74193	0.08765
2508.81356	0.08860
2506.88519	0.08964
2504.95681	0.09072
2503.02844	0.09177
2501.10007	0.09281
2499.17169	0.09390
2497.24332	0.09513
2495.31495	0.09650
2493.38657	0.09787
2491.45820	0.09919
2489.52983	0.10050
2487.60146	0.10178
2485.67308	0.10305
2483.74471	0.10438
2481.81634	0.10574
2479.88796	0.10708
2477.95959	0.10845
2476.03122	0.10980
2474.10284	0.11105
2472.17447	0.11233
2470.24610	0.11370
2468.31772	0.11511
2466.38935	0.11658
2464.46098	0.11814
2462.53260	0.11969
2460.60423	0.12118
2458.67586	0.12261
2456.74748	0.12398
2454.81911	0.12532
2452.89074	0.12663
2450.96236	0.12794
2449.03399	0.12930
2447.10562	0.13067
2445.17724	0.13196
2443.24887	0.13325
2441.32050	0.13461
2439.39212	0.13599
2437.46375	0.13735
2435.53538	0.13870
2433.60700	0.14007
2431.67863	0.14148
2429.75026	0.14285
2427.82189	0.14412
2425.89351	0.14530
2423.96514	0.14633
2422.03677	0.14720
2420.10839	0.14800
2418.18002	0.14872
2416.25165	0.14948
2414.32327	0.15042
2412.39490	0.15159
2410.46653	0.15291
2408.53815	0.15430
2406.60978	0.15577
2404.68141	0.15736
2402.75303	0.15896
2400.82466	0.16055
2398.89629	0.16217
2396.96791	0.16384
2395.03954	0.16554
2393.11117	0.16720
2391.18279	0.16877
2389.25442	0.17025
2387.32605	0.17159
2385.39767	0.17273
2383.46930	0.17374
2381.54093	0.17465
2379.61255	0.17544
2377.68418	0.17621
2375.75581	0.17706
2373.82744	0.17795
2371.89906	0.17875
2369.97069	0.17930
2368.04232	0.17973
2366.11394	0.18034
2364.18557	0.18123
2362.25720	0.18264
2360.32882	0.18447
2358.40045	0.18576
2356.47208	0.18642
2354.54370	0.18741
2352.61533	0.18847
2350.68696	0.18916
2348.75858	0.18979
2346.83021	0.19039
2344.90184	0.19076
2342.97346	0.19081
2341.04509	0.19069
2339.11672	0.19096
2337.18834	0.19177
2335.25997	0.19227
2333.33160	0.19229
2331.40322	0.19243
2329.47485	0.19276
2327.54648	0.19313
2325.61810	0.19359
2323.68973	0.19418
2321.76136	0.19518
2319.83298	0.19671
2317.90461	0.19842
2315.97624	0.20013
2314.04787	0.20201
2312.11949	0.20412
2310.19112	0.20631
2308.26275	0.20849
2306.33437	0.21061
2304.40600	0.21271
2302.47763	0.21476
2300.54925	0.21655
2298.62088	0.21800
2296.69251	0.21923
2294.76413	0.22032
2292.83576	0.22137
2290.90739	0.22234
2288.97901	0.22309
2287.05064	0.22366
2285.12227	0.22415
2283.19389	0.22446
2281.26552	0.22457
2279.33715	0.22451
2277.40877	0.22436
2275.48040	0.22429
2273.55203	0.22428
2271.62365	0.22416
2269.69528	0.22393
2267.76691	0.22373
2265.83853	0.22358
2263.91016	0.22351
2261.98179	0.22352
2260.05342	0.22370
2258.12504	0.22414
2256.19667	0.22477
2254.26830	0.22558
2252.33992	0.22659
2250.41155	0.22777
2248.48318	0.22891
2246.55480	0.22995
2244.62643	0.23099
2242.69806	0.23206
2240.76968	0.23297
2238.84131	0.23358
2236.91294	0.23396
2234.98456	0.23426
2233.05619	0.23454
2231.12782	0.23478
2229.19944	0.23491
2227.27107	0.23495
2225.34270	0.23493
2223.41432	0.23475
2221.48595	0.23441
2219.55758	0.23405
2217.62920	0.23369
2215.70083	0.23323
2213.77246	0.23267
2211.84408	0.23209
2209.91571	0.23147
2207.98734	0.23083
2206.05896	0.23016
2204.13059	0.22941
2202.20222	0.22860
2200.27385	0.22782
2198.34547	0.22708
2196.41710	0.22632
2194.48873	0.22552
2192.56035	0.22467
2190.63198	0.22381
2188.70361	0.22298
2186.77523	0.22227
2184.84686	0.22162
2182.91849	0.22093
2180.99011	0.22032
2179.06174	0.21983
2177.13337	0.21940
2175.20499	0.21896
2173.27662	0.21845
2171.34825	0.21789
2169.41987	0.21729
2167.49150	0.21674
2165.56313	0.21627
2163.63475	0.21586
2161.70638	0.21551
2159.77801	0.21522
2157.84963	0.21504
2155.92126	0.21497
2153.99289	0.21492
2152.06451	0.21488
2150.13614	0.21498
2148.20777	0.21522
2146.27940	0.21553
2144.35102	0.21580
2142.42265	0.21598
2140.49428	0.21616
2138.56590	0.21636
2136.63753	0.21649
2134.70916	0.21655
2132.78078	0.21665
2130.85241	0.21694
2128.92404	0.21742
2126.99566	0.21806
2125.06729	0.21883
2123.13892	0.21968
2121.21054	0.22063
2119.28217	0.22173
2117.35380	0.22290
2115.42542	0.22403
2113.49705	0.22519
2111.56868	0.22643
2109.64030	0.22758
2107.71193	0.22848
2105.78356	0.22920
2103.85518	0.22991
2101.92681	0.23061
2099.99844	0.23123
2098.07006	0.23172
2096.14169	0.23210
2094.21332	0.23231
2092.28494	0.23232
2090.35657	0.23218
2088.42820	0.23215
2086.49983	0.23228
2084.57145	0.23226
2082.64308	0.23193
2080.71471	0.23150
2078.78633	0.23117
2076.85796	0.23101
2074.92959	0.23095
2073.00121	0.23089
2071.07284	0.23092
2069.14447	0.23115
2067.21609	0.23157
2065.28772	0.23218
2063.35935	0.23305
2061.43097	0.23421
2059.50260	0.23564
2057.57423	0.23726
2055.64585	0.23900
2053.71748	0.24079
2051.78911	0.24258
2049.86073	0.24442
2047.93236	0.24626
2046.00399	0.24796
2044.07561	0.24948
2042.14724	0.25099
2040.21887	0.25240
2038.29049	0.25357
2036.36212	0.25456
2034.43375	0.25542
2032.50538	0.25613
2030.57700	0.25673
2028.64863	0.25730
2026.72026	0.25776
2024.79188	0.25811
2022.86351	0.25851
2020.93514	0.25906
2019.00676	0.25974
2017.07839	0.26050
2015.15002	0.26135
2013.22164	0.26233
2011.29327	0.26348
2009.36490	0.26473
2007.43652	0.26599
2005.50815	0.26722
2003.57978	0.26845
2001.65140	0.26969
1999.72303	0.27086
1997.79466	0.27183
1995.86628	0.27260
1993.93791	0.27318
1992.00954	0.27363
1990.08116	0.27396
1988.15279	0.27416
1986.22442	0.27425
1984.29604	0.27430
1982.36767	0.27437
1980.43930	0.27445
1978.51092	0.27452
1976.58255	0.27467
1974.65418	0.27492
1972.72581	0.27522
1970.79743	0.27558
1968.86906	0.27594
1966.94069	0.27628
1965.01231	0.27669
1963.08394	0.27723
1961.15557	0.27788
1959.22719	0.27865
1957.29882	0.27955
1955.37045	0.28065
1953.44207	0.28195
1951.51370	0.28341
1949.58533	0.28493
1947.65695	0.28640
1945.72858	0.28778
1943.80021	0.28914
1941.87183	0.29056
1939.94346	0.29189
1938.01509	0.29292
1936.08671	0.29363
1934.15834	0.29407
1932.22997	0.29443
1930.30159	0.29484
1928.37322	0.29524
1926.44485	0.29558
1924.51647	0.29585
1922.58810	0.29616
1920.65973	0.29653
1918.73135	0.29685
1916.80298	0.29703
1914.87461	0.29713
1912.94624	0.29719
1911.01786	0.29715
1909.08949	0.29693
1907.16112	0.29655
1905.23274	0.29602
1903.30437	0.29535
1901.37600	0.29455
1899.44762	0.29366
1897.51925	0.29275
1895.59088	0.29185
1893.66250	0.29099
1891.73413	0.29020
1889.80576	0.28951
1887.87738	0.28897
1885.94901	0.28856
1884.02064	0.28830
1882.09226	0.28816
1880.16389	0.28815
1878.23552	0.28820
1876.30714	0.28825
1874.37877	0.28827
1872.45040	0.28814
1870.52202	0.28789
1868.59365	0.28752
1866.66528	0.28697
1864.73690	0.28626
1862.80853	0.28541
1860.88016	0.28440
1858.95179	0.28329
1857.02341	0.28216
1855.09504	0.28104
1853.16667	0.27984
1851.23829	0.27845
1849.30992	0.27697
1847.38155	0.27557
1845.45317	0.27418
1843.52480	0.27261
1841.59643	0.27100
1839.66805	0.26947
1837.73968	0.26784
1835.81131	0.26614
1833.88293	0.26449
1831.95456	0.26283
1830.02619	0.26100
1828.09781	0.25900
1826.16944	0.25680
1824.24107	0.25425
1822.31269	0.25165
1820.38432	0.24906
1818.45595	0.24616
1816.52757	0.24297
1814.59920	0.23962
1812.67083	0.23614
1810.74245	0.23240
1808.81408	0.22849
1806.88571	0.22445
1804.95733	0.22025
1803.02896	0.21585
1801.10059	0.21095
1799.17222	0.20552
1797.24384	0.20001
1795.31547	0.19461
1793.38710	0.18859
1791.45872	0.18153
1789.53035	0.17470
1787.60198	0.16860
1785.67360	0.16246
1783.74523	0.15614
1781.81686	0.14987
1779.88848	0.14361
1777.96011	0.13768
1776.03174	0.13230
1774.10336	0.12687
1772.17499	0.12072
1770.24662	0.11455
1768.31824	0.10895
1766.38987	0.10339
1764.46150	0.09785
1762.53312	0.09175
1760.60475	0.08490
1758.67638	0.07807
1756.74800	0.07058
1754.81963	0.06268
1752.89126	0.05495
1750.96288	0.04628
1749.03451	0.03669
1747.10614	0.02789
1745.17777	0.02036
1743.24939	0.01407
1741.32102	0.00911
1739.39265	0.00540
1737.46427	0.00312
1735.53590	0.00186
1733.60753	0.00098
1731.67915	0.00038
1729.75078	0.00022
1727.82241	0.00035
1725.89403	0.00042
1723.96566	0.00038
1722.03729	0.00042
1720.10891	0.00037
1718.18054	0.00025
1716.25217	0.00053
1714.32379	0.00058
1712.39542	0.00048
1710.46705	0.00044
1708.53867	0.00049
1706.61030	0.00058
1704.68193	0.00062
1702.75355	0.00065
1700.82518	0.00073
1698.89681	0.00063
1696.96843	0.00046
1695.04006	0.00043
1693.11169	0.00047
1691.18331	0.00047
1689.25494	0.00041
1687.32657	0.00039
1685.39820	0.00053
1683.46982	0.00056
1681.54145	0.00046
1679.61308	0.00050
1677.68470	0.00064
1675.75633	0.00073
1673.82796	0.00077
1671.89958	0.00071
1669.97121	0.00052
1668.04284	0.00034
1666.11446	0.00032
1664.18609	0.00032
1662.25772	0.00024
1660.32934	0.00020
1658.40097	0.00027
1656.47260	0.00035
1654.54422	0.00029
1652.61585	0.00035
1650.68748	0.00053
1648.75910	0.00064
1646.83073	0.00067
1644.90236	0.00061
1642.97398	0.00051
1641.04561	0.00043
1639.11724	0.00035
1637.18886	0.00032
1635.26049	0.00034
1633.33212	0.00037
1631.40375	0.00041
1629.47537	0.00034
1627.54700	0.00017
1625.61863	0.00010
1623.69025	0.00020
1621.76188	0.00029
1619.83351	0.00028
1617.90513	0.00023
1615.97676	0.00027
1614.04839	0.00041
1612.12001	0.00049
1610.19164	0.00048
1608.26327	0.00045
1606.33489	0.00042
1604.40652	0.00044
1602.47815	0.00050
1600.54977	0.00050
1598.62140	0.00043
1596.69303	0.00040
1594.76465	0.00042
1592.83628	0.00033
1590.90791	0.00023
1588.97953	0.00019
1587.05116	0.00027
1585.12279	0.00033
1583.19441	0.00032
1581.26604	0.00035
1579.33767	0.00041
1577.40929	0.00046
1575.48092	0.00042
1573.55255	0.00049
1571.62418	0.00050
1569.69580	0.00055
1567.76743	0.00056
1565.83906	0.00052
1563.91068	0.00046
1561.98231	0.00053
1560.05394	0.00057
1558.12556	0.00037
1556.19719	0.00023
1554.26882	0.00023
1552.34044	0.00026
1550.41207	0.00026
1548.48370	0.00028
1546.55532	0.00041
1544.62695	0.00055
1542.69858	0.00056
1540.77020	0.00040
1538.84183	0.00036
1536.91346	0.00045
1534.98508	0.00043
1533.05671	0.00033
1531.12834	0.00028
1529.19996	0.00030
1527.27159	0.00037
1525.34322	0.00048
1523.41484	0.00064
1521.48647	0.00070
1519.55810	0.00066
1517.62972	0.00068
1515.70135	0.00070
1513.77298	0.00066
1511.84461	0.00060
1509.91623	0.00058
1507.98786	0.00069
1506.05949	0.00072
1504.13111	0.00057
1502.20274	0.00042
1500.27437	0.00029
1498.34599	0.00026
1496.41762	0.00031
1494.48925	0.00030
1492.56087	0.00033
1490.63250	0.00041
1488.70413	0.00048
1486.77575	0.00049
1484.84738	0.00043
1482.91901	0.00036
1480.99063	0.00039
1479.06226	0.00049
1477.13389	0.00057
1475.20551	0.00069
1473.27714	0.00087
1471.34877	0.00086
1469.42039	0.00063
1467.49202	0.00054
1465.56365	0.00060
1463.63527	0.00062
1461.70690	0.00058
1459.77853	0.00057
1457.85016	0.00059
1455.92178	0.00052
1453.99341	0.00035
1452.06504	0.00021
1450.13666	0.00023
1448.20829	0.00040
1446.27992	0.00050
1444.35154	0.00053
1442.42317	0.00060
1440.49480	0.00066
1438.56642	0.00069
1436.63805	0.00069
1434.70968	0.00062
1432.78130	0.00051
1430.85293	0.00052
1428.92456	0.00054
1426.99618	0.00049
1425.06781	0.00044
1423.13944	0.00047
1421.21106	0.00050
1419.28269	0.00053
1417.35432	0.00053
1415.42594	0.00048
1413.49757	0.00043
1411.56920	0.00043
1409.64082	0.00050
1407.71245	0.00051
1405.78408	0.00049
1403.85570	0.00038
1401.92733	0.00031
1399.99896	0.00039
1398.07059	0.00035
1396.14221	0.00030
1394.21384	0.00034
1392.28547	0.00042
1390.35709	0.00045
1388.42872	0.00045
1386.50035	0.00043
1384.57197	0.00042
1382.64360	0.00049
1380.71523	0.00060
1378.78685	0.00060
1376.85848	0.00057
1374.93011	0.00068
1373.00173	0.00080
1371.07336	0.00078
1369.14499	0.00067
1367.21661	0.00061
1365.28824	0.00049
1363.35987	0.00032
1361.43149	0.00033
1359.50312	0.00039
1357.57475	0.00048
1355.64637	0.00057
1353.71800	0.00060
1351.78963	0.00059
1349.86125	0.00053
1347.93288	0.00037
1346.00451	0.00034
1344.07614	0.00058
1342.14776	0.00065
1340.21939	0.00065
1338.29102	0.00064
1336.36264	0.00064
1334.43427	0.00063
1332.50590	0.00063
1330.57752	0.00062
1328.64915	0.00063
1326.72078	0.00066
1324.79240	0.00065
1322.86403	0.00056
1320.93566	0.00051
1319.00728	0.00057
1317.07891	0.00054
1315.15054	0.00039
1313.22216	0.00022
1311.29379	0.00033
1309.36542	0.00059
1307.43704	0.00075
1305.50867	0.00075
1303.58030	0.00070
1301.65192	0.00070
1299.72355	0.00067
1297.79518	0.00062
1295.86680	0.00075
1293.93843	0.00100
1292.01006	0.00112
1290.08168	0.00098
1288.15331	0.00068
1286.22494	0.00054
1284.29657	0.00061
1282.36819	0.00070
1280.43982	0.00085
1278.51145	0.00092
1276.58307	0.00085
1274.65470	0.00079
1272.72633	0.00067
1270.79795	0.00056
1268.86958	0.00055
1266.94121	0.00063
1265.01283	0.00070
1263.08446	0.00076
1261.15609	0.00095
1259.22771	0.00096
1257.29934	0.00072
1255.37097	0.00051
1253.44259	0.00047
1251.51422	0.00055
1249.58585	0.00058
1247.65747	0.00067
1245.72910	0.00083
1243.80073	0.00100
1241.87235	0.00096
1239.94398	0.00082
1238.01561	0.00070
1236.08723	0.00072
1234.15886	0.00089
1232.23049	0.00106
1230.30212	0.00127
1228.37374	0.00138
1226.44537	0.00127
1224.51700	0.00103
1222.58862	0.00088
1220.66025	0.00105
1218.73188	0.00136
1216.80350	0.00154
1214.87513	0.00143
1212.94676	0.00107
1211.01838	0.00071
1209.09001	0.00077
1207.16164	0.00114
1205.23326	0.00136
1203.30489	0.00144
1201.37652	0.00137
1199.44814	0.00107
1197.51977	0.00103
1195.59140	0.00107
1193.66302	0.00102
1191.73465	0.00118
1189.80628	0.00128
1187.87790	0.00111
1185.94953	0.00095
1184.02116	0.00090
1182.09278	0.00094
1180.16441	0.00110
1178.23604	0.00129
1176.30766	0.00128
1174.37929	0.00118
1172.45092	0.00125
1170.52255	0.00115
1168.59417	0.00095
1166.66580	0.00090
1164.73743	0.00087
1162.80905	0.00081
1160.88068	0.00089
1158.95231	0.00113
1157.02393	0.00134
1155.09556	0.00150
1153.16719	0.00156
1151.23881	0.00153
1149.31044	0.00145
1147.38207	0.00126
1145.45369	0.00095
1143.52532	0.00094
1141.59695	0.00115
1139.66857	0.00145
1137.74020	0.00163
1135.81183	0.00165
1133.88345	0.00161
1131.95508	0.00154
1130.02671	0.00147
1128.09833	0.00159
1126.16996	0.00171
1124.24159	0.00150
1122.31321	0.00125
1120.38484	0.00158
1118.45647	0.00196
1116.52809	0.00177
1114.59972	0.00141
1112.67135	0.00138
1110.74298	0.00156
1108.81460	0.00168
1106.88623	0.00165
1104.95786	0.00147
1103.02948	0.00140
1101.10111	0.00168
1099.17274	0.00203
1097.24436	0.00207
1095.31599	0.00182
1093.38762	0.00154
1091.45924	0.00151
1089.53087	0.00146
1087.60250	0.00126
1085.67412	0.00114
1083.74575	0.00135
1081.81738	0.00167
1079.88900	0.00177
1077.96063	0.00164
1076.03226	0.00144
1074.10388	0.00129
1072.17551	0.00116
1070.24714	0.00112
1068.31876	0.00125
1066.39039	0.00153
1064.46202	0.00185
1062.53364	0.00192
1060.60527	0.00175
1058.67690	0.00138
1056.74853	0.00100
1054.82015	0.00096
1052.89178	0.00124
1050.96341	0.00126
1049.03503	0.00092
1047.10666	0.00069
1045.17829	0.00087
1043.24991	0.00118
1041.32154	0.00146
1039.39317	0.00173
1037.46479	0.00177
1035.53642	0.00155
1033.60805	0.00133
1031.67967	0.00124
1029.75130	0.00112
1027.82293	0.00097
1025.89455	0.00097
1023.96618	0.00108
1022.03781	0.00125
1020.10943	0.00131
1018.18106	0.00131
1016.25269	0.00127
1014.32431	0.00128
1012.39594	0.00118
1010.46757	0.00092
1008.53919	0.00078
1006.61082	0.00080
1004.68245	0.00068
1002.75407	0.00054
1000.82570	0.00058
998.89733	0.00067
996.96896	0.00069
995.04058	0.00083
993.11221	0.00110
991.18384	0.00117
989.25546	0.00105
987.32709	0.00093
985.39872	0.00084
983.47034	0.00076
981.54197	0.00077
979.61360	0.00094
977.68522	0.00117
975.75685	0.00121
973.82848	0.00105
971.90010	0.00101
969.97173	0.00115
968.04336	0.00135
966.11498	0.00162
964.18661	0.00179
962.25824	0.00167
960.32986	0.00140
958.40149	0.00112
956.47312	0.00100
954.54474	0.00110
952.61637	0.00109
950.68800	0.00106
948.75962	0.00125
946.83125	0.00142
944.90288	0.00144
942.97451	0.00144
941.04613	0.00187
939.11776	0.00266
937.18939	0.00367
935.26101	0.00497
933.33264	0.00631
931.40427	0.00740
929.47589	0.00807
927.54752	0.00826
925.61915	0.00809
923.69077	0.00775
921.76240	0.00747
919.83403	0.00748
917.90565	0.00810
915.97728	0.00927
914.04891	0.01031
912.12053	0.01078
910.19216	0.01054
908.26379	0.00942
906.33541	0.00764
904.40704	0.00580
902.47867	0.00437
900.55029	0.00354
898.62192	0.00316
896.69355	0.00306
894.76517	0.00321
892.83680	0.00378
890.90843	0.00469
888.98005	0.00566
887.05168	0.00641
885.12331	0.00686
883.19494	0.00748
881.26656	0.00886
879.33819	0.01079
877.40982	0.01263
875.48144	0.01394
873.55307	0.01447
871.62470	0.01430
869.69632	0.01394
867.76795	0.01375
865.83958	0.01365
863.91120	0.01346
861.98283	0.01294
860.05446	0.01202
858.12608	0.01089
856.19771	0.00990
854.26934	0.00938
852.34096	0.00930
850.41259	0.00951
848.48422	0.00988
846.55584	0.01022
844.62747	0.01054
842.69910	0.01072
840.77072	0.01054
838.84235	0.01026
836.91398	0.01004
834.98560	0.00970
833.05723	0.00945
831.12886	0.00913
829.20049	0.00831
827.27211	0.00728
825.34374	0.00643
823.41537	0.00573
821.48699	0.00535
819.55862	0.00536
817.63025	0.00541
815.70187	0.00542
813.77350	0.00552
811.84513	0.00532
809.91675	0.00462
807.98838	0.00406
806.06001	0.00397
804.13163	0.00413
802.20326	0.00418
800.27489	0.00382
798.34651	0.00335
796.41814	0.00313
794.48977	0.00304
792.56139	0.00257
790.63302	0.00202
788.70465	0.00184
786.77627	0.00175
784.84790	0.00164
782.91953	0.00167
780.99115	0.00170
779.06278	0.00168
777.13441	0.00161
775.20603	0.00167
773.27766	0.00212
771.34929	0.00265
769.42092	0.00265
767.49254	0.00199
765.56417	0.00135
763.63580	0.00120
761.70742	0.00156
759.77905	0.00239
757.85068	0.00290
755.92230	0.00276
753.99393	0.00245
752.06556	0.00245
750.13718	0.00263
748.20881	0.00253
746.28044	0.00197
744.35206	0.00143
742.42369	0.00141
740.49532	0.00174
738.56694	0.00188
736.63857	0.00193
734.71020	0.00218
732.78182	0.00230
730.85345	0.00235
728.92508	0.00233
726.99670	0.00230
725.06833	0.00227
723.13996	0.00221
721.21158	0.00238
719.28321	0.00262
717.35484	0.00288
715.42647	0.00294
713.49809	0.00265
711.56972	0.00228
709.64135	0.00210
707.71297	0.00195
705.78460	0.00196
703.85623	0.00239
701.92785	0.00268
699.99948	0.00275
698.07111	0.00259
696.14273	0.00252
694.21436	0.00243
692.28599	0.00218
690.35761	0.00216
688.42924	0.00215
686.50087	0.00207
684.57249	0.00230
682.64412	0.00304
680.71575	0.00371
678.78737	0.00377
676.85900	0.00382
674.93063	0.00390
673.00225	0.00372
671.07388	0.00405
669.14551	0.00475
667.21713	0.00449
665.28876	0.00343
663.36039	0.00252
661.43201	0.00220
659.50364	0.00259
657.57527	0.00361
655.64690	0.00482
653.71852	0.00524
651.79015	0.00456
649.86178	0.00387
647.93340	0.00447
646.00503	0.00532
644.07666	0.00464
642.14828	0.00364
640.21991	0.00390
638.29154	0.00477
636.36316	0.00520
634.43479	0.00487
632.50642	0.00421
630.57804	0.00373
628.64967	0.00363
626.72130	0.00377
624.79292	0.00418
622.86455	0.00462
620.93618	0.00496
619.00780	0.00433
617.07943	0.00460
615.15106	0.00677
613.22268	0.00891
611.29431	0.00942
609.36594	0.00843
607.43756	0.00793
605.50919	0.00966
603.58082	0.01215
601.65244	0.01353
599.72407	0.01399
