3997.51769	0.85821
3995.58931	0.85787
3993.66094	0.85753
3991.73257	0.85722
3989.80419	0.85718
3987.87582	0.85729
3985.94745	0.85717
3984.01907	0.85689
3982.09070	0.85670
3980.16233	0.85654
3978.23396	0.85651
3976.30558	0.85685
3974.37721	0.85700
3972.44884	0.85659
3970.52046	0.85614
3968.59209	0.85616
3966.66372	0.85686
3964.73534	0.85782
3962.80697	0.85832
3960.87860	0.85815
3958.95022	0.85778
3957.02185	0.85771
3955.09348	0.85798
3953.16510	0.85833
3951.23673	0.85886
3949.30836	0.85973
3947.37998	0.86049
3945.45161	0.86090
3943.52324	0.86112
3941.59486	0.86080
3939.66649	0.86024
3937.73812	0.86014
3935.80974	0.86068
3933.88137	0.86185
3931.95300	0.86289
3930.02462	0.86281
3928.09625	0.86245
3926.16788	0.86297
3924.23950	0.86374
3922.31113	0.86420
3920.38276	0.86514
3918.45439	0.86631
3916.52601	0.86636
3914.59764	0.86552
3912.66927	0.86514
3910.74089	0.86531
3908.81252	0.86615
3906.88415	0.86891
3904.95577	0.87332
3903.02740	0.87654
3901.09903	0.87681
3899.17065	0.87485
3897.24228	0.87209
3895.31391	0.87094
3893.38553	0.87248
3891.45716	0.87431
3889.52879	0.87423
3887.60041	0.87479
3885.67204	0.87656
3883.74367	0.87714
3881.81529	0.87751
3879.88692	0.87735
3877.95855	0.87564
3876.03017	0.87555
3874.10180	0.87770
3872.17343	0.88042
3870.24505	0.88226
3868.31668	0.88133
3866.38831	0.88015
3864.45994	0.88062
3862.53156	0.88028
3860.60319	0.87894
3858.67482	0.87912
3856.74644	0.88337
3854.81807	0.89234
3852.88970	0.89588
3850.96132	0.88719
3849.03295	0.87978
3847.10458	0.87758
3845.17620	0.87872
3843.24783	0.88122
3841.31946	0.88406
3839.39108	0.88728
3837.46271	0.88840
3835.53434	0.88596
3833.60596	0.88347
3831.67759	0.88197
3829.74922	0.88061
3827.82084	0.88001
3825.89247	0.88035
3823.96410	0.88243
3822.03572	0.88636
3820.10735	0.88765
3818.17898	0.88631
3816.25060	0.88541
3814.32223	0.88224
3812.39386	0.87844
3810.46548	0.87800
3808.53711	0.88063
3806.60874	0.88270
3804.68037	0.88309
3802.75199	0.88488
3800.82362	0.88568
3798.89525	0.88315
3796.96687	0.88099
3795.03850	0.87934
3793.11013	0.87756
3791.18175	0.87649
3789.25338	0.87609
3787.32501	0.87622
3785.39663	0.87652
3783.46826	0.87649
3781.53989	0.87675
3779.61151	0.87707
3777.68314	0.87608
3775.75477	0.87460
3773.82639	0.87427
3771.89802	0.87544
3769.96965	0.87684
3768.04127	0.87659
3766.11290	0.87534
3764.18453	0.87419
3762.25615	0.87404
3760.32778	0.87528
3758.39941	0.87560
3756.47103	0.87454
3754.54266	0.87570
3752.61429	0.88082
3750.68591	0.88509
3748.75754	0.88318
3746.82917	0.88181
3744.90080	0.88288
3742.97242	0.87862
3741.04405	0.87197
3739.11568	0.87035
3737.18730	0.87333
3735.25893	0.87630
3733.33056	0.87464
3731.40218	0.86942
3729.47381	0.86507
3727.54544	0.86331
3725.61706	0.86282
3723.68869	0.86195
3721.76032	0.86016
3719.83194	0.85750
3717.90357	0.85491
3715.97520	0.85392
3714.04682	0.85516
3712.11845	0.85681
3710.19008	0.85465
3708.26170	0.84926
3706.33333	0.84466
3704.40496	0.84185
3702.47658	0.83945
3700.54821	0.83545
3698.61984	0.83065
3696.69146	0.82635
3694.76309	0.82262
3692.83472	0.81988
3690.90635	0.81774
3688.97797	0.81248
3687.04960	0.80179
3685.12123	0.79057
3683.19285	0.78133
3681.26448	0.77311
3679.33611	0.76606
3677.40773	0.76061
3675.47936	0.75261
3673.55099	0.74016
3671.62261	0.72948
3669.69424	0.71826
3667.76587	0.70386
3665.83749	0.69061
3663.90912	0.67899
3661.98075	0.66769
3660.05237	0.65703
3658.12400	0.64740
3656.19563	0.63666
3654.26725	0.62487
3652.33888	0.61544
3650.41051	0.60706
3648.48213	0.59473
3646.55376	0.57924
3644.62539	0.56554
3642.69701	0.55387
3640.76864	0.54285
3638.84027	0.53218
3636.91189	0.52206
3634.98352	0.51226
3633.05515	0.50317
3631.12678	0.49577
3629.19840	0.48762
3627.27003	0.47596
3625.34166	0.46481
3623.41328	0.45608
3621.48491	0.44874
3619.55654	0.44113
3617.62816	0.43249
3615.69979	0.42426
3613.77142	0.41669
3611.84304	0.40912
3609.91467	0.40162
3607.98630	0.39401
3606.05792	0.38616
3604.12955	0.37884
3602.20118	0.37210
3600.27280	0.36557
3598.34443	0.35914
3596.41606	0.35286
3594.48768	0.34668
3592.55931	0.34069
3590.63094	0.33539
3588.70256	0.33047
3586.77419	0.32491
3584.84582	0.31880
3582.91744	0.31297
3580.98907	0.30755
3579.06070	0.30230
3577.13233	0.29713
3575.20395	0.29197
3573.27558	0.28708
3571.34721	0.28276
3569.41883	0.27887
3567.49046	0.27480
3565.56209	0.27000
3563.63371	0.26521
3561.70534	0.26101
3559.77697	0.25719
3557.84859	0.25336
3555.92022	0.24949
3553.99185	0.24595
3552.06347	0.24264
3550.13510	0.23915
3548.20673	0.23546
3546.27835	0.23184
3544.34998	0.22849
3542.42161	0.22533
3540.49323	0.22233
3538.56486	0.21954
3536.63649	0.21690
3534.70811	0.21409
3532.77974	0.21127
3530.85137	0.20870
3528.92299	0.20638
3526.99462	0.20408
3525.06625	0.20150
3523.13787	0.19876
3521.20950	0.19620
3519.28113	0.19389
3517.35276	0.19165
3515.42438	0.18943
3513.49601	0.18722
3511.56764	0.18504
3509.63926	0.18299
3507.71089	0.18096
3505.78252	0.17892
3503.85414	0.17694
3501.92577	0.17495
3499.99740	0.17287
3498.06902	0.17090
3496.14065	0.16923
3494.21228	0.16770
3492.28390	0.16620
3490.35553	0.16464
3488.42716	0.16303
3486.49878	0.16151
3484.57041	0.16004
3482.64204	0.15858
3480.71366	0.15721
3478.78529	0.15589
3476.85692	0.15452
3474.92854	0.15313
3473.00017	0.15176
3471.07180	0.15048
3469.14342	0.14944
3467.21505	0.14846
3465.28668	0.14728
3463.35831	0.14591
3461.42993	0.14457
3459.50156	0.14331
3457.57319	0.14205
3455.64481	0.14085
3453.71644	0.13980
3451.78807	0.13875
3449.85969	0.13749
3447.93132	0.13619
3446.00295	0.13498
3444.07457	0.13385
3442.14620	0.13269
3440.21783	0.13146
3438.28945	0.13018
3436.36108	0.12885
3434.43271	0.12756
3432.50433	0.12642
3430.57596	0.12535
3428.64759	0.12412
3426.71921	0.12272
3424.79084	0.12147
3422.86247	0.12045
3420.93409	0.11941
3419.00572	0.11813
3417.07735	0.11668
3415.14897	0.11537
3413.22060	0.11431
3411.29223	0.11327
3409.36385	0.11214
3407.43548	0.11097
3405.50711	0.10981
3403.57874	0.10874
3401.65036	0.10767
3399.72199	0.10655
3397.79362	0.10543
3395.86524	0.10437
3393.93687	0.10338
3392.00850	0.10239
3390.08012	0.10132
3388.15175	0.09997
3386.22338	0.09835
3384.29500	0.09680
3382.36663	0.09545
3380.43826	0.09423
3378.50988	0.09295
3376.58151	0.09144
3374.65314	0.08987
3372.72476	0.08842
3370.79639	0.08695
3368.86802	0.08536
3366.93964	0.08375
3365.01127	0.08201
3363.08290	0.08017
3361.15452	0.07847
3359.22615	0.07690
3357.29778	0.07533
3355.36940	0.07362
3353.44103	0.07166
3351.51266	0.06970
3349.58428	0.06801
3347.65591	0.06640
3345.72754	0.06465
3343.79917	0.06294
3341.87079	0.06133
3339.94242	0.05957
3338.01405	0.05764
3336.08567	0.05571
3334.15730	0.05391
3332.22893	0.05221
3330.30055	0.05065
3328.37218	0.04927
3326.44381	0.04790
3324.51543	0.04641
3322.58706	0.04480
3320.65869	0.04322
3318.73031	0.04175
3316.80194	0.04042
3314.87357	0.03917
3312.94519	0.03788
3311.01682	0.03658
3309.08845	0.03543
3307.16007	0.03449
3305.23170	0.03370
3303.30333	0.03302
3301.37495	0.03242
3299.44658	0.03184
3297.51821	0.03117
3295.58983	0.03048
3293.66146	0.03000
3291.73309	0.02982
3289.80472	0.02990
3287.87634	0.03018
3285.94797	0.03042
3284.01960	0.03048
3282.09122	0.03061
3280.16285	0.03104
3278.23448	0.03164
3276.30610	0.03229
3274.37773	0.03320
3272.44936	0.03444
3270.52098	0.03574
3268.59261	0.03702
3266.66424	0.03857
3264.73586	0.04046
3262.80749	0.04248
3260.87912	0.04458
3258.95074	0.04683
3257.02237	0.04916
3255.09400	0.05156
3253.16562	0.05418
3251.23725	0.05705
3249.30888	0.06007
3247.38050	0.06310
3245.45213	0.06594
3243.52376	0.06847
3241.59538	0.07088
3239.66701	0.07327
3237.73864	0.07561
3235.81026	0.07787
3233.88189	0.07996
3231.95352	0.08181
3230.02515	0.08358
3228.09677	0.08543
3226.16840	0.08724
3224.24003	0.08875
3222.31165	0.09004
3220.38328	0.09143
3218.45491	0.09300
3216.52653	0.09451
3214.59816	0.09584
3212.66979	0.09719
3210.74141	0.09867
3208.81304	0.10018
3206.88467	0.10177
3204.95629	0.10343
3203.02792	0.10513
3201.09955	0.10693
3199.17117	0.10878
3197.24280	0.11056
3195.31443	0.11229
3193.38605	0.11411
3191.45768	0.11601
3189.52931	0.11797
3187.60093	0.11990
3185.67256	0.12189
3183.74419	0.12406
3181.81581	0.12625
3179.88744	0.12848
3177.95907	0.13081
3176.03070	0.13300
3174.10232	0.13499
3172.17395	0.13711
3170.24558	0.13938
3168.31720	0.14168
3166.38883	0.14402
3164.46046	0.14624
3162.53208	0.14820
3160.60371	0.14996
3158.67534	0.15175
3156.74696	0.15381
3154.81859	0.15603
3152.89022	0.15809
3150.96184	0.15983
3149.03347	0.16136
3147.10510	0.16286
3145.17672	0.16441
3143.24835	0.16593
3141.31998	0.16741
3139.39160	0.16884
3137.46323	0.17009
3135.53486	0.17112
3133.60648	0.17207
3131.67811	0.17299
3129.74974	0.17377
3127.82136	0.17458
3125.89299	0.17555
3123.96462	0.17629
3122.03624	0.17660
3120.10787	0.17676
3118.17950	0.17692
3116.25113	0.17706
3114.32275	0.17720
3112.39438	0.17713
3110.46601	0.17667
3108.53763	0.17613
3106.60926	0.17568
3104.68089	0.17514
3102.75251	0.17441
3100.82414	0.17363
3098.89577	0.17300
3096.96739	0.17240
3095.03902	0.17159
3093.11065	0.17051
3091.18227	0.16935
3089.25390	0.16824
3087.32553	0.16727
3085.39715	0.16651
3083.46878	0.16602
3081.54041	0.16577
3079.61203	0.16562
3077.68366	0.16542
3075.75529	0.16513
3073.82691	0.16488
3071.89854	0.16497
3069.97017	0.16541
3068.04179	0.16598
3066.11342	0.16667
3064.18505	0.16764
3062.25668	0.16901
3060.32830	0.17077
3058.39993	0.17270
3056.47156	0.17459
3054.54318	0.17654
3052.61481	0.17864
3050.68644	0.18093
3048.75806	0.18342
3046.82969	0.18603
3044.90132	0.18875
3042.97294	0.19143
3041.04457	0.19398
3039.11620	0.19656
3037.18782	0.19912
3035.25945	0.20163
3033.33108	0.20421
3031.40270	0.20669
3029.47433	0.20898
3027.54596	0.21126
3025.61758	0.21369
3023.68921	0.21631
3021.76084	0.21892
3019.83246	0.22123
3017.90409	0.22323
3015.97572	0.22506
3014.04734	0.22665
3012.11897	0.22783
3010.19060	0.22869
3008.26222	0.22938
3006.33385	0.22966
3004.40548	0.22928
3002.47711	0.22844
3000.54873	0.22735
2998.62036	0.22577
2996.69199	0.22339
2994.76361	0.22014
2992.83524	0.21599
2990.90687	0.21117
2988.97849	0.20616
2987.05012	0.20105
2985.12175	0.19565
2983.19337	0.19007
2981.26500	0.18472
2979.33663	0.17972
2977.40825	0.17500
2975.47988	0.17050
2973.55151	0.16619
2971.62313	0.16203
2969.69476	0.15816
2967.76639	0.15491
2965.83801	0.15244
2963.90964	0.15067
2961.98127	0.14977
2960.05289	0.15028
2958.12452	0.15242
2956.19615	0.15580
2954.26777	0.15998
2952.33940	0.16440
2950.41103	0.16820
2948.48266	0.17064
2946.55428	0.17144
2944.62591	0.17061
2942.69754	0.16854
2940.76916	0.16562
2938.84079	0.16229
2936.91242	0.15919
2934.98404	0.15678
2933.05567	0.15490
2931.12730	0.15320
2929.19892	0.15153
2927.27055	0.15006
2925.34218	0.14866
2923.41380	0.14692
2921.48543	0.14477
2919.55706	0.14293
2917.62868	0.14327
2915.70031	0.14828
2913.77194	0.15855
2911.84356	0.17118
2909.91519	0.18247
2907.98682	0.19118
2906.05844	0.19786
2904.13007	0.20295
2902.20170	0.20673
2900.27332	0.20964
2898.34495	0.21199
2896.41658	0.21384
2894.48820	0.21530
2892.55983	0.21656
2890.63146	0.21767
2888.70309	0.21851
2886.77471	0.21872
2884.84634	0.21787
2882.91797	0.21597
2880.98959	0.21352
2879.06122	0.21130
2877.13285	0.21016
2875.20447	0.21072
2873.27610	0.21332
2871.34773	0.21815
2869.41935	0.22495
2867.49098	0.23280
2865.56261	0.24027
2863.63423	0.24603
2861.70586	0.24951
2859.77749	0.25087
2857.84911	0.25033
2855.92074	0.24785
2853.99237	0.24311
2852.06399	0.23624
2850.13562	0.23121
2848.20725	0.23544
2846.27887	0.25099
2844.35050	0.27064
2842.42213	0.28678
2840.49375	0.29785
2838.56538	0.30540
2836.63701	0.31078
2834.70863	0.31484
2832.78026	0.31819
2830.85189	0.32113
2828.92352	0.32373
2826.99514	0.32607
2825.06677	0.32835
2823.13840	0.33069
2821.21002	0.33301
2819.28165	0.33518
2817.35328	0.33723
2815.42490	0.33927
2813.49653	0.34150
2811.56816	0.34400
2809.63978	0.34653
2807.71141	0.34897
2805.78304	0.35141
2803.85466	0.35389
2801.92629	0.35630
2799.99792	0.35876
2798.06954	0.36135
2796.14117	0.36389
2794.21280	0.36618
2792.28442	0.36834
2790.35605	0.37068
2788.42768	0.37331
2786.49930	0.37591
2784.57093	0.37819
2782.64256	0.38024
2780.71418	0.38235
2778.78581	0.38452
2776.85744	0.38661
2774.92907	0.38865
2773.00069	0.39074
2771.07232	0.39288
2769.14395	0.39497
2767.21557	0.39709
2765.28720	0.39926
2763.35883	0.40146
2761.43045	0.40372
2759.50208	0.40598
2757.57371	0.40803
2755.64533	0.40997
2753.71696	0.41193
2751.78859	0.41388
2749.86021	0.41578
2747.93184	0.41760
2746.00347	0.41934
2744.07509	0.42100
2742.14672	0.42264
2740.21835	0.42436
2738.28997	0.42621
2736.36160	0.42823
2734.43323	0.43029
2732.50485	0.43221
2730.57648	0.43399
2728.64811	0.43594
2726.71973	0.43813
2724.79136	0.44033
2722.86299	0.44249
2720.93461	0.44468
2719.00624	0.44692
2717.07787	0.44925
2715.14950	0.45162
2713.22112	0.45378
2711.29275	0.45563
2709.36438	0.45742
2707.43600	0.45931
2705.50763	0.46122
2703.57926	0.46305
2701.65088	0.46480
2699.72251	0.46644
2697.79414	0.46775
2695.86576	0.46884
2693.93739	0.47004
2692.00902	0.47139
2690.08064	0.47272
2688.15227	0.47410
2686.22390	0.47561
2684.29552	0.47713
2682.36715	0.47856
2680.43878	0.47989
2678.51040	0.48128
2676.58203	0.48289
2674.65366	0.48458
2672.72528	0.48614
2670.79691	0.48764
2668.86854	0.48909
2666.94016	0.49042
2665.01179	0.49174
2663.08342	0.49311
2661.15505	0.49440
2659.22667	0.49557
2657.29830	0.49672
2655.36993	0.49787
2653.44155	0.49898
2651.51318	0.50000
2649.58481	0.50100
2647.65643	0.50206
2645.72806	0.50309
2643.79969	0.50409
2641.87131	0.50500
2639.94294	0.50578
2638.01457	0.50652
2636.08619	0.50731
2634.15782	0.50816
2632.22945	0.50910
2630.30107	0.51009
2628.37270	0.51107
2626.44433	0.51205
2624.51595	0.51300
2622.58758	0.51394
2620.65921	0.51488
2618.73083	0.51581
2616.80246	0.51687
2614.87409	0.51824
2612.94571	0.51975
2611.01734	0.52114
2609.08897	0.52238
2607.16059	0.52355
2605.23222	0.52475
2603.30385	0.52608
2601.37548	0.52756
2599.44710	0.52909
2597.51873	0.53055
2595.59036	0.53189
2593.66198	0.53324
2591.73361	0.53468
2589.80524	0.53612
2587.87686	0.53753
2585.94849	0.53892
2584.02012	0.54023
2582.09174	0.54151
2580.16337	0.54298
2578.23500	0.54459
2576.30662	0.54619
2574.37825	0.54779
2572.44988	0.54944
2570.52150	0.55110
2568.59313	0.55271
2566.66476	0.55429
2564.73638	0.55593
2562.80801	0.55766
2560.87964	0.55949
2558.95126	0.56131
2557.02289	0.56299
2555.09452	0.56459
2553.16614	0.56616
2551.23777	0.56766
2549.30940	0.56910
2547.38103	0.57055
2545.45265	0.57200
2543.52428	0.57330
2541.59591	0.57446
2539.66753	0.57568
2537.73916	0.57702
2535.81079	0.57832
2533.88241	0.57937
2531.95404	0.58016
2530.02567	0.58098
2528.09729	0.58195
2526.16892	0.58289
2524.24055	0.58377
2522.31217	0.58467
2520.38380	0.58549
2518.45543	0.58628
2516.52705	0.58731
2514.59868	0.58844
2512.67031	0.58934
2510.74193	0.59006
2508.81356	0.59087
2506.88519	0.59187
2504.95681	0.59292
2503.02844	0.59394
2501.10007	0.59492
2499.17169	0.59598
2497.24332	0.59719
2495.31495	0.59850
2493.38657	0.59972
2491.45820	0.60082
2489.52983	0.60194
2487.60146	0.60316
2485.67308	0.60442
2483.74471	0.60568
2481.81634	0.60700
2479.88796	0.60837
2477.95959	0.60963
2476.03122	0.61079
2474.10284	0.61201
2472.17447	0.61337
2470.24610	0.61474
2468.31772	0.61602
2466.38935	0.61721
2464.46098	0.61835
2462.53260	0.61954
2460.60423	0.62085
2458.67586	0.62219
2456.74748	0.62356
2454.81911	0.62502
2452.89074	0.62646
2450.96236	0.62772
2449.03399	0.62877
2447.10562	0.62976
2445.17724	0.63083
2443.24887	0.63196
2441.32050	0.63316
2439.39212	0.63437
2437.46375	0.63554
2435.53538	0.63673
2433.60700	0.63794
2431.67863	0.63909
2429.75026	0.64019
2427.82189	0.64134
2425.89351	0.64251
2423.96514	0.64365
2422.03677	0.64482
2420.10839	0.64606
2418.18002	0.64728
2416.25165	0.64836
2414.32327	0.64944
2412.39490	0.65060
2410.46653	0.65171
2408.53815	0.65278
2406.60978	0.65398
2404.68141	0.65519
2402.75303	0.65624
2400.82466	0.65721
2398.89629	0.65825
2396.96791	0.65939
2395.03954	0.66062
2393.11117	0.66186
2391.18279	0.66293
2389.25442	0.66368
2387.32605	0.66412
2385.39767	0.66439
2383.46930	0.66445
2381.54093	0.66420
2379.61255	0.66373
2377.68418	0.66322
2375.75581	0.66279
2373.82744	0.66254
2371.89906	0.66249
2369.97069	0.66263
2368.04232	0.66310
2366.11394	0.66371
2364.18557	0.66414
2362.25720	0.66502
2360.32882	0.66680
2358.40045	0.66820
2356.47208	0.66819
2354.54370	0.66795
2352.61533	0.66863
2350.68696	0.66972
2348.75858	0.67051
2346.83021	0.67077
2344.90184	0.67062
2342.97346	0.67056
2341.04509	0.67088
2339.11672	0.67129
2337.18834	0.67181
2335.25997	0.67253
2333.33160	0.67327
2331.40322	0.67399
2329.47485	0.67462
2327.54648	0.67491
2325.61810	0.67501
2323.68973	0.67529
2321.76136	0.67600
2319.83298	0.67719
2317.90461	0.67858
2315.97624	0.67995
2314.04787	0.68128
2312.11949	0.68261
2310.19112	0.68391
2308.26275	0.68504
2306.33437	0.68606
2304.40600	0.68714
2302.47763	0.68827
2300.54925	0.68933
2298.62088	0.69019
2296.69251	0.69097
2294.76413	0.69184
2292.83576	0.69275
2290.90739	0.69356
2288.97901	0.69422
2287.05064	0.69482
2285.12227	0.69544
2283.19389	0.69598
2281.26552	0.69629
2279.33715	0.69646
2277.40877	0.69660
2275.48040	0.69671
2273.55203	0.69686
2271.62365	0.69707
2269.69528	0.69730
2267.76691	0.69757
2265.83853	0.69783
2263.91016	0.69802
2261.98179	0.69817
2260.05342	0.69836
2258.12504	0.69858
2256.19667	0.69875
2254.26830	0.69897
2252.33992	0.69928
2250.41155	0.69945
2248.48318	0.69947
2246.55480	0.69957
2244.62643	0.69979
2242.69806	0.69999
2240.76968	0.70010
2238.84131	0.70024
2236.91294	0.70038
2234.98456	0.70041
2233.05619	0.70032
2231.12782	0.70025
2229.19944	0.70018
2227.27107	0.70006
2225.34270	0.69986
2223.41432	0.69960
2221.48595	0.69938
2219.55758	0.69928
2217.62920	0.69919
2215.70083	0.69903
2213.77246	0.69884
2211.84408	0.69864
2209.91571	0.69843
2207.98734	0.69821
2206.05896	0.69804
2204.13059	0.69785
2202.20222	0.69760
2200.27385	0.69731
2198.34547	0.69701
2196.41710	0.69675
2194.48873	0.69656
2192.56035	0.69642
2190.63198	0.69628
2188.70361	0.69609
2186.77523	0.69593
2184.84686	0.69595
2182.91849	0.69602
2180.99011	0.69594
2179.06174	0.69572
2177.13337	0.69553
2175.20499	0.69539
2173.27662	0.69519
2171.34825	0.69505
2169.41987	0.69499
2167.49150	0.69479
2165.56313	0.69450
2163.63475	0.69429
2161.70638	0.69412
2159.77801	0.69393
2157.84963	0.69378
2155.92126	0.69380
2153.99289	0.69393
2152.06451	0.69396
2150.13614	0.69383
2148.20777	0.69368
2146.27940	0.69358
2144.35102	0.69360
2142.42265	0.69380
2140.49428	0.69400
2138.56590	0.69408
2136.63753	0.69411
2134.70916	0.69419
2132.78078	0.69432
2130.85241	0.69449
2128.92404	0.69472
2126.99566	0.69502
2125.06729	0.69534
2123.13892	0.69560
2121.21054	0.69588
2119.28217	0.69626
2117.35380	0.69672
2115.42542	0.69718
2113.49705	0.69761
2111.56868	0.69801
2109.64030	0.69838
2107.71193	0.69875
2105.78356	0.69916
2103.85518	0.69958
2101.92681	0.69995
2099.99844	0.70029
2098.07006	0.70064
2096.14169	0.70101
2094.21332	0.70148
2092.28494	0.70199
2090.35657	0.70239
2088.42820	0.70274
2086.49983	0.70322
2084.57145	0.70371
2082.64308	0.70410
2080.71471	0.70448
2078.78633	0.70487
2076.85796	0.70531
2074.92959	0.70583
2073.00121	0.70645
2071.07284	0.70714
2069.14447	0.70785
2067.21609	0.70853
2065.28772	0.70912
2063.35935	0.70962
2061.43097	0.71020
2059.50260	0.71097
2057.57423	0.71183
2055.64585	0.71271
2053.71748	0.71364
2051.78911	0.71453
2049.86073	0.71533
2047.93236	0.71618
2046.00399	0.71698
2044.07561	0.71766
2042.14724	0.71840
2040.21887	0.71924
2038.29049	0.72010
2036.36212	0.72096
2034.43375	0.72178
2032.50538	0.72246
2030.57700	0.72307
2028.64863	0.72378
2026.72026	0.72450
2024.79188	0.72516
2022.86351	0.72580
2020.93514	0.72646
2019.00676	0.72720
2017.07839	0.72798
2015.15002	0.72869
2013.22164	0.72941
2011.29327	0.73018
2009.36490	0.73094
2007.43652	0.73168
2005.50815	0.73237
2003.57978	0.73297
2001.65140	0.73356
1999.72303	0.73420
1997.79466	0.73481
1995.86628	0.73531
1993.93791	0.73575
1992.00954	0.73620
1990.08116	0.73663
1988.15279	0.73703
1986.22442	0.73738
1984.29604	0.73772
1982.36767	0.73807
1980.43930	0.73841
1978.51092	0.73872
1976.58255	0.73899
1974.65418	0.73925
1972.72581	0.73960
1970.79743	0.74012
1968.86906	0.74071
1966.94069	0.74117
1965.01231	0.74149
1963.08394	0.74179
1961.15557	0.74210
1959.22719	0.74245
1957.29882	0.74289
1955.37045	0.74336
1953.44207	0.74384
1951.51370	0.74434
1949.58533	0.74485
1947.65695	0.74539
1945.72858	0.74605
1943.80021	0.74683
1941.87183	0.74756
1939.94346	0.74802
1938.01509	0.74831
1936.08671	0.74849
1934.15834	0.74859
1932.22997	0.74882
1930.30159	0.74920
1928.37322	0.74946
1926.44485	0.74953
1924.51647	0.74962
1922.58810	0.74976
1920.65973	0.74983
1918.73135	0.74983
1916.80298	0.74964
1914.87461	0.74923
1912.94624	0.74887
1911.01786	0.74872
1909.08949	0.74863
1907.16112	0.74833
1905.23274	0.74781
1903.30437	0.74724
1901.37600	0.74679
1899.44762	0.74642
1897.51925	0.74609
1895.59088	0.74578
1893.66250	0.74544
1891.73413	0.74521
1889.80576	0.74512
1887.87738	0.74488
1885.94901	0.74451
1884.02064	0.74431
1882.09226	0.74432
1880.16389	0.74438
1878.23552	0.74445
1876.30714	0.74456
1874.37877	0.74470
1872.45040	0.74495
1870.52202	0.74540
1868.59365	0.74569
1866.66528	0.74526
1864.73690	0.74445
1862.80853	0.74384
1860.88016	0.74344
1858.95179	0.74307
1857.02341	0.74267
1855.09504	0.74222
1853.16667	0.74175
1851.23829	0.74126
1849.30992	0.74072
1847.38155	0.74026
1845.45317	0.73986
1843.52480	0.73901
1841.59643	0.73763
1839.66805	0.73638
1837.73968	0.73543
1835.81131	0.73446
1833.88293	0.73344
1831.95456	0.73262
1830.02619	0.73181
1828.09781	0.73060
1826.16944	0.72917
1824.24107	0.72758
1822.31269	0.72573
1820.38432	0.72387
1818.45595	0.72212
1816.52757	0.72033
1814.59920	0.71834
1812.67083	0.71622
1810.74245	0.71395
1808.81408	0.71145
1806.88571	0.70879
1804.95733	0.70613
1803.02896	0.70347
1801.10059	0.70057
1799.17222	0.69726
1797.24384	0.69375
1795.31547	0.69034
1793.38710	0.68674
1791.45872	0.68225
1789.53035	0.67727
1787.60198	0.67253
1785.67360	0.66769
1783.74523	0.66241
1781.81686	0.65700
1779.88848	0.65157
1777.96011	0.64608
1776.03174	0.64080
1774.10336	0.63548
1772.17499	0.62893
1770.24662	0.62132
1768.31824	0.61373
1766.38987	0.60613
1764.46150	0.59880
1762.53312	0.59089
1760.60475	0.58169
1758.67638	0.57215
1756.74800	0.56177
1754.81963	0.55074
1752.89126	0.53972
1750.96288	0.52708
1749.03451	0.51236
1747.10614	0.49736
1745.17777	0.48250
1743.24939	0.46770
1741.32102	0.45282
1739.39265	0.43772
1737.46427	0.42486
1735.53590	0.41392
1733.60753	0.40076
1731.67915	0.38717
1729.75078	0.37535
1727.82241	0.36347
1725.89403	0.35144
1723.96566	0.33914
1722.03729	0.32713
1720.10891	0.31580
1718.18054	0.30220
1716.25217	0.28450
1714.32379	0.26658
1712.39542	0.24966
1710.46705	0.23246
1708.53867	0.21462
1706.61030	0.19500
1704.68193	0.17458
1702.75355	0.15662
1700.82518	0.13733
1698.89681	0.11625
1696.96843	0.09962
1695.04006	0.08430
1693.11169	0.07136
1691.18331	0.06161
1689.25494	0.05252
1687.32657	0.04490
1685.39820	0.03817
1683.46982	0.03116
1681.54145	0.02607
1679.61308	0.02282
1677.68470	0.02007
1675.75633	0.01728
1673.82796	0.01476
1671.89958	0.01285
1669.97121	0.01107
1668.04284	0.00909
1666.11446	0.00753
1664.18609	0.00632
1662.25772	0.00517
1660.32934	0.00429
1658.40097	0.00362
1656.47260	0.00334
1654.54422	0.00342
1652.61585	0.00348
1650.68748	0.00340
1648.75910	0.00361
1646.83073	0.00423
1644.90236	0.00484
1642.97398	0.00533
1641.04561	0.00582
1639.11724	0.00649
1637.18886	0.00739
1635.26049	0.00837
1633.33212	0.00906
1631.40375	0.00952
1629.47537	0.01052
1627.54700	0.01244
1625.61863	0.01526
1623.69025	0.01926
1621.76188	0.02431
1619.83351	0.02937
1617.90513	0.03517
1615.97676	0.04256
1614.04839	0.04927
1612.12001	0.05513
1610.19164	0.06139
1608.26327	0.06780
1606.33489	0.07364
1604.40652	0.07869
1602.47815	0.08311
1600.54977	0.08682
1598.62140	0.08977
1596.69303	0.09217
1594.76465	0.09436
1592.83628	0.09647
1590.90791	0.09832
1588.97953	0.09965
1587.05116	0.10024
1585.12279	0.10003
1583.19441	0.09901
1581.26604	0.09730
1579.33767	0.09519
1577.40929	0.09236
1575.48092	0.08811
1573.55255	0.08359
1571.62418	0.07927
1569.69580	0.07378
1567.76743	0.06750
1565.83906	0.06147
1563.91068	0.05559
1561.98231	0.05043
1560.05394	0.04489
1558.12556	0.03735
1556.19719	0.03180
1554.26882	0.02831
1552.34044	0.02565
1550.41207	0.02398
1548.48370	0.02313
1546.55532	0.02289
1544.62695	0.02323
1542.69858	0.02401
1540.77020	0.02508
1538.84183	0.02631
1536.91346	0.02735
1534.98508	0.02863
1533.05671	0.03056
1531.12834	0.03262
1529.19996	0.03459
1527.27159	0.03682
1525.34322	0.03900
1523.41484	0.04075
1521.48647	0.04238
1519.55810	0.04372
1517.62972	0.04520
1515.70135	0.04798
1513.77298	0.05235
1511.84461	0.05784
1509.91623	0.06378
1507.98786	0.07110
1506.05949	0.08103
1504.13111	0.08895
1502.20274	0.09465
1500.27437	0.10100
1498.34599	0.10873
1496.41762	0.11719
1494.48925	0.12477
1492.56087	0.13119
1490.63250	0.13787
1488.70413	0.14450
1486.77575	0.14913
1484.84738	0.15175
1482.91901	0.15293
1480.99063	0.15252
1479.06226	0.15013
1477.13389	0.14551
1475.20551	0.13874
1473.27714	0.13065
1471.34877	0.12335
1469.42039	0.11835
1467.49202	0.11434
1465.56365	0.10960
1463.63527	0.10435
1461.70690	0.10046
1459.77853	0.09781
1457.85016	0.09482
1455.92178	0.09137
1453.99341	0.08938
1452.06504	0.08896
1450.13666	0.08977
1448.20829	0.09186
1446.27992	0.09484
1444.35154	0.09826
1442.42317	0.10234
1440.49480	0.10689
1438.56642	0.11191
1436.63805	0.11819
1434.70968	0.12433
1432.78130	0.12885
1430.85293	0.13275
1428.92456	0.13614
1426.99618	0.13837
1425.06781	0.13949
1423.13944	0.13981
1421.21106	0.13968
1419.28269	0.13921
1417.35432	0.13847
1415.42594	0.13796
1413.49757	0.13783
1411.56920	0.13800
1409.64082	0.13847
1407.71245	0.13922
1405.78408	0.14019
1403.85570	0.14123
1401.92733	0.14210
1399.99896	0.14264
1398.07059	0.14274
1396.14221	0.14213
1394.21384	0.14067
1392.28547	0.13881
1390.35709	0.13739
1388.42872	0.13675
1386.50035	0.13681
1384.57197	0.13747
1382.64360	0.13866
1380.71523	0.14033
1378.78685	0.14242
1376.85848	0.14472
1374.93011	0.14678
1373.00173	0.14831
1371.07336	0.14961
1369.14499	0.15159
1367.21661	0.15479
1365.28824	0.15867
1363.35987	0.16249
1361.43149	0.16557
1359.50312	0.16759
1357.57475	0.16897
1355.64637	0.16992
1353.71800	0.17031
1351.78963	0.17002
1349.86125	0.16910
1347.93288	0.16773
1346.00451	0.16608
1344.07614	0.16419
1342.14776	0.16225
1340.21939	0.16056
1338.29102	0.15913
1336.36264	0.15777
1334.43427	0.15660
1332.50590	0.15572
1330.57752	0.15501
1328.64915	0.15456
1326.72078	0.15459
1324.79240	0.15492
1322.86403	0.15517
1320.93566	0.15503
1319.00728	0.15435
1317.07891	0.15317
1315.15054	0.15165
1313.22216	0.14999
1311.29379	0.14846
1309.36542	0.14712
1307.43704	0.14612
1305.50867	0.14579
1303.58030	0.14612
1301.65192	0.14691
1299.72355	0.14801
1297.79518	0.14917
1295.86680	0.15012
1293.93843	0.15055
1292.01006	0.15022
1290.08168	0.14942
1288.15331	0.14856
1286.22494	0.14774
1284.29657	0.14713
1282.36819	0.14683
1280.43982	0.14676
1278.51145	0.14693
1276.58307	0.14725
1274.65470	0.14755
1272.72633	0.14770
1270.79795	0.14766
1268.86958	0.14756
1266.94121	0.14763
1265.01283	0.14788
1263.08446	0.14810
1261.15609	0.14807
1259.22771	0.14774
1257.29934	0.14710
1255.37097	0.14603
1253.44259	0.14468
1251.51422	0.14337
1249.58585	0.14207
1247.65747	0.14034
1245.72910	0.13831
1243.80073	0.13678
1241.87235	0.13605
1239.94398	0.13577
1238.01561	0.13604
1236.08723	0.13722
1234.15886	0.13922
1232.23049	0.14168
1230.30212	0.14462
1228.37374	0.14857
1226.44537	0.15383
1224.51700	0.15993
1222.58862	0.16617
1220.66025	0.17218
1218.73188	0.17789
1216.80350	0.18320
1214.87513	0.18770
1212.94676	0.19110
1211.01838	0.19338
1209.09001	0.19463
1207.16164	0.19544
1205.23326	0.19655
1203.30489	0.19824
1201.37652	0.20071
1199.44814	0.20416
1197.51977	0.20855
1195.59140	0.21365
1193.66302	0.21894
1191.73465	0.22394
1189.80628	0.22821
1187.87790	0.23137
1185.94953	0.23339
1184.02116	0.23438
1182.09278	0.23440
1180.16441	0.23366
1178.23604	0.23197
1176.30766	0.22896
1174.37929	0.22522
1172.45092	0.22178
1170.52255	0.21895
1168.59417	0.21679
1166.66580	0.21561
1164.73743	0.21551
1162.80905	0.21636
1160.88068	0.21800
1158.95231	0.22033
1157.02393	0.22320
1155.09556	0.22650
1153.16719	0.23049
1151.23881	0.23529
1149.31044	0.24038
1147.38207	0.24542
1145.45369	0.25059
1143.52532	0.25517
1141.59695	0.25811
1139.66857	0.25948
1137.74020	0.25964
1135.81183	0.25842
1133.88345	0.25581
1131.95508	0.25234
1130.02671	0.24835
1128.09833	0.24391
1126.16996	0.23999
1124.24159	0.23763
1122.31321	0.23661
1120.38484	0.23627
1118.45647	0.23631
1116.52809	0.23671
1114.59972	0.23741
1112.67135	0.23835
1110.74298	0.23943
1108.81460	0.24019
1106.88623	0.24026
1104.95786	0.24029
1103.02948	0.24096
1101.10111	0.24208
1099.17274	0.24311
1097.24436	0.24344
1095.31599	0.24286
1093.38762	0.24148
1091.45924	0.23943
1089.53087	0.23688
1087.60250	0.23392
1085.67412	0.23082
1083.74575	0.22799
1081.81738	0.22592
1079.88900	0.22499
1077.96063	0.22506
1076.03226	0.22578
1074.10388	0.22743
1072.17551	0.23012
1070.24714	0.23286
1068.31876	0.23488
1066.39039	0.23628
1064.46202	0.23697
1062.53364	0.23701
1060.60527	0.23690
1058.67690	0.23689
1056.74853	0.23704
1054.82015	0.23747
1052.89178	0.23805
1050.96341	0.23866
1049.03503	0.23921
1047.10666	0.23932
1045.17829	0.23886
1043.24991	0.23793
1041.32154	0.23671
1039.39317	0.23542
1037.46479	0.23392
1035.53642	0.23218
1033.60805	0.23058
1031.67967	0.22938
1029.75130	0.22879
1027.82293	0.22893
1025.89455	0.23006
1023.96618	0.23277
1022.03781	0.23638
1020.10943	0.23951
1018.18106	0.24207
1016.25269	0.24472
1014.32431	0.24777
1012.39594	0.25134
1010.46757	0.25544
1008.53919	0.26028
1006.61082	0.26596
1004.68245	0.27208
1002.75407	0.27801
1000.82570	0.28322
998.89733	0.28782
996.96896	0.29242
995.04058	0.29724
993.11221	0.30222
991.18384	0.30754
989.25546	0.31325
987.32709	0.31892
985.39872	0.32403
983.47034	0.32843
981.54197	0.33200
979.61360	0.33498
977.68522	0.33827
975.75685	0.34281
973.82848	0.34853
971.90010	0.35485
969.97173	0.36141
968.04336	0.36772
966.11498	0.37273
964.18661	0.37527
962.25824	0.37455
960.32986	0.37009
958.40149	0.36250
956.47312	0.35434
954.54474	0.34935
952.61637	0.34977
950.68800	0.35461
948.75962	0.36118
946.83125	0.36760
944.90288	0.37295
942.97451	0.37696
941.04613	0.37992
939.11776	0.38224
937.18939	0.38394
935.26101	0.38499
933.33264	0.38568
931.40427	0.38618
929.47589	0.38626
927.54752	0.38615
925.61915	0.38660
923.69077	0.38752
921.76240	0.38839
919.83403	0.38964
917.90565	0.39189
915.97728	0.39489
914.04891	0.39770
912.12053	0.39871
910.19216	0.39706
908.26379	0.39376
906.33541	0.38985
904.40704	0.38592
902.47867	0.38294
900.55029	0.38100
898.62192	0.37967
896.69355	0.37911
894.76517	0.37936
892.83680	0.38014
890.90843	0.38127
888.98005	0.38255
887.05168	0.38365
885.12331	0.38463
883.19494	0.38593
881.26656	0.38678
879.33819	0.38622
877.40982	0.38497
875.48144	0.38384
873.55307	0.38291
871.62470	0.38242
869.69632	0.38248
867.76795	0.38254
865.83958	0.38205
863.91120	0.38127
861.98283	0.38045
860.05446	0.37905
858.12608	0.37639
856.19771	0.37245
854.26934	0.36788
852.34096	0.36367
850.41259	0.36110
848.48422	0.36023
846.55584	0.35998
844.62747	0.35914
842.69910	0.35644
840.77072	0.35216
838.84235	0.34797
836.91398	0.34485
834.98560	0.34196
833.05723	0.33854
831.12886	0.33550
829.20049	0.33328
827.27211	0.33176
825.34374	0.33116
823.41537	0.33075
821.48699	0.32989
819.55862	0.32918
817.63025	0.32871
815.70187	0.32784
813.77350	0.32545
811.84513	0.32113
809.91675	0.31832
807.98838	0.31920
806.06001	0.31989
804.13163	0.31769
802.20326	0.31495
800.27489	0.31316
798.34651	0.31119
796.41814	0.30881
794.48977	0.30496
792.56139	0.29918
790.63302	0.29442
788.70465	0.29040
786.77627	0.28380
784.84790	0.27804
782.91953	0.27819
780.99115	0.27869
779.06278	0.27504
777.13441	0.27283
775.20603	0.27332
773.27766	0.27184
771.34929	0.26789
769.42092	0.26331
767.49254	0.25891
765.56417	0.25538
763.63580	0.25306
761.70742	0.25136
759.77905	0.24918
757.85068	0.24697
755.92230	0.24707
753.99393	0.24868
752.06556	0.24705
750.13718	0.24203
748.20881	0.23841
746.28044	0.23811
744.35206	0.23848
742.42369	0.23774
740.49532	0.23697
738.56694	0.23634
736.63857	0.23515
734.71020	0.23344
732.78182	0.23188
730.85345	0.23070
728.92508	0.22829
726.99670	0.22440
725.06833	0.22088
723.13996	0.21787
721.21158	0.21440
719.28321	0.21142
717.35484	0.21021
715.42647	0.21006
713.49809	0.20944
711.56972	0.20703
709.64135	0.20309
707.71297	0.19926
705.78460	0.19678
703.85623	0.19573
701.92785	0.19506
699.99948	0.19401
698.07111	0.19255
696.14273	0.19093
694.21436	0.18952
692.28599	0.18837
690.35761	0.18741
688.42924	0.18622
686.50087	0.18452
684.57249	0.18365
682.64412	0.18399
680.71575	0.18246
678.78737	0.17896
676.85900	0.17825
674.93063	0.18115
673.00225	0.18378
671.07388	0.18310
669.14551	0.17960
667.21713	0.17871
665.28876	0.18155
663.36039	0.18387
661.43201	0.18336
659.50364	0.17907
657.57527	0.17304
655.64690	0.17003
653.71852	0.17269
651.79015	0.17483
649.86178	0.17301
647.93340	0.17561
646.00503	0.18170
644.07666	0.18684
642.14828	0.19141
640.21991	0.19362
638.29154	0.19376
636.36316	0.19214
634.43479	0.18942
632.50642	0.18709
630.57804	0.18519
628.64967	0.18247
626.72130	0.18552
624.79292	0.19040
622.86455	0.18811
620.93618	0.18661
619.00780	0.19617
617.07943	0.20799
615.15106	0.20854
613.22268	0.19918
611.29431	0.19507
609.36594	0.20461
607.43756	0.21719
605.50919	0.21504
603.58082	0.19822
601.65244	0.18648
599.72407	0.18559
