3997.51769	0.38957
3995.58931	0.39103
3993.66094	0.39276
3991.73257	0.39451
3989.80419	0.39642
3987.87582	0.39866
3985.94745	0.40133
3984.01907	0.40421
3982.09070	0.40674
3980.16233	0.40857
3978.23396	0.40997
3976.30558	0.41136
3974.37721	0.41265
3972.44884	0.41385
3970.52046	0.41529
3968.59209	0.41702
3966.66372	0.41878
3964.73534	0.42052
3962.80697	0.42224
3960.87860	0.42387
3958.95022	0.42542
3957.02185	0.42699
3955.09348	0.42862
3953.16510	0.43010
3951.23673	0.43133
3949.30836	0.43259
3947.37998	0.43382
3945.45161	0.43490
3943.52324	0.43621
3941.59486	0.43754
3939.66649	0.43840
3937.73812	0.43918
3935.80974	0.44035
3933.88137	0.44198
3931.95300	0.44390
3930.02462	0.44526
3928.09625	0.44597
3926.16788	0.44709
3924.23950	0.44864
3922.31113	0.44987
3920.38276	0.45117
3918.45439	0.45308
3916.52601	0.45482
3914.59764	0.45568
3912.66927	0.45620
3910.74089	0.45714
3908.81252	0.45857
3906.88415	0.46065
3904.95577	0.46403
3903.02740	0.46793
3901.09903	0.47052
3899.17065	0.47153
3897.24228	0.47146
3895.31391	0.47129
3893.38553	0.47253
3891.45716	0.47532
3889.52879	0.47726
3887.60041	0.47832
3885.67204	0.48067
3883.74367	0.48280
3881.81529	0.48369
3879.88692	0.48503
3877.95855	0.48589
3876.03017	0.48654
3874.10180	0.48860
3872.17343	0.49151
3870.24505	0.49477
3868.31668	0.49694
3866.38831	0.49732
3864.45994	0.49828
3862.53156	0.49982
3860.60319	0.50031
3858.67482	0.50017
3856.74644	0.50110
3854.81807	0.50595
3852.88970	0.51239
3850.96132	0.51129
3849.03295	0.50688
3847.10458	0.50462
3845.17620	0.50500
3843.24783	0.50686
3841.31946	0.50888
3839.39108	0.51119
3837.46271	0.51341
3835.53434	0.51344
3833.60596	0.51212
3831.67759	0.51117
3829.74922	0.51048
3827.82084	0.51018
3825.89247	0.51055
3823.96410	0.51142
3822.03572	0.51392
3820.10735	0.51674
3818.17898	0.51692
3816.25060	0.51671
3814.32223	0.51633
3812.39386	0.51451
3810.46548	0.51315
3808.53711	0.51380
3806.60874	0.51589
3804.68037	0.51697
3802.75199	0.51782
3800.82362	0.51909
3798.89525	0.51791
3796.96687	0.51596
3795.03850	0.51511
3793.11013	0.51422
3791.18175	0.51321
3789.25338	0.51267
3787.32501	0.51255
3785.39663	0.51266
3783.46826	0.51260
3781.53989	0.51239
3779.61151	0.51265
3777.68314	0.51252
3775.75477	0.51133
3773.82639	0.51019
3771.89802	0.50984
3769.96965	0.51014
3768.04127	0.50992
3766.11290	0.50892
3764.18453	0.50776
3762.25615	0.50664
3760.32778	0.50639
3758.39941	0.50661
3756.47103	0.50565
3754.54266	0.50458
3752.61429	0.50584
3750.68591	0.50872
3748.75754	0.50836
3746.82917	0.50603
3744.90080	0.50557
3742.97242	0.50417
3741.04405	0.49947
3739.11568	0.49559
3737.18730	0.49459
3735.25893	0.49501
3733.33056	0.49400
3731.40218	0.49069
3729.47381	0.48660
3727.54544	0.48326
3725.61706	0.48110
3723.68869	0.47896
3721.76032	0.47616
3719.83194	0.47297
3717.90357	0.46917
3715.97520	0.46533
3714.04682	0.46260
3712.11845	0.46095
3710.19008	0.45783
3708.26170	0.45221
3706.33333	0.44605
3704.40496	0.44022
3702.47658	0.43458
3700.54821	0.42823
3698.61984	0.42109
3696.69146	0.41343
3694.76309	0.40521
3692.83472	0.39666
3690.90635	0.38755
3688.97797	0.37663
3687.04960	0.36309
3685.12123	0.34885
3683.19285	0.33476
3681.26448	0.32041
3679.33611	0.30625
3677.40773	0.29234
3675.47936	0.27598
3673.55099	0.25847
3671.62261	0.24335
3669.69424	0.22689
3667.76587	0.20924
3665.83749	0.19387
3663.90912	0.17955
3661.98075	0.16548
3660.05237	0.15214
3658.12400	0.13964
3656.19563	0.12716
3654.26725	0.11574
3652.33888	0.10645
3650.41051	0.09702
3648.48213	0.08595
3646.55376	0.07582
3644.62539	0.06802
3642.69701	0.06128
3640.76864	0.05486
3638.84027	0.04904
3636.91189	0.04399
3634.98352	0.03943
3633.05515	0.03517
3631.12678	0.03141
3629.19840	0.02776
3627.27003	0.02408
3625.34166	0.02116
3623.41328	0.01883
3621.48491	0.01666
3619.55654	0.01441
3617.62816	0.01232
3615.69979	0.01074
3613.77142	0.00945
3611.84304	0.00839
3609.91467	0.00754
3607.98630	0.00649
3606.05792	0.00528
3604.12955	0.00451
3602.20118	0.00407
3600.27280	0.00357
3598.34443	0.00300
3596.41606	0.00249
3594.48768	0.00212
3592.55931	0.00173
3590.63094	0.00133
3588.70256	0.00100
3586.77419	0.00077
3584.84582	0.00071
3582.91744	0.00049
3580.98907	0.00032
3579.06070	0.00049
3577.13233	0.00042
3575.20395	0.00022
3573.27558	0.00023
3571.34721	0.00042
3569.41883	0.00054
3567.49046	0.00047
3565.56209	0.00034
3563.63371	0.00039
3561.70534	0.00033
3559.77697	0.00023
3557.84859	0.00031
3555.92022	0.00038
3553.99185	0.00036
3552.06347	0.00030
3550.13510	0.00036
3548.20673	0.00068
3546.27835	0.00066
3544.34998	0.00033
3542.42161	0.00025
3540.49323	0.00026
3538.56486	0.00035
3536.63649	0.00027
3534.70811	0.00024
3532.77974	0.00021
3530.85137	0.00032
3528.92299	0.00048
3526.99462	0.00054
3525.06625	0.00052
3523.13787	0.00059
3521.20950	0.00055
3519.28113	0.00052
3517.35276	0.00058
3515.42438	0.00046
3513.49601	0.00049
3511.56764	0.00044
3509.63926	0.00028
3507.71089	0.00033
3505.78252	0.00050
3503.85414	0.00063
3501.92577	0.00056
3499.99740	0.00037
3498.06902	0.00026
3496.14065	0.00043
3494.21228	0.00054
3492.28390	0.00055
3490.35553	0.00044
3488.42716	0.00041
3486.49878	0.00047
3484.57041	0.00049
3482.64204	0.00033
3480.71366	0.00010
3478.78529	0.00011
3476.85692	0.00032
3474.92854	0.00050
3473.00017	0.00054
3471.07180	0.00059
3469.14342	0.00054
3467.21505	0.00045
3465.28668	0.00048
3463.35831	0.00054
3461.42993	0.00041
3459.50156	0.00024
3457.57319	0.00030
3455.64481	0.00046
3453.71644	0.00057
3451.78807	0.00058
3449.85969	0.00069
3447.93132	0.00083
3446.00295	0.00084
3444.07457	0.00083
3442.14620	0.00096
3440.21783	0.00100
3438.28945	0.00086
3436.36108	0.00069
3434.43271	0.00059
3432.50433	0.00064
3430.57596	0.00069
3428.64759	0.00068
3426.71921	0.00069
3424.79084	0.00078
3422.86247	0.00081
3420.93409	0.00085
3419.00572	0.00080
3417.07735	0.00070
3415.14897	0.00067
3413.22060	0.00066
3411.29223	0.00065
3409.36385	0.00065
3407.43548	0.00066
3405.50711	0.00063
3403.57874	0.00062
3401.65036	0.00071
3399.72199	0.00070
3397.79362	0.00058
3395.86524	0.00041
3393.93687	0.00036
3392.00850	0.00048
3390.08012	0.00061
3388.15175	0.00067
3386.22338	0.00064
3384.29500	0.00075
3382.36663	0.00084
3380.43826	0.00061
3378.50988	0.00028
3376.58151	0.00026
3374.65314	0.00042
3372.72476	0.00063
3370.79639	0.00068
3368.86802	0.00059
3366.93964	0.00038
3365.01127	0.00046
3363.08290	0.00057
3361.15452	0.00069
3359.22615	0.00067
3357.29778	0.00058
3355.36940	0.00063
3353.44103	0.00070
3351.51266	0.00061
3349.58428	0.00044
3347.65591	0.00034
3345.72754	0.00042
3343.79917	0.00060
3341.87079	0.00070
3339.94242	0.00076
3338.01405	0.00069
3336.08567	0.00063
3334.15730	0.00042
3332.22893	0.00051
3330.30055	0.00055
3328.37218	0.00060
3326.44381	0.00052
3324.51543	0.00046
3322.58706	0.00042
3320.65869	0.00038
3318.73031	0.00037
3316.80194	0.00048
3314.87357	0.00064
3312.94519	0.00065
3311.01682	0.00058
3309.08845	0.00052
3307.16007	0.00049
3305.23170	0.00057
3303.30333	0.00052
3301.37495	0.00046
3299.44658	0.00051
3297.51821	0.00050
3295.58983	0.00035
3293.66146	0.00021
3291.73309	0.00022
3289.80472	0.00029
3287.87634	0.00052
3285.94797	0.00057
3284.01960	0.00060
3282.09122	0.00076
3280.16285	0.00075
3278.23448	0.00055
3276.30610	0.00052
3274.37773	0.00058
3272.44936	0.00055
3270.52098	0.00053
3268.59261	0.00035
3266.66424	0.00028
3264.73586	0.00033
3262.80749	0.00039
3260.87912	0.00053
3258.95074	0.00058
3257.02237	0.00053
3255.09400	0.00062
3253.16562	0.00085
3251.23725	0.00099
3249.30888	0.00088
3247.38050	0.00068
3245.45213	0.00057
3243.52376	0.00046
3241.59538	0.00037
3239.66701	0.00042
3237.73864	0.00038
3235.81026	0.00026
3233.88189	0.00034
3231.95352	0.00037
3230.02515	0.00057
3228.09677	0.00069
3226.16840	0.00060
3224.24003	0.00035
3222.31165	0.00028
3220.38328	0.00031
3218.45491	0.00045
3216.52653	0.00064
3214.59816	0.00077
3212.66979	0.00087
3210.74141	0.00096
3208.81304	0.00097
3206.88467	0.00076
3204.95629	0.00045
3203.02792	0.00036
3201.09955	0.00060
3199.17117	0.00078
3197.24280	0.00079
3195.31443	0.00074
3193.38605	0.00062
3191.45768	0.00047
3189.52931	0.00050
3187.60093	0.00060
3185.67256	0.00061
3183.74419	0.00060
3181.81581	0.00048
3179.88744	0.00044
3177.95907	0.00055
3176.03070	0.00069
3174.10232	0.00093
3172.17395	0.00109
3170.24558	0.00099
3168.31720	0.00073
3166.38883	0.00047
3164.46046	0.00036
3162.53208	0.00055
3160.60371	0.00074
3158.67534	0.00074
3156.74696	0.00070
3154.81859	0.00064
3152.89022	0.00050
3150.96184	0.00035
3149.03347	0.00044
3147.10510	0.00053
3145.17672	0.00058
3143.24835	0.00063
3141.31998	0.00059
3139.39160	0.00053
3137.46323	0.00061
3135.53486	0.00069
3133.60648	0.00072
3131.67811	0.00086
3129.74974	0.00088
3127.82136	0.00076
3125.89299	0.00066
3123.96462	0.00055
3122.03624	0.00051
3120.10787	0.00065
3118.17950	0.00083
3116.25113	0.00080
3114.32275	0.00065
3112.39438	0.00059
3110.46601	0.00050
3108.53763	0.00040
3106.60926	0.00037
3104.68089	0.00052
3102.75251	0.00049
3100.82414	0.00057
3098.89577	0.00066
3096.96739	0.00067
3095.03902	0.00064
3093.11065	0.00053
3091.18227	0.00045
3089.25390	0.00052
3087.32553	0.00057
3085.39715	0.00059
3083.46878	0.00060
3081.54041	0.00062
3079.61203	0.00066
3077.68366	0.00069
3075.75529	0.00051
3073.82691	0.00037
3071.89854	0.00041
3069.97017	0.00043
3068.04179	0.00043
3066.11342	0.00035
3064.18505	0.00032
3062.25668	0.00040
3060.32830	0.00048
3058.39993	0.00047
3056.47156	0.00056
3054.54318	0.00062
3052.61481	0.00066
3050.68644	0.00072
3048.75806	0.00072
3046.82969	0.00058
3044.90132	0.00044
3042.97294	0.00041
3041.04457	0.00054
3039.11620	0.00052
3037.18782	0.00039
3035.25945	0.00025
3033.33108	0.00031
3031.40270	0.00015
3029.47433	0.00021
3027.54596	0.00041
3025.61758	0.00046
3023.68921	0.00048
3021.76084	0.00049
3019.83246	0.00033
3017.90409	0.00033
3015.97572	0.00044
3014.04734	0.00050
3012.11897	0.00061
3010.19060	0.00072
3008.26222	0.00063
3006.33385	0.00054
3004.40548	0.00063
3002.47711	0.00073
3000.54873	0.00065
2998.62036	0.00048
2996.69199	0.00047
2994.76361	0.00047
2992.83524	0.00033
2990.90687	0.00028
2988.97849	0.00047
2987.05012	0.00069
2985.12175	0.00075
2983.19337	0.00080
2981.26500	0.00095
2979.33663	0.00112
2977.40825	0.00109
2975.47988	0.00083
2973.55151	0.00070
2971.62313	0.00084
2969.69476	0.00082
2967.76639	0.00065
2965.83801	0.00085
2963.90964	0.00123
2961.98127	0.00145
2960.05289	0.00137
2958.12452	0.00119
2956.19615	0.00108
2954.26777	0.00092
2952.33940	0.00068
2950.41103	0.00042
2948.48266	0.00033
2946.55428	0.00031
2944.62591	0.00041
2942.69754	0.00047
2940.76916	0.00048
2938.84079	0.00060
2936.91242	0.00075
2934.98404	0.00081
2933.05567	0.00095
2931.12730	0.00105
2929.19892	0.00102
2927.27055	0.00098
2925.34218	0.00111
2923.41380	0.00119
2921.48543	0.00102
2919.55706	0.00082
2917.62868	0.00068
2915.70031	0.00053
2913.77194	0.00036
2911.84356	0.00035
2909.91519	0.00040
2907.98682	0.00039
2906.05844	0.00036
2904.13007	0.00047
2902.20170	0.00071
2900.27332	0.00079
2898.34495	0.00061
2896.41658	0.00056
2894.48820	0.00060
2892.55983	0.00064
2890.63146	0.00071
2888.70309	0.00074
2886.77471	0.00070
2884.84634	0.00054
2882.91797	0.00053
2880.98959	0.00059
2879.06122	0.00062
2877.13285	0.00059
2875.20447	0.00050
2873.27610	0.00054
2871.34773	0.00077
2869.41935	0.00090
2867.49098	0.00073
2865.56261	0.00060
2863.63423	0.00056
2861.70586	0.00037
2859.77749	0.00053
2857.84911	0.00062
2855.92074	0.00048
2853.99237	0.00037
2852.06399	0.00037
2850.13562	0.00037
2848.20725	0.00042
2846.27887	0.00042
2844.35050	0.00034
2842.42213	0.00040
2840.49375	0.00048
2838.56538	0.00049
2836.63701	0.00050
2834.70863	0.00051
2832.78026	0.00058
2830.85189	0.00075
2828.92352	0.00095
2826.99514	0.00115
2825.06677	0.00134
2823.13840	0.00142
2821.21002	0.00138
2819.28165	0.00146
2817.35328	0.00174
2815.42490	0.00200
2813.49653	0.00215
2811.56816	0.00237
2809.63978	0.00275
2807.71141	0.00317
2805.78304	0.00352
2803.85466	0.00384
2801.92629	0.00420
2799.99792	0.00461
2798.06954	0.00489
2796.14117	0.00498
2794.21280	0.00512
2792.28442	0.00550
2790.35605	0.00595
2788.42768	0.00628
2786.49930	0.00651
2784.57093	0.00677
2782.64256	0.00706
2780.71418	0.00735
2778.78581	0.00763
2776.85744	0.00785
2774.92907	0.00805
2773.00069	0.00828
2771.07232	0.00850
2769.14395	0.00877
2767.21557	0.00910
2765.28720	0.00933
2763.35883	0.00944
2761.43045	0.00962
2759.50208	0.00995
2757.57371	0.01036
2755.64533	0.01082
2753.71696	0.01128
2751.78859	0.01163
2749.86021	0.01194
2747.93184	0.01233
2746.00347	0.01270
2744.07509	0.01294
2742.14672	0.01311
2740.21835	0.01324
2738.28997	0.01332
2736.36160	0.01346
2734.43323	0.01364
2732.50485	0.01384
2730.57648	0.01409
2728.64811	0.01439
2726.71973	0.01479
2724.79136	0.01518
2722.86299	0.01545
2720.93461	0.01580
2719.00624	0.01636
2717.07787	0.01683
2715.14950	0.01716
2713.22112	0.01752
2711.29275	0.01790
2709.36438	0.01832
2707.43600	0.01892
2705.50763	0.01965
2703.57926	0.02029
2701.65088	0.02080
2699.72251	0.02131
2697.79414	0.02188
2695.86576	0.02247
2693.93739	0.02305
2692.00902	0.02355
2690.08064	0.02400
2688.15227	0.02460
2686.22390	0.02538
2684.29552	0.02610
2682.36715	0.02672
2680.43878	0.02740
2678.51040	0.02815
2676.58203	0.02892
2674.65366	0.02966
2672.72528	0.03038
2670.79691	0.03112
2668.86854	0.03195
2666.94016	0.03273
2665.01179	0.03325
2663.08342	0.03365
2661.15505	0.03418
2659.22667	0.03472
2657.29830	0.03516
2655.36993	0.03558
2653.44155	0.03595
2651.51318	0.03623
2649.58481	0.03648
2647.65643	0.03670
2645.72806	0.03696
2643.79969	0.03726
2641.87131	0.03755
2639.94294	0.03779
2638.01457	0.03803
2636.08619	0.03826
2634.15782	0.03848
2632.22945	0.03880
2630.30107	0.03925
2628.37270	0.03967
2626.44433	0.03999
2624.51595	0.04029
2622.58758	0.04065
2620.65921	0.04116
2618.73083	0.04182
2616.80246	0.04256
2614.87409	0.04333
2612.94571	0.04401
2611.01734	0.04454
2609.08897	0.04505
2607.16059	0.04567
2605.23222	0.04634
2603.30385	0.04699
2601.37548	0.04757
2599.44710	0.04802
2597.51873	0.04840
2595.59036	0.04875
2593.66198	0.04906
2591.73361	0.04933
2589.80524	0.04965
2587.87686	0.05006
2585.94849	0.05048
2584.02012	0.05089
2582.09174	0.05136
2580.16337	0.05189
2578.23500	0.05238
2576.30662	0.05293
2574.37825	0.05369
2572.44988	0.05465
2570.52150	0.05571
2568.59313	0.05682
2566.66476	0.05795
2564.73638	0.05915
2562.80801	0.06054
2560.87964	0.06206
2558.95126	0.06360
2557.02289	0.06514
2555.09452	0.06667
2553.16614	0.06810
2551.23777	0.06938
2549.30940	0.07052
2547.38103	0.07158
2545.45265	0.07264
2543.52428	0.07356
2541.59591	0.07425
2539.66753	0.07481
2537.73916	0.07535
2535.81079	0.07586
2533.88241	0.07630
2531.95404	0.07674
2530.02567	0.07728
2528.09729	0.07791
2526.16892	0.07854
2524.24055	0.07923
2522.31217	0.08007
2520.38380	0.08101
2518.45543	0.08200
2516.52705	0.08303
2514.59868	0.08412
2512.67031	0.08515
2510.74193	0.08609
2508.81356	0.08709
2506.88519	0.08816
2504.95681	0.08923
2503.02844	0.09031
2501.10007	0.09139
2499.17169	0.09245
2497.24332	0.09352
2495.31495	0.09469
2493.38657	0.09605
2491.45820	0.09753
2489.52983	0.09898
2487.60146	0.10031
2485.67308	0.10156
2483.74471	0.10281
2481.81634	0.10403
2479.88796	0.10522
2477.95959	0.10651
2476.03122	0.10792
2474.10284	0.10923
2472.17447	0.11041
2470.24610	0.11164
2468.31772	0.11301
2466.38935	0.11450
2464.46098	0.11605
2462.53260	0.11755
2460.60423	0.11895
2458.67586	0.12035
2456.74748	0.12183
2454.81911	0.12331
2452.89074	0.12475
2450.96236	0.12609
2449.03399	0.12727
2447.10562	0.12845
2445.17724	0.12977
2443.24887	0.13118
2441.32050	0.13252
2439.39212	0.13384
2437.46375	0.13517
2435.53538	0.13657
2433.60700	0.13807
2431.67863	0.13958
2429.75026	0.14089
2427.82189	0.14208
2425.89351	0.14327
2423.96514	0.14436
2422.03677	0.14526
2420.10839	0.14603
2418.18002	0.14677
2416.25165	0.14760
2414.32327	0.14854
2412.39490	0.14958
2410.46653	0.15081
2408.53815	0.15225
2406.60978	0.15373
2404.68141	0.15523
2402.75303	0.15683
2400.82466	0.15851
2398.89629	0.16028
2396.96791	0.16212
2395.03954	0.16389
2393.11117	0.16552
2391.18279	0.16711
2389.25442	0.16870
2387.32605	0.17012
2385.39767	0.17131
2383.46930	0.17233
2381.54093	0.17322
2379.61255	0.17400
2377.68418	0.17489
2375.75581	0.17596
2373.82744	0.17702
2371.89906	0.17812
2369.97069	0.17934
2368.04232	0.18050
2366.11394	0.18170
2364.18557	0.18328
2362.25720	0.18502
2360.32882	0.18672
2358.40045	0.18821
2356.47208	0.18887
2354.54370	0.18910
2352.61533	0.18962
2350.68696	0.18998
2348.75858	0.18994
2346.83021	0.18993
2344.90184	0.19041
2342.97346	0.19125
2341.04509	0.19183
2339.11672	0.19196
2337.18834	0.19205
2335.25997	0.19253
2333.33160	0.19303
2331.40322	0.19329
2329.47485	0.19359
2327.54648	0.19394
2325.61810	0.19408
2323.68973	0.19423
2321.76136	0.19484
2319.83298	0.19596
2317.90461	0.19732
2315.97624	0.19880
2314.04787	0.20055
2312.11949	0.20258
2310.19112	0.20474
2308.26275	0.20686
2306.33437	0.20890
2304.40600	0.21081
2302.47763	0.21255
2300.54925	0.21406
2298.62088	0.21533
2296.69251	0.21641
2294.76413	0.21741
2292.83576	0.21838
2290.90739	0.21922
2288.97901	0.21987
2287.05064	0.22040
2285.12227	0.22081
2283.19389	0.22105
2281.26552	0.22115
2279.33715	0.22116
2277.40877	0.22107
2275.48040	0.22086
2273.55203	0.22054
2271.62365	0.22021
2269.69528	0.21995
2267.76691	0.21972
2265.83853	0.21946
2263.91016	0.21928
2261.98179	0.21925
2260.05342	0.21940
2258.12504	0.21975
2256.19667	0.22025
2254.26830	0.22092
2252.33992	0.22175
2250.41155	0.22268
2248.48318	0.22371
2246.55480	0.22487
2244.62643	0.22609
2242.69806	0.22722
2240.76968	0.22804
2238.84131	0.22851
2236.91294	0.22876
2234.98456	0.22892
2233.05619	0.22907
2231.12782	0.22924
2229.19944	0.22933
2227.27107	0.22927
2225.34270	0.22920
2223.41432	0.22912
2221.48595	0.22893
2219.55758	0.22855
2217.62920	0.22799
2215.70083	0.22737
2213.77246	0.22672
2211.84408	0.22598
2209.91571	0.22521
2207.98734	0.22457
2206.05896	0.22401
2204.13059	0.22332
2202.20222	0.22245
2200.27385	0.22149
2198.34547	0.22050
2196.41710	0.21956
2194.48873	0.21866
2192.56035	0.21775
2190.63198	0.21684
2188.70361	0.21599
2186.77523	0.21519
2184.84686	0.21443
2182.91849	0.21377
2180.99011	0.21326
2179.06174	0.21277
2177.13337	0.21217
2175.20499	0.21146
2173.27662	0.21072
2171.34825	0.21007
2169.41987	0.20949
2167.49150	0.20890
2165.56313	0.20830
2163.63475	0.20777
2161.70638	0.20733
2159.77801	0.20700
2157.84963	0.20683
2155.92126	0.20677
2153.99289	0.20674
2152.06451	0.20673
2150.13614	0.20675
2148.20777	0.20687
2146.27940	0.20710
2144.35102	0.20731
2142.42265	0.20746
2140.49428	0.20757
2138.56590	0.20768
2136.63753	0.20780
2134.70916	0.20789
2132.78078	0.20794
2130.85241	0.20801
2128.92404	0.20823
2126.99566	0.20872
2125.06729	0.20948
2123.13892	0.21039
2121.21054	0.21131
2119.28217	0.21231
2117.35380	0.21348
2115.42542	0.21464
2113.49705	0.21574
2111.56868	0.21686
2109.64030	0.21793
2107.71193	0.21877
2105.78356	0.21940
2103.85518	0.21993
2101.92681	0.22039
2099.99844	0.22080
2098.07006	0.22118
2096.14169	0.22146
2094.21332	0.22160
2092.28494	0.22165
2090.35657	0.22163
2088.42820	0.22150
2086.49983	0.22129
2084.57145	0.22106
2082.64308	0.22082
2080.71471	0.22051
2078.78633	0.22016
2076.85796	0.21988
2074.92959	0.21965
2073.00121	0.21956
2071.07284	0.21970
2069.14447	0.22000
2067.21609	0.22036
2065.28772	0.22091
2063.35935	0.22175
2061.43097	0.22283
2059.50260	0.22412
2057.57423	0.22565
2055.64585	0.22738
2053.71748	0.22916
2051.78911	0.23089
2049.86073	0.23264
2047.93236	0.23448
2046.00399	0.23622
2044.07561	0.23774
2042.14724	0.23914
2040.21887	0.24047
2038.29049	0.24159
2036.36212	0.24250
2034.43375	0.24332
2032.50538	0.24399
2030.57700	0.24447
2028.64863	0.24490
2026.72026	0.24530
2024.79188	0.24568
2022.86351	0.24602
2020.93514	0.24636
2019.00676	0.24679
2017.07839	0.24744
2015.15002	0.24829
2013.22164	0.24928
2011.29327	0.25032
2009.36490	0.25138
2007.43652	0.25254
2005.50815	0.25379
2003.57978	0.25500
2001.65140	0.25620
1999.72303	0.25737
1997.79466	0.25832
1995.86628	0.25898
1993.93791	0.25948
1992.00954	0.25990
1990.08116	0.26018
1988.15279	0.26033
1986.22442	0.26050
1984.29604	0.26065
1982.36767	0.26066
1980.43930	0.26061
1978.51092	0.26064
1976.58255	0.26082
1974.65418	0.26106
1972.72581	0.26123
1970.79743	0.26137
1968.86906	0.26166
1966.94069	0.26210
1965.01231	0.26253
1963.08394	0.26288
1961.15557	0.26337
1959.22719	0.26413
1957.29882	0.26501
1955.37045	0.26596
1953.44207	0.26712
1951.51370	0.26854
1949.58533	0.27001
1947.65695	0.27139
1945.72858	0.27272
1943.80021	0.27405
1941.87183	0.27528
1939.94346	0.27631
1938.01509	0.27718
1936.08671	0.27795
1934.15834	0.27852
1932.22997	0.27894
1930.30159	0.27934
1928.37322	0.27972
1926.44485	0.27997
1924.51647	0.28015
1922.58810	0.28030
1920.65973	0.28035
1918.73135	0.28045
1916.80298	0.28072
1914.87461	0.28086
1912.94624	0.28080
1911.01786	0.28073
1909.08949	0.28060
1907.16112	0.28023
1905.23274	0.27957
1903.30437	0.27880
1901.37600	0.27799
1899.44762	0.27708
1897.51925	0.27608
1895.59088	0.27517
1893.66250	0.27432
1891.73413	0.27341
1889.80576	0.27268
1887.87738	0.27216
1885.94901	0.27170
1884.02064	0.27138
1882.09226	0.27119
1880.16389	0.27113
1878.23552	0.27113
1876.30714	0.27113
1874.37877	0.27106
1872.45040	0.27085
1870.52202	0.27061
1868.59365	0.27046
1866.66528	0.27013
1864.73690	0.26937
1862.80853	0.26844
1860.88016	0.26750
1858.95179	0.26650
1857.02341	0.26544
1855.09504	0.26430
1853.16667	0.26309
1851.23829	0.26176
1849.30992	0.26026
1847.38155	0.25863
1845.45317	0.25705
1843.52480	0.25561
1841.59643	0.25413
1839.66805	0.25255
1837.73968	0.25097
1835.81131	0.24935
1833.88293	0.24762
1831.95456	0.24586
1830.02619	0.24406
1828.09781	0.24206
1826.16944	0.23988
1824.24107	0.23752
1822.31269	0.23501
1820.38432	0.23230
1818.45595	0.22933
1816.52757	0.22619
1814.59920	0.22290
1812.67083	0.21944
1810.74245	0.21581
1808.81408	0.21202
1806.88571	0.20806
1804.95733	0.20392
1803.02896	0.19960
1801.10059	0.19492
1799.17222	0.18983
1797.24384	0.18456
1795.31547	0.17928
1793.38710	0.17344
1791.45872	0.16673
1789.53035	0.16028
1787.60198	0.15439
1785.67360	0.14840
1783.74523	0.14227
1781.81686	0.13634
1779.88848	0.13051
1777.96011	0.12489
1776.03174	0.11970
1774.10336	0.11451
1772.17499	0.10874
1770.24662	0.10299
1768.31824	0.09776
1766.38987	0.09256
1764.46150	0.08740
1762.53312	0.08180
1760.60475	0.07554
1758.67638	0.06917
1756.74800	0.06228
1754.81963	0.05522
1752.89126	0.04831
1750.96288	0.04044
1749.03451	0.03182
1747.10614	0.02405
1745.17777	0.01741
1743.24939	0.01173
1741.32102	0.00719
1739.39265	0.00396
1737.46427	0.00215
1735.53590	0.00113
1733.60753	0.00040
1731.67915	0.00043
1729.75078	0.00040
1727.82241	0.00035
1725.89403	0.00037
1723.96566	0.00053
1722.03729	0.00071
1720.10891	0.00084
1718.18054	0.00087
1716.25217	0.00071
1714.32379	0.00053
1712.39542	0.00042
1710.46705	0.00032
1708.53867	0.00029
1706.61030	0.00036
1704.68193	0.00044
1702.75355	0.00054
1700.82518	0.00067
1698.89681	0.00070
1696.96843	0.00054
1695.04006	0.00053
1693.11169	0.00058
1691.18331	0.00055
1689.25494	0.00052
1687.32657	0.00058
1685.39820	0.00070
1683.46982	0.00072
1681.54145	0.00057
1679.61308	0.00053
1677.68470	0.00062
1675.75633	0.00060
1673.82796	0.00051
1671.89958	0.00060
1669.97121	0.00063
1668.04284	0.00056
1666.11446	0.00049
1664.18609	0.00051
1662.25772	0.00060
1660.32934	0.00066
1658.40097	0.00069
1656.47260	0.00074
1654.54422	0.00090
1652.61585	0.00094
1650.68748	0.00081
1648.75910	0.00073
1646.83073	0.00064
1644.90236	0.00052
1642.97398	0.00048
1641.04561	0.00057
1639.11724	0.00070
1637.18886	0.00079
1635.26049	0.00078
1633.33212	0.00064
1631.40375	0.00055
1629.47537	0.00060
1627.54700	0.00069
1625.61863	0.00070
1623.69025	0.00061
1621.76188	0.00049
1619.83351	0.00049
1617.90513	0.00048
1615.97676	0.00041
1614.04839	0.00033
1612.12001	0.00036
1610.19164	0.00048
1608.26327	0.00055
1606.33489	0.00057
1604.40652	0.00053
1602.47815	0.00044
1600.54977	0.00037
1598.62140	0.00032
1596.69303	0.00032
1594.76465	0.00045
1592.83628	0.00055
1590.90791	0.00056
1588.97953	0.00049
1587.05116	0.00039
1585.12279	0.00042
1583.19441	0.00055
1581.26604	0.00066
1579.33767	0.00068
1577.40929	0.00063
1575.48092	0.00053
1573.55255	0.00045
1571.62418	0.00044
1569.69580	0.00051
1567.76743	0.00051
1565.83906	0.00046
1563.91068	0.00046
1561.98231	0.00050
1560.05394	0.00066
1558.12556	0.00080
1556.19719	0.00072
1554.26882	0.00067
1552.34044	0.00061
1550.41207	0.00049
1548.48370	0.00044
1546.55532	0.00045
1544.62695	0.00043
1542.69858	0.00040
1540.77020	0.00052
1538.84183	0.00061
1536.91346	0.00059
1534.98508	0.00058
1533.05671	0.00064
1531.12834	0.00073
1529.19996	0.00069
1527.27159	0.00058
1525.34322	0.00058
1523.41484	0.00066
1521.48647	0.00079
1519.55810	0.00091
1517.62972	0.00091
1515.70135	0.00082
1513.77298	0.00074
1511.84461	0.00072
1509.91623	0.00070
1507.98786	0.00069
1506.05949	0.00066
1504.13111	0.00064
1502.20274	0.00060
1500.27437	0.00059
1498.34599	0.00055
1496.41762	0.00050
1494.48925	0.00054
1492.56087	0.00058
1490.63250	0.00059
1488.70413	0.00055
1486.77575	0.00049
1484.84738	0.00040
1482.91901	0.00033
1480.99063	0.00037
1479.06226	0.00044
1477.13389	0.00057
1475.20551	0.00076
1473.27714	0.00089
1471.34877	0.00077
1469.42039	0.00053
1467.49202	0.00037
1465.56365	0.00043
1463.63527	0.00055
1461.70690	0.00054
1459.77853	0.00044
1457.85016	0.00043
1455.92178	0.00054
1453.99341	0.00062
1452.06504	0.00073
1450.13666	0.00087
1448.20829	0.00085
1446.27992	0.00068
1444.35154	0.00052
1442.42317	0.00050
1440.49480	0.00067
1438.56642	0.00085
1436.63805	0.00092
1434.70968	0.00095
1432.78130	0.00096
1430.85293	0.00095
1428.92456	0.00083
1426.99618	0.00065
1425.06781	0.00055
1423.13944	0.00055
1421.21106	0.00067
1419.28269	0.00086
1417.35432	0.00082
1415.42594	0.00070
1413.49757	0.00072
1411.56920	0.00078
1409.64082	0.00086
1407.71245	0.00089
1405.78408	0.00077
1403.85570	0.00060
1401.92733	0.00053
1399.99896	0.00068
1398.07059	0.00095
1396.14221	0.00107
1394.21384	0.00100
1392.28547	0.00083
1390.35709	0.00068
1388.42872	0.00073
1386.50035	0.00091
1384.57197	0.00091
1382.64360	0.00073
1380.71523	0.00063
1378.78685	0.00084
1376.85848	0.00108
1374.93011	0.00106
1373.00173	0.00095
1371.07336	0.00091
1369.14499	0.00088
1367.21661	0.00085
1365.28824	0.00080
1363.35987	0.00073
1361.43149	0.00067
1359.50312	0.00068
1357.57475	0.00081
1355.64637	0.00088
1353.71800	0.00083
1351.78963	0.00081
1349.86125	0.00081
1347.93288	0.00079
1346.00451	0.00077
1344.07614	0.00073
1342.14776	0.00077
1340.21939	0.00088
1338.29102	0.00090
1336.36264	0.00080
1334.43427	0.00071
1332.50590	0.00067
1330.57752	0.00065
1328.64915	0.00065
1326.72078	0.00069
1324.79240	0.00073
1322.86403	0.00076
1320.93566	0.00080
1319.00728	0.00086
1317.07891	0.00088
1315.15054	0.00091
1313.22216	0.00094
1311.29379	0.00089
1309.36542	0.00075
1307.43704	0.00064
1305.50867	0.00061
1303.58030	0.00063
1301.65192	0.00070
1299.72355	0.00081
1297.79518	0.00084
1295.86680	0.00087
1293.93843	0.00095
1292.01006	0.00103
1290.08168	0.00100
1288.15331	0.00097
1286.22494	0.00096
1284.29657	0.00091
1282.36819	0.00084
1280.43982	0.00082
1278.51145	0.00090
1276.58307	0.00104
1274.65470	0.00118
1272.72633	0.00129
1270.79795	0.00129
1268.86958	0.00128
1266.94121	0.00128
1265.01283	0.00116
1263.08446	0.00103
1261.15609	0.00098
1259.22771	0.00100
1257.29934	0.00119
1255.37097	0.00146
1253.44259	0.00160
1251.51422	0.00160
1249.58585	0.00145
1247.65747	0.00134
1245.72910	0.00128
1243.80073	0.00137
1241.87235	0.00136
1239.94398	0.00114
1238.01561	0.00103
1236.08723	0.00111
1234.15886	0.00118
1232.23049	0.00125
1230.30212	0.00139
1228.37374	0.00161
1226.44537	0.00189
1224.51700	0.00204
1222.58862	0.00187
1220.66025	0.00163
1218.73188	0.00145
1216.80350	0.00132
1214.87513	0.00126
1212.94676	0.00128
1211.01838	0.00124
1209.09001	0.00133
1207.16164	0.00148
1205.23326	0.00158
1203.30489	0.00159
1201.37652	0.00157
1199.44814	0.00155
1197.51977	0.00160
1195.59140	0.00173
1193.66302	0.00176
1191.73465	0.00171
1189.80628	0.00162
1187.87790	0.00147
1185.94953	0.00129
1184.02116	0.00118
1182.09278	0.00123
1180.16441	0.00155
1178.23604	0.00198
1176.30766	0.00209
1174.37929	0.00183
1172.45092	0.00158
1170.52255	0.00149
1168.59417	0.00140
1166.66580	0.00133
1164.73743	0.00134
1162.80905	0.00163
1160.88068	0.00189
1158.95231	0.00175
1157.02393	0.00148
1155.09556	0.00159
1153.16719	0.00189
1151.23881	0.00199
1149.31044	0.00194
1147.38207	0.00189
1145.45369	0.00167
1143.52532	0.00131
1141.59695	0.00113
1139.66857	0.00106
1137.74020	0.00120
1135.81183	0.00159
1133.88345	0.00193
1131.95508	0.00196
1130.02671	0.00180
1128.09833	0.00173
1126.16996	0.00167
1124.24159	0.00146
1122.31321	0.00135
1120.38484	0.00152
1118.45647	0.00164
1116.52809	0.00158
1114.59972	0.00168
1112.67135	0.00191
1110.74298	0.00209
1108.81460	0.00213
1106.88623	0.00202
1104.95786	0.00200
1103.02948	0.00204
1101.10111	0.00192
1099.17274	0.00186
1097.24436	0.00190
1095.31599	0.00185
1093.38762	0.00183
1091.45924	0.00186
1089.53087	0.00186
1087.60250	0.00185
1085.67412	0.00183
1083.74575	0.00170
1081.81738	0.00159
1079.88900	0.00172
1077.96063	0.00194
1076.03226	0.00227
1074.10388	0.00258
1072.17551	0.00269
1070.24714	0.00252
1068.31876	0.00224
1066.39039	0.00219
1064.46202	0.00224
1062.53364	0.00206
1060.60527	0.00189
1058.67690	0.00198
1056.74853	0.00196
1054.82015	0.00170
1052.89178	0.00151
1050.96341	0.00164
1049.03503	0.00196
1047.10666	0.00223
1045.17829	0.00220
1043.24991	0.00192
1041.32154	0.00176
1039.39317	0.00179
1037.46479	0.00183
1035.53642	0.00197
1033.60805	0.00209
1031.67967	0.00192
1029.75130	0.00161
1027.82293	0.00146
1025.89455	0.00151
1023.96618	0.00165
1022.03781	0.00172
1020.10943	0.00156
1018.18106	0.00152
1016.25269	0.00177
1014.32431	0.00198
1012.39594	0.00200
1010.46757	0.00191
1008.53919	0.00180
1006.61082	0.00156
1004.68245	0.00126
1002.75407	0.00120
1000.82570	0.00138
998.89733	0.00143
996.96896	0.00133
995.04058	0.00132
993.11221	0.00136
991.18384	0.00134
989.25546	0.00129
987.32709	0.00124
985.39872	0.00130
983.47034	0.00147
981.54197	0.00158
979.61360	0.00159
977.68522	0.00164
975.75685	0.00168
973.82848	0.00147
971.90010	0.00113
969.97173	0.00104
968.04336	0.00128
966.11498	0.00173
964.18661	0.00216
962.25824	0.00219
960.32986	0.00195
958.40149	0.00186
956.47312	0.00165
954.54474	0.00127
952.61637	0.00120
950.68800	0.00147
948.75962	0.00172
946.83125	0.00186
944.90288	0.00194
942.97451	0.00199
941.04613	0.00212
939.11776	0.00238
937.18939	0.00259
935.26101	0.00293
933.33264	0.00360
931.40427	0.00437
929.47589	0.00498
927.54752	0.00524
925.61915	0.00515
923.69077	0.00483
921.76240	0.00465
919.83403	0.00492
917.90565	0.00544
915.97728	0.00605
914.04891	0.00652
912.12053	0.00656
910.19216	0.00611
908.26379	0.00527
906.33541	0.00435
904.40704	0.00363
902.47867	0.00304
900.55029	0.00270
898.62192	0.00290
896.69355	0.00321
894.76517	0.00322
892.83680	0.00316
890.90843	0.00340
888.98005	0.00383
887.05168	0.00410
885.12331	0.00420
883.19494	0.00438
881.26656	0.00498
879.33819	0.00617
877.40982	0.00751
875.48144	0.00841
873.55307	0.00869
871.62470	0.00861
869.69632	0.00850
867.76795	0.00839
865.83958	0.00822
863.91120	0.00802
861.98283	0.00776
860.05446	0.00732
858.12608	0.00670
856.19771	0.00613
854.26934	0.00584
852.34096	0.00583
850.41259	0.00611
848.48422	0.00655
846.55584	0.00675
844.62747	0.00660
842.69910	0.00650
840.77072	0.00653
838.84235	0.00637
836.91398	0.00626
834.98560	0.00646
833.05723	0.00665
831.12886	0.00640
829.20049	0.00570
827.27211	0.00515
825.34374	0.00511
823.41537	0.00494
821.48699	0.00424
819.55862	0.00374
817.63025	0.00381
815.70187	0.00405
813.77350	0.00406
811.84513	0.00387
809.91675	0.00380
807.98838	0.00389
806.06001	0.00389
804.13163	0.00354
802.20326	0.00313
800.27489	0.00302
798.34651	0.00300
796.41814	0.00283
794.48977	0.00270
792.56139	0.00261
790.63302	0.00258
788.70465	0.00272
786.77627	0.00289
784.84790	0.00288
782.91953	0.00289
780.99115	0.00309
779.06278	0.00311
777.13441	0.00303
775.20603	0.00311
773.27766	0.00312
771.34929	0.00296
769.42092	0.00279
767.49254	0.00266
765.56417	0.00288
763.63580	0.00337
761.70742	0.00339
759.77905	0.00275
757.85068	0.00227
755.92230	0.00249
753.99393	0.00314
752.06556	0.00363
750.13718	0.00361
748.20881	0.00309
746.28044	0.00268
744.35206	0.00265
742.42369	0.00261
740.49532	0.00246
738.56694	0.00253
736.63857	0.00282
734.71020	0.00302
732.78182	0.00300
730.85345	0.00299
728.92508	0.00313
726.99670	0.00319
725.06833	0.00299
723.13996	0.00280
721.21158	0.00300
719.28321	0.00352
717.35484	0.00363
715.42647	0.00345
713.49809	0.00331
711.56972	0.00296
709.64135	0.00239
707.71297	0.00243
705.78460	0.00289
703.85623	0.00331
701.92785	0.00397
699.99948	0.00454
698.07111	0.00447
696.14273	0.00405
694.21436	0.00414
692.28599	0.00452
690.35761	0.00445
688.42924	0.00424
686.50087	0.00408
684.57249	0.00386
682.64412	0.00362
680.71575	0.00315
678.78737	0.00306
676.85900	0.00367
674.93063	0.00446
673.00225	0.00537
671.07388	0.00679
669.14551	0.00851
667.21713	0.00816
665.28876	0.00654
663.36039	0.00632
661.43201	0.00668
659.50364	0.00623
657.57527	0.00543
655.64690	0.00489
653.71852	0.00475
651.79015	0.00523
649.86178	0.00581
647.93340	0.00672
646.00503	0.00797
644.07666	0.00814
642.14828	0.00731
640.21991	0.00644
638.29154	0.00611
636.36316	0.00614
634.43479	0.00607
632.50642	0.00595
630.57804	0.00591
628.64967	0.00624
626.72130	0.00644
624.79292	0.00627
622.86455	0.00708
620.93618	0.00950
619.00780	0.01086
617.07943	0.01100
615.15106	0.01153
613.22268	0.01134
611.29431	0.01024
609.36594	0.01037
607.43756	0.01137
605.50919	0.01281
603.58082	0.01470
601.65244	0.01656
599.72407	0.01655
