3997.51769	0.59828
3995.58931	0.59928
3993.66094	0.60072
3991.73257	0.60237
3989.80419	0.60428
3987.87582	0.60645
3985.94745	0.60872
3984.01907	0.61115
3982.09070	0.61368
3980.16233	0.61585
3978.23396	0.61748
3976.30558	0.61888
3974.37721	0.62002
3972.44884	0.62087
3970.52046	0.62191
3968.59209	0.62337
3966.66372	0.62489
3964.73534	0.62644
3962.80697	0.62805
3960.87860	0.62935
3958.95022	0.63061
3957.02185	0.63253
3955.09348	0.63474
3953.16510	0.63655
3951.23673	0.63804
3949.30836	0.63928
3947.37998	0.64006
3945.45161	0.64089
3943.52324	0.64216
3941.59486	0.64330
3939.66649	0.64391
3937.73812	0.64445
3935.80974	0.64545
3933.88137	0.64725
3931.95300	0.64937
3930.02462	0.65049
3928.09625	0.65082
3926.16788	0.65171
3924.23950	0.65304
3922.31113	0.65417
3920.38276	0.65563
3918.45439	0.65749
3916.52601	0.65856
3914.59764	0.65865
3912.66927	0.65907
3910.74089	0.66038
3908.81252	0.66249
3906.88415	0.66583
3904.95577	0.67022
3903.02740	0.67376
3901.09903	0.67503
3899.17065	0.67441
3897.24228	0.67299
3895.31391	0.67272
3893.38553	0.67486
3891.45716	0.67775
3889.52879	0.67892
3887.60041	0.68031
3885.67204	0.68300
3883.74367	0.68445
3881.81529	0.68530
3879.88692	0.68633
3877.95855	0.68634
3876.03017	0.68723
3874.10180	0.68987
3872.17343	0.69291
3870.24505	0.69554
3868.31668	0.69629
3866.38831	0.69629
3864.45994	0.69741
3862.53156	0.69803
3860.60319	0.69761
3858.67482	0.69814
3856.74644	0.70197
3854.81807	0.71036
3852.88970	0.71514
3850.96132	0.70859
3849.03295	0.70196
3847.10458	0.69998
3845.17620	0.70131
3843.24783	0.70397
3841.31946	0.70690
3839.39108	0.71016
3837.46271	0.71177
3835.53434	0.70995
3833.60596	0.70756
3831.67759	0.70620
3829.74922	0.70528
3827.82084	0.70483
3825.89247	0.70516
3823.96410	0.70717
3822.03572	0.71095
3820.10735	0.71260
3818.17898	0.71154
3816.25060	0.71079
3814.32223	0.70863
3812.39386	0.70575
3810.46548	0.70522
3808.53711	0.70719
3806.60874	0.70902
3804.68037	0.70959
3802.75199	0.71129
3800.82362	0.71215
3798.89525	0.70958
3796.96687	0.70710
3795.03850	0.70534
3793.11013	0.70354
3791.18175	0.70237
3789.25338	0.70186
3787.32501	0.70187
3785.39663	0.70201
3783.46826	0.70183
3781.53989	0.70188
3779.61151	0.70200
3777.68314	0.70076
3775.75477	0.69879
3773.82639	0.69801
3771.89802	0.69889
3769.96965	0.70007
3768.04127	0.69965
3766.11290	0.69815
3764.18453	0.69660
3762.25615	0.69555
3760.32778	0.69565
3758.39941	0.69555
3756.47103	0.69445
3754.54266	0.69474
3752.61429	0.69816
3750.68591	0.70110
3748.75754	0.69899
3746.82917	0.69714
3744.90080	0.69709
3742.97242	0.69262
3741.04405	0.68604
3739.11568	0.68349
3737.18730	0.68476
3735.25893	0.68587
3733.33056	0.68303
3731.40218	0.67722
3729.47381	0.67225
3727.54544	0.66952
3725.61706	0.66791
3723.68869	0.66579
3721.76032	0.66247
3719.83194	0.65822
3717.90357	0.65400
3715.97520	0.65100
3714.04682	0.64955
3712.11845	0.64822
3710.19008	0.64379
3708.26170	0.63664
3706.33333	0.62980
3704.40496	0.62420
3702.47658	0.61877
3700.54821	0.61161
3698.61984	0.60341
3696.69146	0.59529
3694.76309	0.58726
3692.83472	0.57967
3690.90635	0.57152
3688.97797	0.55952
3687.04960	0.54323
3685.12123	0.52724
3683.19285	0.51242
3681.26448	0.49731
3679.33611	0.48262
3677.40773	0.46858
3675.47936	0.45008
3673.55099	0.42834
3671.62261	0.41048
3669.69424	0.39091
3667.76587	0.36812
3665.83749	0.34781
3663.90912	0.32923
3661.98075	0.31105
3660.05237	0.29376
3658.12400	0.27740
3656.19563	0.26013
3654.26725	0.24337
3652.33888	0.22960
3650.41051	0.21540
3648.48213	0.19810
3646.55376	0.18176
3644.62539	0.16868
3642.69701	0.15695
3640.76864	0.14546
3638.84027	0.13449
3636.91189	0.12436
3634.98352	0.11498
3633.05515	0.10651
3631.12678	0.09934
3629.19840	0.09167
3627.27003	0.08264
3625.34166	0.07497
3623.41328	0.06887
3621.48491	0.06360
3619.55654	0.05847
3617.62816	0.05326
3615.69979	0.04863
3613.77142	0.04450
3611.84304	0.04049
3609.91467	0.03664
3607.98630	0.03306
3606.05792	0.02980
3604.12955	0.02705
3602.20118	0.02469
3600.27280	0.02251
3598.34443	0.02026
3596.41606	0.01795
3594.48768	0.01600
3592.55931	0.01453
3590.63094	0.01328
3588.70256	0.01202
3586.77419	0.01072
3584.84582	0.00947
3582.91744	0.00839
3580.98907	0.00752
3579.06070	0.00678
3577.13233	0.00610
3575.20395	0.00553
3573.27558	0.00512
3571.34721	0.00472
3569.41883	0.00423
3567.49046	0.00366
3565.56209	0.00311
3563.63371	0.00277
3561.70534	0.00258
3559.77697	0.00232
3557.84859	0.00207
3555.92022	0.00194
3553.99185	0.00181
3552.06347	0.00162
3550.13510	0.00148
3548.20673	0.00149
3546.27835	0.00177
3544.34998	0.00200
3542.42161	0.00168
3540.49323	0.00118
3538.56486	0.00077
3536.63649	0.00065
3534.70811	0.00090
3532.77974	0.00100
3530.85137	0.00090
3528.92299	0.00076
3526.99462	0.00064
3525.06625	0.00055
3523.13787	0.00053
3521.20950	0.00053
3519.28113	0.00043
3517.35276	0.00060
3515.42438	0.00094
3513.49601	0.00113
3511.56764	0.00106
3509.63926	0.00092
3507.71089	0.00089
3505.78252	0.00083
3503.85414	0.00061
3501.92577	0.00059
3499.99740	0.00067
3498.06902	0.00058
3496.14065	0.00049
3494.21228	0.00044
3492.28390	0.00038
3490.35553	0.00056
3488.42716	0.00052
3486.49878	0.00030
3484.57041	0.00040
3482.64204	0.00058
3480.71366	0.00076
3478.78529	0.00088
3476.85692	0.00085
3474.92854	0.00071
3473.00017	0.00058
3471.07180	0.00053
3469.14342	0.00054
3467.21505	0.00049
3465.28668	0.00046
3463.35831	0.00043
3461.42993	0.00055
3459.50156	0.00062
3457.57319	0.00048
3455.64481	0.00037
3453.71644	0.00055
3451.78807	0.00084
3449.85969	0.00093
3447.93132	0.00085
3446.00295	0.00078
3444.07457	0.00085
3442.14620	0.00080
3440.21783	0.00064
3438.28945	0.00061
3436.36108	0.00064
3434.43271	0.00071
3432.50433	0.00072
3430.57596	0.00060
3428.64759	0.00069
3426.71921	0.00092
3424.79084	0.00106
3422.86247	0.00104
3420.93409	0.00079
3419.00572	0.00054
3417.07735	0.00054
3415.14897	0.00051
3413.22060	0.00053
3411.29223	0.00077
3409.36385	0.00081
3407.43548	0.00067
3405.50711	0.00066
3403.57874	0.00079
3401.65036	0.00081
3399.72199	0.00064
3397.79362	0.00054
3395.86524	0.00068
3393.93687	0.00090
3392.00850	0.00099
3390.08012	0.00092
3388.15175	0.00074
3386.22338	0.00062
3384.29500	0.00065
3382.36663	0.00064
3380.43826	0.00063
3378.50988	0.00057
3376.58151	0.00062
3374.65314	0.00070
3372.72476	0.00067
3370.79639	0.00065
3368.86802	0.00065
3366.93964	0.00075
3365.01127	0.00084
3363.08290	0.00092
3361.15452	0.00098
3359.22615	0.00095
3357.29778	0.00069
3355.36940	0.00052
3353.44103	0.00066
3351.51266	0.00072
3349.58428	0.00061
3347.65591	0.00055
3345.72754	0.00055
3343.79917	0.00050
3341.87079	0.00030
3339.94242	0.00026
3338.01405	0.00051
3336.08567	0.00063
3334.15730	0.00059
3332.22893	0.00060
3330.30055	0.00082
3328.37218	0.00105
3326.44381	0.00104
3324.51543	0.00091
3322.58706	0.00086
3320.65869	0.00077
3318.73031	0.00076
3316.80194	0.00083
3314.87357	0.00085
3312.94519	0.00100
3311.01682	0.00102
3309.08845	0.00087
3307.16007	0.00067
3305.23170	0.00063
3303.30333	0.00077
3301.37495	0.00083
3299.44658	0.00073
3297.51821	0.00052
3295.58983	0.00061
3293.66146	0.00086
3291.73309	0.00084
3289.80472	0.00062
3287.87634	0.00056
3285.94797	0.00074
3284.01960	0.00099
3282.09122	0.00105
3280.16285	0.00093
3278.23448	0.00085
3276.30610	0.00091
3274.37773	0.00091
3272.44936	0.00076
3270.52098	0.00071
3268.59261	0.00076
3266.66424	0.00071
3264.73586	0.00062
3262.80749	0.00057
3260.87912	0.00055
3258.95074	0.00062
3257.02237	0.00070
3255.09400	0.00066
3253.16562	0.00069
3251.23725	0.00084
3249.30888	0.00091
3247.38050	0.00098
3245.45213	0.00109
3243.52376	0.00105
3241.59538	0.00091
3239.66701	0.00082
3237.73864	0.00083
3235.81026	0.00094
3233.88189	0.00104
3231.95352	0.00089
3230.02515	0.00069
3228.09677	0.00075
3226.16840	0.00083
3224.24003	0.00086
3222.31165	0.00079
3220.38328	0.00067
3218.45491	0.00059
3216.52653	0.00058
3214.59816	0.00067
3212.66979	0.00069
3210.74141	0.00070
3208.81304	0.00087
3206.88467	0.00094
3204.95629	0.00077
3203.02792	0.00067
3201.09955	0.00074
3199.17117	0.00095
3197.24280	0.00112
3195.31443	0.00107
3193.38605	0.00093
3191.45768	0.00094
3189.52931	0.00105
3187.60093	0.00097
3185.67256	0.00071
3183.74419	0.00051
3181.81581	0.00051
3179.88744	0.00066
3177.95907	0.00078
3176.03070	0.00074
3174.10232	0.00074
3172.17395	0.00086
3170.24558	0.00084
3168.31720	0.00071
3166.38883	0.00069
3164.46046	0.00067
3162.53208	0.00058
3160.60371	0.00058
3158.67534	0.00051
3156.74696	0.00051
3154.81859	0.00078
3152.89022	0.00101
3150.96184	0.00112
3149.03347	0.00118
3147.10510	0.00124
3145.17672	0.00132
3143.24835	0.00137
3141.31998	0.00127
3139.39160	0.00099
3137.46323	0.00064
3135.53486	0.00054
3133.60648	0.00075
3131.67811	0.00083
3129.74974	0.00073
3127.82136	0.00072
3125.89299	0.00094
3123.96462	0.00113
3122.03624	0.00104
3120.10787	0.00087
3118.17950	0.00082
3116.25113	0.00083
3114.32275	0.00088
3112.39438	0.00091
3110.46601	0.00089
3108.53763	0.00087
3106.60926	0.00087
3104.68089	0.00083
3102.75251	0.00074
3100.82414	0.00055
3098.89577	0.00072
3096.96739	0.00087
3095.03902	0.00078
3093.11065	0.00062
3091.18227	0.00047
3089.25390	0.00050
3087.32553	0.00079
3085.39715	0.00106
3083.46878	0.00121
3081.54041	0.00122
3079.61203	0.00115
3077.68366	0.00106
3075.75529	0.00105
3073.82691	0.00098
3071.89854	0.00083
3069.97017	0.00084
3068.04179	0.00097
3066.11342	0.00094
3064.18505	0.00075
3062.25668	0.00067
3060.32830	0.00083
3058.39993	0.00108
3056.47156	0.00125
3054.54318	0.00125
3052.61481	0.00119
3050.68644	0.00124
3048.75806	0.00145
3046.82969	0.00167
3044.90132	0.00167
3042.97294	0.00154
3041.04457	0.00147
3039.11620	0.00154
3037.18782	0.00175
3035.25945	0.00198
3033.33108	0.00208
3031.40270	0.00206
3029.47433	0.00204
3027.54596	0.00203
3025.61758	0.00210
3023.68921	0.00218
3021.76084	0.00215
3019.83246	0.00215
3017.90409	0.00224
3015.97572	0.00213
3014.04734	0.00195
3012.11897	0.00208
3010.19060	0.00241
3008.26222	0.00266
3006.33385	0.00273
3004.40548	0.00261
3002.47711	0.00231
3000.54873	0.00204
2998.62036	0.00200
2996.69199	0.00207
2994.76361	0.00198
2992.83524	0.00172
2990.90687	0.00156
2988.97849	0.00159
2987.05012	0.00168
2985.12175	0.00168
2983.19337	0.00160
2981.26500	0.00148
2979.33663	0.00130
2977.40825	0.00118
2975.47988	0.00116
2973.55151	0.00114
2971.62313	0.00113
2969.69476	0.00118
2967.76639	0.00106
2965.83801	0.00084
2963.90964	0.00088
2961.98127	0.00125
2960.05289	0.00145
2958.12452	0.00123
2956.19615	0.00110
2954.26777	0.00114
2952.33940	0.00111
2950.41103	0.00118
2948.48266	0.00125
2946.55428	0.00115
2944.62591	0.00101
2942.69754	0.00092
2940.76916	0.00097
2938.84079	0.00115
2936.91242	0.00111
2934.98404	0.00107
2933.05567	0.00105
2931.12730	0.00092
2929.19892	0.00073
2927.27055	0.00058
2925.34218	0.00061
2923.41380	0.00082
2921.48543	0.00090
2919.55706	0.00089
2917.62868	0.00099
2915.70031	0.00107
2913.77194	0.00087
2911.84356	0.00071
2909.91519	0.00087
2907.98682	0.00109
2906.05844	0.00123
2904.13007	0.00121
2902.20170	0.00110
2900.27332	0.00102
2898.34495	0.00091
2896.41658	0.00076
2894.48820	0.00075
2892.55983	0.00088
2890.63146	0.00104
2888.70309	0.00106
2886.77471	0.00105
2884.84634	0.00102
2882.91797	0.00098
2880.98959	0.00097
2879.06122	0.00104
2877.13285	0.00109
2875.20447	0.00114
2873.27610	0.00119
2871.34773	0.00129
2869.41935	0.00128
2867.49098	0.00119
2865.56261	0.00116
2863.63423	0.00126
2861.70586	0.00146
2859.77749	0.00149
2857.84911	0.00144
2855.92074	0.00154
2853.99237	0.00182
2852.06399	0.00208
2850.13562	0.00226
2848.20725	0.00259
2846.27887	0.00315
2844.35050	0.00379
2842.42213	0.00443
2840.49375	0.00513
2838.56538	0.00588
2836.63701	0.00657
2834.70863	0.00715
2832.78026	0.00758
2830.85189	0.00795
2828.92352	0.00843
2826.99514	0.00901
2825.06677	0.00967
2823.13840	0.01029
2821.21002	0.01079
2819.28165	0.01137
2817.35328	0.01214
2815.42490	0.01289
2813.49653	0.01356
2811.56816	0.01421
2809.63978	0.01492
2807.71141	0.01572
2805.78304	0.01659
2803.85466	0.01756
2801.92629	0.01859
2799.99792	0.01959
2798.06954	0.02057
2796.14117	0.02157
2794.21280	0.02256
2792.28442	0.02358
2790.35605	0.02454
2788.42768	0.02532
2786.49930	0.02601
2784.57093	0.02677
2782.64256	0.02756
2780.71418	0.02824
2778.78581	0.02889
2776.85744	0.02956
2774.92907	0.03022
2773.00069	0.03086
2771.07232	0.03150
2769.14395	0.03209
2767.21557	0.03277
2765.28720	0.03376
2763.35883	0.03490
2761.43045	0.03573
2759.50208	0.03633
2757.57371	0.03710
2755.64533	0.03797
2753.71696	0.03879
2751.78859	0.03959
2749.86021	0.04034
2747.93184	0.04112
2746.00347	0.04192
2744.07509	0.04266
2742.14672	0.04345
2740.21835	0.04432
2738.28997	0.04510
2736.36160	0.04569
2734.43323	0.04623
2732.50485	0.04683
2730.57648	0.04737
2728.64811	0.04781
2726.71973	0.04831
2724.79136	0.04899
2722.86299	0.04980
2720.93461	0.05059
2719.00624	0.05136
2717.07787	0.05223
2715.14950	0.05322
2713.22112	0.05422
2711.29275	0.05520
2709.36438	0.05638
2707.43600	0.05773
2705.50763	0.05893
2703.57926	0.05998
2701.65088	0.06105
2699.72251	0.06212
2697.79414	0.06314
2695.86576	0.06413
2693.93739	0.06507
2692.00902	0.06599
2690.08064	0.06697
2688.15227	0.06802
2686.22390	0.06918
2684.29552	0.07031
2682.36715	0.07127
2680.43878	0.07223
2678.51040	0.07343
2676.58203	0.07482
2674.65366	0.07612
2672.72528	0.07719
2670.79691	0.07814
2668.86854	0.07909
2666.94016	0.08014
2665.01179	0.08128
2663.08342	0.08232
2661.15505	0.08318
2659.22667	0.08396
2657.29830	0.08465
2655.36993	0.08520
2653.44155	0.08575
2651.51318	0.08639
2649.58481	0.08696
2647.65643	0.08744
2645.72806	0.08792
2643.79969	0.08846
2641.87131	0.08903
2639.94294	0.08956
2638.01457	0.09000
2636.08619	0.09043
2634.15782	0.09099
2632.22945	0.09170
2630.30107	0.09243
2628.37270	0.09306
2626.44433	0.09361
2624.51595	0.09419
2622.58758	0.09491
2620.65921	0.09573
2618.73083	0.09665
2616.80246	0.09768
2614.87409	0.09870
2612.94571	0.09966
2611.01734	0.10056
2609.08897	0.10138
2607.16059	0.10223
2605.23222	0.10323
2603.30385	0.10429
2601.37548	0.10519
2599.44710	0.10594
2597.51873	0.10661
2595.59036	0.10723
2593.66198	0.10796
2591.73361	0.10872
2589.80524	0.10925
2587.87686	0.10966
2585.94849	0.11022
2584.02012	0.11096
2582.09174	0.11182
2580.16337	0.11272
2578.23500	0.11366
2576.30662	0.11470
2574.37825	0.11588
2572.44988	0.11706
2570.52150	0.11826
2568.59313	0.11978
2566.66476	0.12159
2564.73638	0.12347
2562.80801	0.12539
2560.87964	0.12734
2558.95126	0.12931
2557.02289	0.13140
2555.09452	0.13357
2553.16614	0.13560
2551.23777	0.13741
2549.30940	0.13901
2547.38103	0.14042
2545.45265	0.14160
2543.52428	0.14250
2541.59591	0.14320
2539.66753	0.14386
2537.73916	0.14457
2535.81079	0.14525
2533.88241	0.14584
2531.95404	0.14646
2530.02567	0.14722
2528.09729	0.14801
2526.16892	0.14883
2524.24055	0.14974
2522.31217	0.15075
2520.38380	0.15189
2518.45543	0.15315
2516.52705	0.15448
2514.59868	0.15580
2512.67031	0.15708
2510.74193	0.15841
2508.81356	0.15978
2506.88519	0.16112
2504.95681	0.16249
2503.02844	0.16391
2501.10007	0.16533
2499.17169	0.16680
2497.24332	0.16832
2495.31495	0.16977
2493.38657	0.17121
2491.45820	0.17280
2489.52983	0.17444
2487.60146	0.17607
2485.67308	0.17778
2483.74471	0.17957
2481.81634	0.18128
2479.88796	0.18285
2477.95959	0.18438
2476.03122	0.18603
2474.10284	0.18787
2472.17447	0.18975
2470.24610	0.19157
2468.31772	0.19336
2466.38935	0.19510
2464.46098	0.19678
2462.53260	0.19856
2460.60423	0.20035
2458.67586	0.20194
2456.74748	0.20345
2454.81911	0.20518
2452.89074	0.20707
2450.96236	0.20885
2449.03399	0.21046
2447.10562	0.21191
2445.17724	0.21331
2443.24887	0.21484
2441.32050	0.21647
2439.39212	0.21814
2437.46375	0.21985
2435.53538	0.22156
2433.60700	0.22328
2431.67863	0.22505
2429.75026	0.22681
2427.82189	0.22841
2425.89351	0.22981
2423.96514	0.23111
2422.03677	0.23232
2420.10839	0.23339
2418.18002	0.23446
2416.25165	0.23561
2414.32327	0.23683
2412.39490	0.23817
2410.46653	0.23968
2408.53815	0.24128
2406.60978	0.24304
2404.68141	0.24500
2402.75303	0.24698
2400.82466	0.24884
2398.89629	0.25067
2396.96791	0.25257
2395.03954	0.25455
2393.11117	0.25657
2391.18279	0.25841
2389.25442	0.25999
2387.32605	0.26143
2385.39767	0.26273
2383.46930	0.26377
2381.54093	0.26449
2379.61255	0.26509
2377.68418	0.26582
2375.75581	0.26679
2373.82744	0.26782
2371.89906	0.26861
2369.97069	0.26906
2368.04232	0.26962
2366.11394	0.27044
2364.18557	0.27141
2362.25720	0.27299
2360.32882	0.27489
2358.40045	0.27610
2356.47208	0.27652
2354.54370	0.27713
2352.61533	0.27830
2350.68696	0.27930
2348.75858	0.27978
2346.83021	0.28007
2344.90184	0.28051
2342.97346	0.28113
2341.04509	0.28182
2339.11672	0.28245
2337.18834	0.28291
2335.25997	0.28331
2333.33160	0.28381
2331.40322	0.28438
2329.47485	0.28474
2327.54648	0.28498
2325.61810	0.28555
2323.68973	0.28650
2321.76136	0.28765
2319.83298	0.28910
2317.90461	0.29107
2315.97624	0.29338
2314.04787	0.29570
2312.11949	0.29789
2310.19112	0.30007
2308.26275	0.30248
2306.33437	0.30515
2304.40600	0.30769
2302.47763	0.30979
2300.54925	0.31157
2298.62088	0.31329
2296.69251	0.31493
2294.76413	0.31641
2292.83576	0.31772
2290.90739	0.31884
2288.97901	0.31985
2287.05064	0.32086
2285.12227	0.32175
2283.19389	0.32235
2281.26552	0.32271
2279.33715	0.32294
2277.40877	0.32311
2275.48040	0.32332
2273.55203	0.32360
2271.62365	0.32380
2269.69528	0.32379
2267.76691	0.32377
2265.83853	0.32393
2263.91016	0.32420
2261.98179	0.32448
2260.05342	0.32484
2258.12504	0.32541
2256.19667	0.32627
2254.26830	0.32738
2252.33992	0.32862
2250.41155	0.32988
2248.48318	0.33118
2246.55480	0.33261
2244.62643	0.33398
2242.69806	0.33511
2240.76968	0.33612
2238.84131	0.33706
2236.91294	0.33784
2234.98456	0.33841
2233.05619	0.33881
2231.12782	0.33917
2229.19944	0.33954
2227.27107	0.33984
2225.34270	0.34001
2223.41432	0.34002
2221.48595	0.33989
2219.55758	0.33966
2217.62920	0.33936
2215.70083	0.33887
2213.77246	0.33820
2211.84408	0.33756
2209.91571	0.33703
2207.98734	0.33647
2206.05896	0.33581
2204.13059	0.33507
2202.20222	0.33429
2200.27385	0.33353
2198.34547	0.33270
2196.41710	0.33173
2194.48873	0.33073
2192.56035	0.32977
2190.63198	0.32884
2188.70361	0.32798
2186.77523	0.32724
2184.84686	0.32663
2182.91849	0.32607
2180.99011	0.32548
2179.06174	0.32484
2177.13337	0.32413
2175.20499	0.32340
2173.27662	0.32275
2171.34825	0.32222
2169.41987	0.32170
2167.49150	0.32103
2165.56313	0.32036
2163.63475	0.31982
2161.70638	0.31939
2159.77801	0.31908
2157.84963	0.31896
2155.92126	0.31894
2153.99289	0.31892
2152.06451	0.31893
2150.13614	0.31898
2148.20777	0.31905
2146.27940	0.31923
2144.35102	0.31947
2142.42265	0.31967
2140.49428	0.31980
2138.56590	0.31985
2136.63753	0.31981
2134.70916	0.31976
2132.78078	0.31981
2130.85241	0.32000
2128.92404	0.32029
2126.99566	0.32073
2125.06729	0.32130
2123.13892	0.32202
2121.21054	0.32294
2119.28217	0.32399
2117.35380	0.32507
2115.42542	0.32612
2113.49705	0.32717
2111.56868	0.32820
2109.64030	0.32908
2107.71193	0.32979
2105.78356	0.33038
2103.85518	0.33092
2101.92681	0.33141
2099.99844	0.33185
2098.07006	0.33225
2096.14169	0.33260
2094.21332	0.33280
2092.28494	0.33276
2090.35657	0.33263
2088.42820	0.33252
2086.49983	0.33238
2084.57145	0.33216
2082.64308	0.33191
2080.71471	0.33166
2078.78633	0.33136
2076.85796	0.33104
2074.92959	0.33081
2073.00121	0.33068
2071.07284	0.33069
2069.14447	0.33083
2067.21609	0.33113
2065.28772	0.33167
2063.35935	0.33249
2061.43097	0.33357
2059.50260	0.33489
2057.57423	0.33639
2055.64585	0.33798
2053.71748	0.33966
2051.78911	0.34142
2049.86073	0.34318
2047.93236	0.34486
2046.00399	0.34640
2044.07561	0.34784
2042.14724	0.34924
2040.21887	0.35053
2038.29049	0.35168
2036.36212	0.35274
2034.43375	0.35363
2032.50538	0.35422
2030.57700	0.35464
2028.64863	0.35506
2026.72026	0.35546
2024.79188	0.35583
2022.86351	0.35618
2020.93514	0.35653
2019.00676	0.35700
2017.07839	0.35762
2015.15002	0.35830
2013.22164	0.35908
2011.29327	0.36004
2009.36490	0.36119
2007.43652	0.36236
2005.50815	0.36344
2003.57978	0.36445
2001.65140	0.36546
1999.72303	0.36641
1997.79466	0.36723
1995.86628	0.36790
1993.93791	0.36842
1992.00954	0.36877
1990.08116	0.36897
1988.15279	0.36908
1986.22442	0.36924
1984.29604	0.36942
1982.36767	0.36953
1980.43930	0.36956
1978.51092	0.36956
1976.58255	0.36958
1974.65418	0.36967
1972.72581	0.36983
1970.79743	0.37005
1968.86906	0.37036
1966.94069	0.37078
1965.01231	0.37123
1963.08394	0.37168
1961.15557	0.37215
1959.22719	0.37269
1957.29882	0.37334
1955.37045	0.37416
1953.44207	0.37517
1951.51370	0.37640
1949.58533	0.37780
1947.65695	0.37929
1945.72858	0.38073
1943.80021	0.38205
1941.87183	0.38326
1939.94346	0.38427
1938.01509	0.38514
1936.08671	0.38596
1934.15834	0.38668
1932.22997	0.38732
1930.30159	0.38790
1928.37322	0.38836
1926.44485	0.38872
1924.51647	0.38910
1922.58810	0.38943
1920.65973	0.38955
1918.73135	0.38949
1916.80298	0.38936
1914.87461	0.38920
1912.94624	0.38908
1911.01786	0.38897
1909.08949	0.38864
1907.16112	0.38801
1905.23274	0.38716
1903.30437	0.38621
1901.37600	0.38517
1899.44762	0.38402
1897.51925	0.38290
1895.59088	0.38192
1893.66250	0.38104
1891.73413	0.38023
1889.80576	0.37958
1887.87738	0.37909
1885.94901	0.37876
1884.02064	0.37866
1882.09226	0.37878
1880.16389	0.37908
1878.23552	0.37948
1876.30714	0.37995
1874.37877	0.38033
1872.45040	0.38060
1870.52202	0.38087
1868.59365	0.38100
1866.66528	0.38071
1864.73690	0.38000
1862.80853	0.37919
1860.88016	0.37841
1858.95179	0.37749
1857.02341	0.37639
1855.09504	0.37508
1853.16667	0.37363
1851.23829	0.37220
1849.30992	0.37079
1847.38155	0.36939
1845.45317	0.36802
1843.52480	0.36643
1841.59643	0.36453
1839.66805	0.36263
1837.73968	0.36076
1835.81131	0.35887
1833.88293	0.35704
1831.95456	0.35532
1830.02619	0.35346
1828.09781	0.35128
1826.16944	0.34898
1824.24107	0.34647
1822.31269	0.34372
1820.38432	0.34083
1818.45595	0.33779
1816.52757	0.33462
1814.59920	0.33129
1812.67083	0.32774
1810.74245	0.32389
1808.81408	0.31987
1806.88571	0.31580
1804.95733	0.31165
1803.02896	0.30731
1801.10059	0.30247
1799.17222	0.29709
1797.24384	0.29158
1795.31547	0.28615
1793.38710	0.28019
1791.45872	0.27311
1789.53035	0.26600
1787.60198	0.25945
1785.67360	0.25266
1783.74523	0.24551
1781.81686	0.23833
1779.88848	0.23095
1777.96011	0.22362
1776.03174	0.21677
1774.10336	0.20979
1772.17499	0.20158
1770.24662	0.19297
1768.31824	0.18492
1766.38987	0.17676
1764.46150	0.16847
1762.53312	0.15909
1760.60475	0.14824
1758.67638	0.13720
1756.74800	0.12529
1754.81963	0.11300
1752.89126	0.10108
1750.96288	0.08780
1749.03451	0.07326
1747.10614	0.05978
1745.17777	0.04767
1743.24939	0.03662
1741.32102	0.02678
1739.39265	0.01837
1737.46427	0.01249
1735.53590	0.00862
1733.60753	0.00533
1731.67915	0.00303
1729.75078	0.00188
1727.82241	0.00125
1725.89403	0.00081
1723.96566	0.00059
1722.03729	0.00050
1720.10891	0.00032
1718.18054	0.00037
1716.25217	0.00050
1714.32379	0.00042
1712.39542	0.00040
1710.46705	0.00039
1708.53867	0.00039
1706.61030	0.00047
1704.68193	0.00053
1702.75355	0.00047
1700.82518	0.00031
1698.89681	0.00018
1696.96843	0.00014
1695.04006	0.00024
1693.11169	0.00048
1691.18331	0.00051
1689.25494	0.00048
1687.32657	0.00053
1685.39820	0.00049
1683.46982	0.00038
1681.54145	0.00029
1679.61308	0.00020
1677.68470	0.00020
1675.75633	0.00015
1673.82796	0.00025
1671.89958	0.00038
1669.97121	0.00036
1668.04284	0.00014
1666.11446	0.00028
1664.18609	0.00047
1662.25772	0.00053
1660.32934	0.00042
1658.40097	0.00026
1656.47260	0.00036
1654.54422	0.00044
1652.61585	0.00035
1650.68748	0.00025
1648.75910	0.00016
1646.83073	0.00022
1644.90236	0.00031
1642.97398	0.00033
1641.04561	0.00030
1639.11724	0.00033
1637.18886	0.00042
1635.26049	0.00044
1633.33212	0.00030
1631.40375	0.00014
1629.47537	0.00016
1627.54700	0.00026
1625.61863	0.00042
1623.69025	0.00047
1621.76188	0.00040
1619.83351	0.00038
1617.90513	0.00038
1615.97676	0.00037
1614.04839	0.00035
1612.12001	0.00027
1610.19164	0.00027
1608.26327	0.00031
1606.33489	0.00032
1604.40652	0.00024
1602.47815	0.00019
1600.54977	0.00022
1598.62140	0.00019
1596.69303	0.00021
1594.76465	0.00034
1592.83628	0.00034
1590.90791	0.00043
1588.97953	0.00043
1587.05116	0.00038
1585.12279	0.00030
1583.19441	0.00019
1581.26604	0.00016
1579.33767	0.00021
1577.40929	0.00033
1575.48092	0.00040
1573.55255	0.00036
1571.62418	0.00032
1569.69580	0.00031
1567.76743	0.00029
1565.83906	0.00032
1563.91068	0.00026
1561.98231	0.00029
1560.05394	0.00043
1558.12556	0.00041
1556.19719	0.00043
1554.26882	0.00048
1552.34044	0.00050
1550.41207	0.00047
1548.48370	0.00047
1546.55532	0.00055
1544.62695	0.00066
1542.69858	0.00061
1540.77020	0.00053
1538.84183	0.00044
1536.91346	0.00044
1534.98508	0.00051
1533.05671	0.00046
1531.12834	0.00034
1529.19996	0.00034
1527.27159	0.00039
1525.34322	0.00036
1523.41484	0.00022
1521.48647	0.00015
1519.55810	0.00016
1517.62972	0.00018
1515.70135	0.00021
1513.77298	0.00023
1511.84461	0.00029
1509.91623	0.00035
1507.98786	0.00031
1506.05949	0.00032
1504.13111	0.00049
1502.20274	0.00051
1500.27437	0.00053
1498.34599	0.00066
1496.41762	0.00078
1494.48925	0.00070
1492.56087	0.00052
1490.63250	0.00043
1488.70413	0.00051
1486.77575	0.00057
1484.84738	0.00050
1482.91901	0.00046
1480.99063	0.00049
1479.06226	0.00053
1477.13389	0.00065
1475.20551	0.00073
1473.27714	0.00068
1471.34877	0.00052
1469.42039	0.00041
1467.49202	0.00048
1465.56365	0.00064
1463.63527	0.00072
1461.70690	0.00068
1459.77853	0.00070
1457.85016	0.00091
1455.92178	0.00098
1453.99341	0.00078
1452.06504	0.00065
1450.13666	0.00063
1448.20829	0.00067
1446.27992	0.00070
1444.35154	0.00067
1442.42317	0.00065
1440.49480	0.00066
1438.56642	0.00066
1436.63805	0.00063
1434.70968	0.00064
1432.78130	0.00068
1430.85293	0.00069
1428.92456	0.00068
1426.99618	0.00069
1425.06781	0.00066
1423.13944	0.00060
1421.21106	0.00066
1419.28269	0.00072
1417.35432	0.00065
1415.42594	0.00058
1413.49757	0.00062
1411.56920	0.00071
1409.64082	0.00081
1407.71245	0.00087
1405.78408	0.00084
1403.85570	0.00080
1401.92733	0.00083
1399.99896	0.00081
1398.07059	0.00076
1396.14221	0.00081
1394.21384	0.00082
1392.28547	0.00073
1390.35709	0.00073
1388.42872	0.00081
1386.50035	0.00082
1384.57197	0.00085
1382.64360	0.00086
1380.71523	0.00077
1378.78685	0.00066
1376.85848	0.00066
1374.93011	0.00073
1373.00173	0.00071
1371.07336	0.00067
1369.14499	0.00078
1367.21661	0.00091
1365.28824	0.00100
1363.35987	0.00102
1361.43149	0.00095
1359.50312	0.00097
1357.57475	0.00102
1355.64637	0.00114
1353.71800	0.00121
1351.78963	0.00110
1349.86125	0.00085
1347.93288	0.00070
1346.00451	0.00073
1344.07614	0.00080
1342.14776	0.00086
1340.21939	0.00086
1338.29102	0.00080
1336.36264	0.00066
1334.43427	0.00054
1332.50590	0.00059
1330.57752	0.00076
1328.64915	0.00085
1326.72078	0.00084
1324.79240	0.00084
1322.86403	0.00089
1320.93566	0.00087
1319.00728	0.00065
1317.07891	0.00041
1315.15054	0.00037
1313.22216	0.00058
1311.29379	0.00080
1309.36542	0.00086
1307.43704	0.00088
1305.50867	0.00094
1303.58030	0.00095
1301.65192	0.00093
1299.72355	0.00086
1297.79518	0.00075
1295.86680	0.00086
1293.93843	0.00108
1292.01006	0.00113
1290.08168	0.00109
1288.15331	0.00115
1286.22494	0.00121
1284.29657	0.00113
1282.36819	0.00092
1280.43982	0.00076
1278.51145	0.00082
1276.58307	0.00109
1274.65470	0.00130
1272.72633	0.00126
1270.79795	0.00113
1268.86958	0.00114
1266.94121	0.00112
1265.01283	0.00105
1263.08446	0.00112
1261.15609	0.00135
1259.22771	0.00143
1257.29934	0.00134
1255.37097	0.00125
1253.44259	0.00118
1251.51422	0.00118
1249.58585	0.00109
1247.65747	0.00091
1245.72910	0.00085
1243.80073	0.00094
1241.87235	0.00103
1239.94398	0.00118
1238.01561	0.00143
1236.08723	0.00168
1234.15886	0.00171
1232.23049	0.00172
1230.30212	0.00167
1228.37374	0.00148
1226.44537	0.00145
1224.51700	0.00171
1222.58862	0.00185
1220.66025	0.00190
1218.73188	0.00204
1216.80350	0.00218
1214.87513	0.00221
1212.94676	0.00211
1211.01838	0.00199
1209.09001	0.00195
1207.16164	0.00194
1205.23326	0.00186
1203.30489	0.00179
1201.37652	0.00187
1199.44814	0.00206
1197.51977	0.00218
1195.59140	0.00208
1193.66302	0.00193
1191.73465	0.00183
1189.80628	0.00192
1187.87790	0.00201
1185.94953	0.00210
1184.02116	0.00217
1182.09278	0.00218
1180.16441	0.00218
1178.23604	0.00213
1176.30766	0.00210
1174.37929	0.00204
1172.45092	0.00202
1170.52255	0.00208
1168.59417	0.00210
1166.66580	0.00187
1164.73743	0.00171
1162.80905	0.00187
1160.88068	0.00203
1158.95231	0.00215
1157.02393	0.00215
1155.09556	0.00194
1153.16719	0.00184
1151.23881	0.00195
1149.31044	0.00213
1147.38207	0.00224
1145.45369	0.00216
1143.52532	0.00202
1141.59695	0.00204
1139.66857	0.00217
1137.74020	0.00231
1135.81183	0.00246
1133.88345	0.00255
1131.95508	0.00241
1130.02671	0.00220
1128.09833	0.00224
1126.16996	0.00235
1124.24159	0.00233
1122.31321	0.00235
1120.38484	0.00237
1118.45647	0.00216
1116.52809	0.00192
1114.59972	0.00193
1112.67135	0.00207
1110.74298	0.00204
1108.81460	0.00184
1106.88623	0.00181
1104.95786	0.00213
1103.02948	0.00261
1101.10111	0.00305
1099.17274	0.00317
1097.24436	0.00291
1095.31599	0.00265
1093.38762	0.00258
1091.45924	0.00261
1089.53087	0.00260
1087.60250	0.00247
1085.67412	0.00237
1083.74575	0.00241
1081.81738	0.00235
1079.88900	0.00207
1077.96063	0.00196
1076.03226	0.00220
1074.10388	0.00234
1072.17551	0.00216
1070.24714	0.00188
1068.31876	0.00170
1066.39039	0.00163
1064.46202	0.00181
1062.53364	0.00204
1060.60527	0.00190
1058.67690	0.00162
1056.74853	0.00153
1054.82015	0.00163
1052.89178	0.00175
1050.96341	0.00189
1049.03503	0.00209
1047.10666	0.00220
1045.17829	0.00205
1043.24991	0.00186
1041.32154	0.00189
1039.39317	0.00186
1037.46479	0.00164
1035.53642	0.00154
1033.60805	0.00160
1031.67967	0.00172
1029.75130	0.00173
1027.82293	0.00165
1025.89455	0.00160
1023.96618	0.00161
1022.03781	0.00183
1020.10943	0.00217
1018.18106	0.00217
1016.25269	0.00179
1014.32431	0.00152
1012.39594	0.00162
1010.46757	0.00176
1008.53919	0.00177
1006.61082	0.00185
1004.68245	0.00186
1002.75407	0.00177
1000.82570	0.00171
998.89733	0.00179
996.96896	0.00188
995.04058	0.00177
993.11221	0.00164
991.18384	0.00166
989.25546	0.00173
987.32709	0.00197
985.39872	0.00239
983.47034	0.00257
981.54197	0.00238
979.61360	0.00221
977.68522	0.00222
975.75685	0.00223
973.82848	0.00242
971.90010	0.00301
969.97173	0.00406
968.04336	0.00541
966.11498	0.00691
964.18661	0.00795
962.25824	0.00768
960.32986	0.00597
958.40149	0.00375
956.47312	0.00241
954.54474	0.00236
952.61637	0.00269
950.68800	0.00298
948.75962	0.00344
946.83125	0.00418
944.90288	0.00498
942.97451	0.00592
941.04613	0.00738
939.11776	0.00961
937.18939	0.01242
935.26101	0.01537
933.33264	0.01828
931.40427	0.02081
929.47589	0.02230
927.54752	0.02257
925.61915	0.02212
923.69077	0.02151
921.76240	0.02115
919.83403	0.02176
917.90565	0.02379
915.97728	0.02652
914.04891	0.02878
912.12053	0.02988
910.19216	0.02918
908.26379	0.02646
906.33541	0.02261
904.40704	0.01889
902.47867	0.01599
900.55029	0.01391
898.62192	0.01272
896.69355	0.01250
894.76517	0.01309
892.83680	0.01448
890.90843	0.01669
888.98005	0.01904
887.05168	0.02058
885.12331	0.02142
883.19494	0.02306
881.26656	0.02669
879.33819	0.03154
877.40982	0.03557
875.48144	0.03770
873.55307	0.03858
871.62470	0.03913
869.69632	0.03946
867.76795	0.03940
865.83958	0.03897
863.91120	0.03811
861.98283	0.03677
860.05446	0.03499
858.12608	0.03298
856.19771	0.03107
854.26934	0.02945
852.34096	0.02828
850.41259	0.02756
848.48422	0.02704
846.55584	0.02654
844.62747	0.02588
842.69910	0.02482
840.77072	0.02346
838.84235	0.02243
836.91398	0.02232
834.98560	0.02281
833.05723	0.02300
831.12886	0.02263
829.20049	0.02204
827.27211	0.02132
825.34374	0.02049
823.41537	0.01998
821.48699	0.01982
819.55862	0.01975
817.63025	0.01964
815.70187	0.01934
813.77350	0.01900
811.84513	0.01875
809.91675	0.01809
807.98838	0.01679
806.06001	0.01554
804.13163	0.01505
802.20326	0.01498
800.27489	0.01450
798.34651	0.01354
796.41814	0.01222
794.48977	0.01079
792.56139	0.00975
790.63302	0.00884
788.70465	0.00772
786.77627	0.00659
784.84790	0.00564
782.91953	0.00492
780.99115	0.00436
779.06278	0.00392
777.13441	0.00359
775.20603	0.00330
773.27766	0.00309
771.34929	0.00309
769.42092	0.00326
767.49254	0.00334
765.56417	0.00329
763.63580	0.00345
761.70742	0.00372
759.77905	0.00384
757.85068	0.00379
755.92230	0.00352
753.99393	0.00342
752.06556	0.00365
750.13718	0.00374
748.20881	0.00338
746.28044	0.00311
744.35206	0.00339
742.42369	0.00373
740.49532	0.00377
738.56694	0.00372
736.63857	0.00347
734.71020	0.00305
732.78182	0.00310
730.85345	0.00382
728.92508	0.00437
726.99670	0.00429
725.06833	0.00416
723.13996	0.00429
721.21158	0.00426
719.28321	0.00392
717.35484	0.00361
715.42647	0.00378
713.49809	0.00438
711.56972	0.00469
709.64135	0.00458
707.71297	0.00431
705.78460	0.00386
703.85623	0.00378
701.92785	0.00409
699.99948	0.00430
698.07111	0.00469
696.14273	0.00515
694.21436	0.00504
692.28599	0.00466
690.35761	0.00460
688.42924	0.00472
686.50087	0.00506
684.57249	0.00524
682.64412	0.00494
680.71575	0.00511
678.78737	0.00553
676.85900	0.00504
674.93063	0.00442
673.00225	0.00520
671.07388	0.00737
669.14551	0.00980
667.21713	0.00942
665.28876	0.00725
663.36039	0.00635
661.43201	0.00634
659.50364	0.00637
657.57527	0.00632
655.64690	0.00689
653.71852	0.00794
651.79015	0.00846
649.86178	0.00835
647.93340	0.00789
646.00503	0.00718
644.07666	0.00672
642.14828	0.00686
640.21991	0.00747
638.29154	0.00790
636.36316	0.00722
634.43479	0.00688
632.50642	0.00852
630.57804	0.01041
628.64967	0.00990
626.72130	0.00789
624.79292	0.00652
622.86455	0.00707
620.93618	0.00975
619.00780	0.01190
617.07943	0.01182
615.15106	0.01149
613.22268	0.01204
611.29431	0.01205
609.36594	0.01110
607.43756	0.01046
605.50919	0.01173
603.58082	0.01404
601.65244	0.01667
599.72407	0.01938
