3997.51769	0.88815
3995.58931	0.88806
3993.66094	0.88798
3991.73257	0.88804
3989.80419	0.88826
3987.87582	0.88858
3985.94745	0.88899
3984.01907	0.88945
3982.09070	0.88967
3980.16233	0.88926
3978.23396	0.88858
3976.30558	0.88842
3974.37721	0.88876
3972.44884	0.88914
3970.52046	0.88948
3968.59209	0.88996
3966.66372	0.89050
3964.73534	0.89063
3962.80697	0.89020
3960.87860	0.88984
3958.95022	0.89001
3957.02185	0.89035
3955.09348	0.89056
3953.16510	0.89048
3951.23673	0.88992
3949.30836	0.88937
3947.37998	0.88966
3945.45161	0.89009
3943.52324	0.88962
3941.59486	0.88949
3939.66649	0.89067
3937.73812	0.89193
3935.80974	0.89218
3933.88137	0.89132
3931.95300	0.89048
3930.02462	0.89083
3928.09625	0.89148
3926.16788	0.89132
3924.23950	0.89127
3922.31113	0.89192
3920.38276	0.89207
3918.45439	0.89172
3916.52601	0.89253
3914.59764	0.89471
3912.66927	0.89660
3910.74089	0.89726
3908.81252	0.89672
3906.88415	0.89467
3904.95577	0.89156
3903.02740	0.88937
3901.09903	0.88915
3899.17065	0.89112
3897.24228	0.89479
3895.31391	0.89722
3893.38553	0.89675
3891.45716	0.89590
3889.52879	0.89712
3887.60041	0.89777
3885.67204	0.89649
3883.74367	0.89555
3881.81529	0.89522
3879.88692	0.89608
3877.95855	0.89880
3876.03017	0.89981
3874.10180	0.89831
3872.17343	0.89686
3870.24505	0.89645
3868.31668	0.89736
3866.38831	0.89815
3864.45994	0.89787
3862.53156	0.89914
3860.60319	0.90210
3858.67482	0.90327
3856.74644	0.90172
3854.81807	0.89872
3852.88970	0.89722
3850.96132	0.90065
3849.03295	0.90501
3847.10458	0.90687
3845.17620	0.90607
3843.24783	0.90405
3841.31946	0.90178
3839.39108	0.90024
3837.46271	0.90108
3835.53434	0.90361
3833.60596	0.90583
3831.67759	0.90774
3829.74922	0.90919
3827.82084	0.90962
3825.89247	0.90979
3823.96410	0.90912
3822.03572	0.90612
3820.10735	0.90475
3818.17898	0.90743
3816.25060	0.91025
3814.32223	0.91331
3812.39386	0.91658
3810.46548	0.91778
3808.53711	0.91623
3806.60874	0.91414
3804.68037	0.91340
3802.75199	0.91217
3800.82362	0.91155
3798.89525	0.91347
3796.96687	0.91589
3795.03850	0.91912
3793.11013	0.92263
3791.18175	0.92436
3789.25338	0.92473
3787.32501	0.92447
3785.39663	0.92381
3783.46826	0.92377
3781.53989	0.92364
3779.61151	0.92300
3777.68314	0.92424
3775.75477	0.92694
3773.82639	0.92817
3771.89802	0.92693
3769.96965	0.92499
3768.04127	0.92480
3766.11290	0.92597
3764.18453	0.92762
3762.25615	0.92835
3760.32778	0.92689
3758.39941	0.92566
3756.47103	0.92629
3754.54266	0.92607
3752.61429	0.92332
3750.68591	0.92076
3748.75754	0.92226
3746.82917	0.92458
3744.90080	0.92571
3742.97242	0.92756
3741.04405	0.92942
3739.11568	0.92895
3737.18730	0.92544
3735.25893	0.92203
3733.33056	0.92398
3731.40218	0.92971
3729.47381	0.93373
3727.54544	0.93426
3725.61706	0.93351
3723.68869	0.93418
3721.76032	0.93625
3719.83194	0.93868
3717.90357	0.94094
3715.97520	0.94192
3714.04682	0.94011
3712.11845	0.93608
3710.19008	0.93492
3708.26170	0.93858
3706.33333	0.94211
3704.40496	0.94235
3702.47658	0.94003
3700.54821	0.93854
3698.61984	0.93893
3696.69146	0.93895
3694.76309	0.93740
3692.83472	0.93404
3690.90635	0.92984
3688.97797	0.92861
3687.04960	0.93193
3685.12123	0.93560
3683.19285	0.93699
3681.26448	0.93561
3679.33611	0.93194
3677.40773	0.92679
3675.47936	0.92229
3673.55099	0.92214
3671.62261	0.92269
3669.69424	0.92174
3667.76587	0.92316
3665.83749	0.92584
3663.90912	0.92666
3661.98075	0.92559
3660.05237	0.92325
3658.12400	0.91965
3656.19563	0.91560
3654.26725	0.91199
3652.33888	0.90634
3650.41051	0.89737
3648.48213	0.89135
3646.55376	0.89355
3644.62539	0.89785
3642.69701	0.89935
3640.76864	0.89809
3638.84027	0.89571
3636.91189	0.89264
3634.98352	0.88871
3633.05515	0.88437
3631.12678	0.87910
3629.19840	0.87225
3627.27003	0.86854
3625.34166	0.86877
3623.41328	0.86705
3621.48491	0.86129
3619.55654	0.85378
3617.62816	0.84946
3615.69979	0.84816
3613.77142	0.84655
3611.84304	0.84469
3609.91467	0.84244
3607.98630	0.83967
3606.05792	0.83821
3604.12955	0.83700
3602.20118	0.83363
3600.27280	0.82911
3598.34443	0.82503
3596.41606	0.82086
3594.48768	0.81688
3592.55931	0.81410
3590.63094	0.81087
3588.70256	0.80515
3586.77419	0.79988
3584.84582	0.79847
3582.91744	0.79783
3580.98907	0.79512
3579.06070	0.79082
3577.13233	0.78636
3575.20395	0.78221
3573.27558	0.77810
3571.34721	0.77312
3569.41883	0.76600
3567.49046	0.75794
3565.56209	0.75347
3563.63371	0.75253
3561.70534	0.75101
3559.77697	0.74804
3557.84859	0.74441
3555.92022	0.74010
3553.99185	0.73521
3552.06347	0.73047
3550.13510	0.72625
3548.20673	0.72176
3546.27835	0.71693
3544.34998	0.71301
3542.42161	0.71016
3540.49323	0.70735
3538.56486	0.70385
3536.63649	0.69976
3534.70811	0.69573
3532.77974	0.69189
3530.85137	0.68756
3528.92299	0.68289
3526.99462	0.67858
3525.06625	0.67456
3523.13787	0.67092
3521.20950	0.66799
3519.28113	0.66519
3517.35276	0.66191
3515.42438	0.65830
3513.49601	0.65450
3511.56764	0.65047
3509.63926	0.64657
3507.71089	0.64320
3505.78252	0.63980
3503.85414	0.63583
3501.92577	0.63217
3499.99740	0.62940
3498.06902	0.62675
3496.14065	0.62395
3494.21228	0.62131
3492.28390	0.61888
3490.35553	0.61624
3488.42716	0.61322
3486.49878	0.61009
3484.57041	0.60709
3482.64204	0.60433
3480.71366	0.60210
3478.78529	0.60032
3476.85692	0.59822
3474.92854	0.59574
3473.00017	0.59332
3471.07180	0.59105
3469.14342	0.58877
3467.21505	0.58634
3465.28668	0.58393
3463.35831	0.58167
3461.42993	0.57941
3459.50156	0.57707
3457.57319	0.57466
3455.64481	0.57222
3453.71644	0.56983
3451.78807	0.56741
3449.85969	0.56464
3447.93132	0.56158
3446.00295	0.55877
3444.07457	0.55637
3442.14620	0.55402
3440.21783	0.55161
3438.28945	0.54926
3436.36108	0.54695
3434.43271	0.54465
3432.50433	0.54243
3430.57596	0.54032
3428.64759	0.53802
3426.71921	0.53544
3424.79084	0.53276
3422.86247	0.52994
3420.93409	0.52711
3419.00572	0.52457
3417.07735	0.52230
3415.14897	0.52011
3413.22060	0.51801
3411.29223	0.51594
3409.36385	0.51360
3407.43548	0.51107
3405.50711	0.50866
3403.57874	0.50625
3401.65036	0.50371
3399.72199	0.50116
3397.79362	0.49867
3395.86524	0.49622
3393.93687	0.49377
3392.00850	0.49127
3390.08012	0.48879
3388.15175	0.48609
3386.22338	0.48304
3384.29500	0.48006
3382.36663	0.47715
3380.43826	0.47392
3378.50988	0.47030
3376.58151	0.46658
3374.65314	0.46289
3372.72476	0.45893
3370.79639	0.45437
3368.86802	0.44955
3366.93964	0.44491
3365.01127	0.44037
3363.08290	0.43573
3361.15452	0.43089
3359.22615	0.42575
3357.29778	0.42024
3355.36940	0.41454
3353.44103	0.40887
3351.51266	0.40325
3349.58428	0.39754
3347.65591	0.39166
3345.72754	0.38568
3343.79917	0.37947
3341.87079	0.37279
3339.94242	0.36596
3338.01405	0.35946
3336.08567	0.35324
3334.15730	0.34690
3332.22893	0.34024
3330.30055	0.33359
3328.37218	0.32709
3326.44381	0.32045
3324.51543	0.31381
3322.58706	0.30750
3320.65869	0.30136
3318.73031	0.29527
3316.80194	0.28944
3314.87357	0.28393
3312.94519	0.27875
3311.01682	0.27373
3309.08845	0.26872
3307.16007	0.26391
3305.23170	0.25958
3303.30333	0.25579
3301.37495	0.25265
3299.44658	0.24991
3297.51821	0.24734
3295.58983	0.24510
3293.66146	0.24343
3291.73309	0.24248
3289.80472	0.24214
3287.87634	0.24215
3285.94797	0.24244
3284.01960	0.24312
3282.09122	0.24454
3280.16285	0.24687
3278.23448	0.24994
3276.30610	0.25360
3274.37773	0.25785
3272.44936	0.26256
3270.52098	0.26776
3268.59261	0.27377
3266.66424	0.28069
3264.73586	0.28820
3262.80749	0.29612
3260.87912	0.30455
3258.95074	0.31357
3257.02237	0.32305
3255.09400	0.33276
3253.16562	0.34268
3251.23725	0.35271
3249.30888	0.36252
3247.38050	0.37207
3245.45213	0.38154
3243.52376	0.39095
3241.59538	0.40008
3239.66701	0.40854
3237.73864	0.41619
3235.81026	0.42334
3233.88189	0.43018
3231.95352	0.43665
3230.02515	0.44280
3228.09677	0.44853
3226.16840	0.45381
3224.24003	0.45877
3222.31165	0.46342
3220.38328	0.46790
3218.45491	0.47247
3216.52653	0.47714
3214.59816	0.48172
3212.66979	0.48617
3210.74141	0.49045
3208.81304	0.49481
3206.88467	0.49966
3204.95629	0.50489
3203.02792	0.51000
3201.09955	0.51491
3199.17117	0.51988
3197.24280	0.52491
3195.31443	0.53001
3193.38605	0.53529
3191.45768	0.54073
3189.52931	0.54611
3187.60093	0.55137
3185.67256	0.55667
3183.74419	0.56225
3181.81581	0.56807
3179.88744	0.57391
3177.95907	0.57964
3176.03070	0.58519
3174.10232	0.59069
3172.17395	0.59630
3170.24558	0.60181
3168.31720	0.60710
3166.38883	0.61226
3164.46046	0.61726
3162.53208	0.62217
3160.60371	0.62699
3158.67534	0.63159
3156.74696	0.63609
3154.81859	0.64056
3152.89022	0.64485
3150.96184	0.64885
3149.03347	0.65264
3147.10510	0.65623
3145.17672	0.65960
3143.24835	0.66271
3141.31998	0.66564
3139.39160	0.66857
3137.46323	0.67144
3135.53486	0.67396
3133.60648	0.67617
3131.67811	0.67828
3129.74974	0.68013
3127.82136	0.68154
3125.89299	0.68271
3123.96462	0.68366
3122.03624	0.68417
3120.10787	0.68428
3118.17950	0.68430
3116.25113	0.68451
3114.32275	0.68481
3112.39438	0.68466
3110.46601	0.68383
3108.53763	0.68270
3106.60926	0.68167
3104.68089	0.68070
3102.75251	0.67937
3100.82414	0.67752
3098.89577	0.67556
3096.96739	0.67369
3095.03902	0.67163
3093.11065	0.66936
3091.18227	0.66699
3089.25390	0.66465
3087.32553	0.66253
3085.39715	0.66059
3083.46878	0.65872
3081.54041	0.65703
3079.61203	0.65576
3077.68366	0.65508
3075.75529	0.65483
3073.82691	0.65479
3071.89854	0.65504
3069.97017	0.65557
3068.04179	0.65642
3066.11342	0.65795
3064.18505	0.66033
3062.25668	0.66315
3060.32830	0.66615
3058.39993	0.66931
3056.47156	0.67276
3054.54318	0.67669
3052.61481	0.68090
3050.68644	0.68508
3048.75806	0.68933
3046.82969	0.69366
3044.90132	0.69793
3042.97294	0.70213
3041.04457	0.70641
3039.11620	0.71082
3037.18782	0.71512
3035.25945	0.71901
3033.33108	0.72255
3031.40270	0.72604
3029.47433	0.72977
3027.54596	0.73367
3025.61758	0.73739
3023.68921	0.74086
3021.76084	0.74408
3019.83246	0.74696
3017.90409	0.74957
3015.97572	0.75182
3014.04734	0.75365
3012.11897	0.75514
3010.19060	0.75629
3008.26222	0.75689
3006.33385	0.75671
3004.40548	0.75565
3002.47711	0.75371
3000.54873	0.75095
2998.62036	0.74725
2996.69199	0.74232
2994.76361	0.73617
2992.83524	0.72899
2990.90687	0.72080
2988.97849	0.71152
2987.05012	0.70141
2985.12175	0.69099
2983.19337	0.68065
2981.26500	0.67046
2979.33663	0.66028
2977.40825	0.65026
2975.47988	0.64050
2973.55151	0.63084
2971.62313	0.62145
2969.69476	0.61276
2967.76639	0.60524
2965.83801	0.59935
2963.90964	0.59542
2961.98127	0.59405
2960.05289	0.59588
2958.12452	0.60103
2956.19615	0.60894
2954.26777	0.61848
2952.33940	0.62801
2950.41103	0.63583
2948.48266	0.64078
2946.55428	0.64218
2944.62591	0.63988
2942.69754	0.63468
2940.76916	0.62799
2938.84079	0.62116
2936.91242	0.61489
2934.98404	0.60928
2933.05567	0.60421
2931.12730	0.59926
2929.19892	0.59381
2927.27055	0.58727
2925.34218	0.57864
2923.41380	0.56671
2921.48543	0.55192
2919.55706	0.53843
2917.62868	0.53484
2915.70031	0.54946
2913.77194	0.58071
2911.84356	0.61653
2909.91519	0.64613
2907.98682	0.66681
2906.05844	0.68071
2904.13007	0.69033
2902.20170	0.69717
2900.27332	0.70222
2898.34495	0.70627
2896.41658	0.70967
2894.48820	0.71270
2892.55983	0.71543
2890.63146	0.71746
2888.70309	0.71833
2886.77471	0.71786
2884.84634	0.71608
2882.91797	0.71302
2880.98959	0.70903
2879.06122	0.70527
2877.13285	0.70322
2875.20447	0.70390
2873.27610	0.70802
2871.34773	0.71563
2869.41935	0.72546
2867.49098	0.73553
2865.56261	0.74418
2863.63423	0.75035
2861.70586	0.75323
2859.77749	0.75232
2857.84911	0.74756
2855.92074	0.73802
2853.99237	0.72106
2852.06399	0.69703
2850.13562	0.67816
2848.20725	0.68398
2846.27887	0.71682
2844.35050	0.75630
2842.42213	0.78485
2840.49375	0.80104
2838.56538	0.80998
2836.63701	0.81543
2834.70863	0.81909
2832.78026	0.82178
2830.85189	0.82394
2828.92352	0.82565
2826.99514	0.82687
2825.06677	0.82772
2823.13840	0.82851
2821.21002	0.82933
2819.28165	0.83006
2817.35328	0.83081
2815.42490	0.83172
2813.49653	0.83263
2811.56816	0.83346
2809.63978	0.83432
2807.71141	0.83518
2805.78304	0.83610
2803.85466	0.83723
2801.92629	0.83834
2799.99792	0.83909
2798.06954	0.83965
2796.14117	0.84042
2794.21280	0.84130
2792.28442	0.84207
2790.35605	0.84290
2788.42768	0.84390
2786.49930	0.84497
2784.57093	0.84589
2782.64256	0.84655
2780.71418	0.84707
2778.78581	0.84759
2776.85744	0.84812
2774.92907	0.84869
2773.00069	0.84932
2771.07232	0.85000
2769.14395	0.85066
2767.21557	0.85129
2765.28720	0.85193
2763.35883	0.85260
2761.43045	0.85323
2759.50208	0.85367
2757.57371	0.85394
2755.64533	0.85437
2753.71696	0.85498
2751.78859	0.85545
2749.86021	0.85563
2747.93184	0.85579
2746.00347	0.85610
2744.07509	0.85636
2742.14672	0.85651
2740.21835	0.85678
2738.28997	0.85726
2736.36160	0.85772
2734.43323	0.85793
2732.50485	0.85800
2730.57648	0.85821
2728.64811	0.85862
2726.71973	0.85913
2724.79136	0.85973
2722.86299	0.86029
2720.93461	0.86077
2719.00624	0.86121
2717.07787	0.86149
2715.14950	0.86157
2713.22112	0.86160
2711.29275	0.86180
2709.36438	0.86213
2707.43600	0.86242
2705.50763	0.86265
2703.57926	0.86283
2701.65088	0.86294
2699.72251	0.86297
2697.79414	0.86281
2695.86576	0.86250
2693.93739	0.86229
2692.00902	0.86220
2690.08064	0.86211
2688.15227	0.86194
2686.22390	0.86173
2684.29552	0.86153
2682.36715	0.86140
2680.43878	0.86131
2678.51040	0.86125
2676.58203	0.86126
2674.65366	0.86135
2672.72528	0.86151
2670.79691	0.86161
2668.86854	0.86157
2666.94016	0.86143
2665.01179	0.86112
2663.08342	0.86082
2661.15505	0.86078
2659.22667	0.86082
2657.29830	0.86059
2655.36993	0.86019
2653.44155	0.85992
2651.51318	0.85968
2649.58481	0.85927
2647.65643	0.85895
2645.72806	0.85880
2643.79969	0.85871
2641.87131	0.85867
2639.94294	0.85860
2638.01457	0.85834
2636.08619	0.85793
2634.15782	0.85761
2632.22945	0.85749
2630.30107	0.85749
2628.37270	0.85736
2626.44433	0.85707
2624.51595	0.85683
2622.58758	0.85663
2620.65921	0.85639
2618.73083	0.85622
2616.80246	0.85624
2614.87409	0.85636
2612.94571	0.85640
2611.01734	0.85626
2609.08897	0.85609
2607.16059	0.85603
2605.23222	0.85595
2603.30385	0.85587
2601.37548	0.85592
2599.44710	0.85597
2597.51873	0.85588
2595.59036	0.85584
2593.66198	0.85603
2591.73361	0.85630
2589.80524	0.85630
2587.87686	0.85607
2585.94849	0.85599
2584.02012	0.85601
2582.09174	0.85593
2580.16337	0.85590
2578.23500	0.85602
2576.30662	0.85618
2574.37825	0.85626
2572.44988	0.85622
2570.52150	0.85619
2568.59313	0.85628
2566.66476	0.85629
2564.73638	0.85622
2562.80801	0.85628
2560.87964	0.85649
2558.95126	0.85671
2557.02289	0.85683
2555.09452	0.85682
2553.16614	0.85686
2551.23777	0.85700
2549.30940	0.85704
2547.38103	0.85695
2545.45265	0.85686
2543.52428	0.85677
2541.59591	0.85664
2539.66753	0.85662
2537.73916	0.85677
2535.81079	0.85692
2533.88241	0.85690
2531.95404	0.85677
2530.02567	0.85660
2528.09729	0.85652
2526.16892	0.85655
2524.24055	0.85655
2522.31217	0.85653
2520.38380	0.85644
2518.45543	0.85617
2516.52705	0.85610
2514.59868	0.85633
2512.67031	0.85638
2510.74193	0.85615
2508.81356	0.85606
2506.88519	0.85619
2504.95681	0.85618
2503.02844	0.85584
2501.10007	0.85549
2499.17169	0.85537
2497.24332	0.85539
2495.31495	0.85548
2493.38657	0.85557
2491.45820	0.85558
2489.52983	0.85561
2487.60146	0.85572
2485.67308	0.85577
2483.74471	0.85579
2481.81634	0.85587
2479.88796	0.85593
2477.95959	0.85586
2476.03122	0.85578
2474.10284	0.85581
2472.17447	0.85588
2470.24610	0.85592
2468.31772	0.85598
2466.38935	0.85609
2464.46098	0.85615
2462.53260	0.85619
2460.60423	0.85641
2458.67586	0.85666
2456.74748	0.85668
2454.81911	0.85665
2452.89074	0.85683
2450.96236	0.85706
2449.03399	0.85712
2447.10562	0.85705
2445.17724	0.85696
2443.24887	0.85697
2441.32050	0.85715
2439.39212	0.85734
2437.46375	0.85744
2435.53538	0.85753
2433.60700	0.85769
2431.67863	0.85784
2429.75026	0.85784
2427.82189	0.85775
2425.89351	0.85780
2423.96514	0.85798
2422.03677	0.85817
2420.10839	0.85839
2418.18002	0.85865
2416.25165	0.85885
2414.32327	0.85900
2412.39490	0.85917
2410.46653	0.85927
2408.53815	0.85931
2406.60978	0.85945
2404.68141	0.85975
2402.75303	0.86001
2400.82466	0.86010
2398.89629	0.86014
2396.96791	0.86021
2395.03954	0.86035
2393.11117	0.86060
2391.18279	0.86073
2389.25442	0.86045
2387.32605	0.85976
2385.39767	0.85857
2383.46930	0.85655
2381.54093	0.85366
2379.61255	0.85027
2377.68418	0.84673
2375.75581	0.84313
2373.82744	0.83922
2371.89906	0.83482
2369.97069	0.83071
2368.04232	0.82780
2366.11394	0.82556
2364.18557	0.82313
2362.25720	0.82139
2360.32882	0.82133
2358.40045	0.82193
2356.47208	0.82287
2354.54370	0.82557
2352.61533	0.82984
2350.68696	0.83396
2348.75858	0.83613
2346.83021	0.83522
2344.90184	0.83173
2342.97346	0.82897
2341.04509	0.82884
2339.11672	0.82985
2337.18834	0.83109
2335.25997	0.83219
2333.33160	0.83272
2331.40322	0.83302
2329.47485	0.83380
2327.54648	0.83491
2325.61810	0.83605
2323.68973	0.83754
2321.76136	0.83972
2319.83298	0.84236
2317.90461	0.84494
2315.97624	0.84709
2314.04787	0.84888
2312.11949	0.85055
2310.19112	0.85215
2308.26275	0.85382
2306.33437	0.85571
2304.40600	0.85764
2302.47763	0.85932
2300.54925	0.86074
2298.62088	0.86190
2296.69251	0.86281
2294.76413	0.86370
2292.83576	0.86479
2290.90739	0.86602
2288.97901	0.86713
2287.05064	0.86804
2285.12227	0.86893
2283.19389	0.86975
2281.26552	0.87014
2279.33715	0.87008
2277.40877	0.87000
2275.48040	0.87017
2273.55203	0.87050
2271.62365	0.87080
2269.69528	0.87103
2267.76691	0.87129
2265.83853	0.87162
2263.91016	0.87203
2261.98179	0.87244
2260.05342	0.87283
2258.12504	0.87321
2256.19667	0.87351
2254.26830	0.87383
2252.33992	0.87425
2250.41155	0.87460
2248.48318	0.87478
2246.55480	0.87504
2244.62643	0.87551
2242.69806	0.87595
2240.76968	0.87622
2238.84131	0.87647
2236.91294	0.87683
2234.98456	0.87717
2233.05619	0.87741
2231.12782	0.87768
2229.19944	0.87801
2227.27107	0.87829
2225.34270	0.87847
2223.41432	0.87861
2221.48595	0.87884
2219.55758	0.87918
2217.62920	0.87951
2215.70083	0.87974
2213.77246	0.88001
2211.84408	0.88039
2209.91571	0.88074
2207.98734	0.88094
2206.05896	0.88116
2204.13059	0.88149
2202.20222	0.88183
2200.27385	0.88219
2198.34547	0.88253
2196.41710	0.88281
2194.48873	0.88311
2192.56035	0.88345
2190.63198	0.88377
2188.70361	0.88405
2186.77523	0.88438
2184.84686	0.88475
2182.91849	0.88516
2180.99011	0.88562
2179.06174	0.88613
2177.13337	0.88663
2175.20499	0.88692
2173.27662	0.88715
2171.34825	0.88766
2169.41987	0.88828
2167.49150	0.88863
2165.56313	0.88883
2163.63475	0.88916
2161.70638	0.88958
2159.77801	0.88995
2157.84963	0.89034
2155.92126	0.89083
2153.99289	0.89130
2152.06451	0.89165
2150.13614	0.89198
2148.20777	0.89237
2146.27940	0.89272
2144.35102	0.89302
2142.42265	0.89338
2140.49428	0.89386
2138.56590	0.89436
2136.63753	0.89483
2134.70916	0.89539
2132.78078	0.89604
2130.85241	0.89657
2128.92404	0.89692
2126.99566	0.89727
2125.06729	0.89774
2123.13892	0.89824
2121.21054	0.89876
2119.28217	0.89934
2117.35380	0.89986
2115.42542	0.90017
2113.49705	0.90045
2111.56868	0.90094
2109.64030	0.90164
2107.71193	0.90235
2105.78356	0.90296
2103.85518	0.90348
2101.92681	0.90396
2099.99844	0.90450
2098.07006	0.90512
2096.14169	0.90577
2094.21332	0.90638
2092.28494	0.90684
2090.35657	0.90716
2088.42820	0.90762
2086.49983	0.90833
2084.57145	0.90906
2082.64308	0.90973
2080.71471	0.91037
2078.78633	0.91096
2076.85796	0.91154
2074.92959	0.91219
2073.00121	0.91289
2071.07284	0.91355
2069.14447	0.91411
2067.21609	0.91453
2065.28772	0.91495
2063.35935	0.91562
2061.43097	0.91648
2059.50260	0.91737
2057.57423	0.91819
2055.64585	0.91892
2053.71748	0.91963
2051.78911	0.92031
2049.86073	0.92090
2047.93236	0.92150
2046.00399	0.92214
2044.07561	0.92269
2042.14724	0.92319
2040.21887	0.92389
2038.29049	0.92479
2036.36212	0.92565
2034.43375	0.92640
2032.50538	0.92708
2030.57700	0.92776
2028.64863	0.92847
2026.72026	0.92914
2024.79188	0.92968
2022.86351	0.93019
2020.93514	0.93066
2019.00676	0.93095
2017.07839	0.93142
2015.15002	0.93245
2013.22164	0.93365
2011.29327	0.93456
2009.36490	0.93534
2007.43652	0.93620
2005.50815	0.93699
2003.57978	0.93757
2001.65140	0.93812
1999.72303	0.93874
1997.79466	0.93935
1995.86628	0.93971
1993.93791	0.93954
1992.00954	0.93948
1990.08116	0.94039
1988.15279	0.94180
1986.22442	0.94309
1984.29604	0.94416
1982.36767	0.94488
1980.43930	0.94535
1978.51092	0.94583
1976.58255	0.94644
1974.65418	0.94713
1972.72581	0.94782
1970.79743	0.94830
1968.86906	0.94833
1966.94069	0.94854
1965.01231	0.94969
1963.08394	0.95111
1961.15557	0.95211
1959.22719	0.95280
1957.29882	0.95328
1955.37045	0.95377
1953.44207	0.95460
1951.51370	0.95563
1949.58533	0.95642
1947.65695	0.95668
1945.72858	0.95625
1943.80021	0.95553
1941.87183	0.95615
1939.94346	0.95853
1938.01509	0.96061
1936.08671	0.96147
1934.15834	0.96180
1932.22997	0.96229
1930.30159	0.96306
1928.37322	0.96382
1926.44485	0.96403
1924.51647	0.96341
1922.58810	0.96302
1920.65973	0.96322
1918.73135	0.96333
1916.80298	0.96453
1914.87461	0.96693
1912.94624	0.96831
1911.01786	0.96828
1909.08949	0.96826
1907.16112	0.96911
1905.23274	0.97031
1903.30437	0.97125
1901.37600	0.97205
1899.44762	0.97263
1897.51925	0.97256
1895.59088	0.97233
1893.66250	0.97266
1891.73413	0.97255
1889.80576	0.97208
1887.87738	0.97326
1885.94901	0.97544
1884.02064	0.97698
1882.09226	0.97799
1880.16389	0.97875
1878.23552	0.97942
1876.30714	0.98019
1874.37877	0.98073
1872.45040	0.97986
1870.52202	0.97690
1868.59365	0.97477
1866.66528	0.97703
1864.73690	0.98113
1862.80853	0.98356
1860.88016	0.98445
1858.95179	0.98507
1857.02341	0.98588
1855.09504	0.98664
1853.16667	0.98715
1851.23829	0.98729
1849.30992	0.98658
1847.38155	0.98458
1845.45317	0.98189
1843.52480	0.98189
1841.59643	0.98557
1839.66805	0.98859
1837.73968	0.98956
1835.81131	0.99016
1833.88293	0.99024
1831.95456	0.98797
1830.02619	0.98516
1828.09781	0.98531
1826.16944	0.98684
1824.24107	0.98864
1822.31269	0.99138
1820.38432	0.99335
1818.45595	0.99381
1816.52757	0.99404
1814.59920	0.99391
1812.67083	0.99250
1810.74245	0.99134
1808.81408	0.99222
1806.88571	0.99383
1804.95733	0.99381
1803.02896	0.99160
1801.10059	0.98920
1799.17222	0.98914
1797.24384	0.99017
1795.31547	0.98902
1793.38710	0.98561
1791.45872	0.98460
1789.53035	0.98810
1787.60198	0.99088
1785.67360	0.99061
1783.74523	0.98909
1781.81686	0.98739
1779.88848	0.98649
1777.96011	0.98641
1776.03174	0.98454
1774.10336	0.97930
1772.17499	0.97427
1770.24662	0.97452
1768.31824	0.97783
1766.38987	0.98047
1764.46150	0.98008
1762.53312	0.97676
1760.60475	0.97423
1758.67638	0.97305
1756.74800	0.97140
1754.81963	0.96919
1752.89126	0.96428
1750.96288	0.95586
1749.03451	0.94919
1747.10614	0.94658
1745.17777	0.94414
1743.24939	0.93966
1741.32102	0.93336
1739.39265	0.92715
1737.46427	0.92166
1735.53590	0.91382
1733.60753	0.90510
1731.67915	0.90241
1729.75078	0.90205
1727.82241	0.89981
1725.89403	0.89503
1723.96566	0.88742
1722.03729	0.87818
1720.10891	0.86575
1718.18054	0.84803
1716.25217	0.83097
1714.32379	0.81953
1712.39542	0.80755
1710.46705	0.78973
1708.53867	0.76506
1706.61030	0.73236
1704.68193	0.69588
1702.75355	0.66107
1700.82518	0.61691
1698.89681	0.56544
1696.96843	0.52264
1695.04006	0.48004
1693.11169	0.44169
1691.18331	0.40802
1689.25494	0.37239
1687.32657	0.34004
1685.39820	0.30810
1683.46982	0.27277
1681.54145	0.24777
1679.61308	0.23077
1677.68470	0.21421
1675.75633	0.19580
1673.82796	0.17755
1671.89958	0.16218
1669.97121	0.14671
1668.04284	0.13107
1666.11446	0.11884
1664.18609	0.10714
1662.25772	0.09374
1660.32934	0.08151
1658.40097	0.07198
1656.47260	0.06478
1654.54422	0.05918
1652.61585	0.05567
1650.68748	0.05555
1648.75910	0.05805
1646.83073	0.06406
1644.90236	0.07236
1642.97398	0.07968
1641.04561	0.08578
1639.11724	0.09084
1637.18886	0.09511
1635.26049	0.10020
1633.33212	0.10591
1631.40375	0.11152
1629.47537	0.11947
1627.54700	0.13172
1625.61863	0.14839
1623.69025	0.17115
1621.76188	0.19906
1619.83351	0.22517
1617.90513	0.25216
1615.97676	0.28597
1614.04839	0.31771
1612.12001	0.34412
1610.19164	0.36990
1608.26327	0.39560
1606.33489	0.41922
1604.40652	0.43948
1602.47815	0.45664
1600.54977	0.47096
1598.62140	0.48239
1596.69303	0.49137
1594.76465	0.49935
1592.83628	0.50695
1590.90791	0.51347
1588.97953	0.51813
1587.05116	0.52036
1585.12279	0.52002
1583.19441	0.51710
1581.26604	0.51174
1579.33767	0.50359
1577.40929	0.49138
1575.48092	0.47624
1573.55255	0.46310
1571.62418	0.44889
1569.69580	0.42858
1567.76743	0.40669
1565.83906	0.38607
1563.91068	0.36426
1561.98231	0.34245
1560.05394	0.31436
1558.12556	0.27754
1556.19719	0.25492
1554.26882	0.24134
1552.34044	0.22932
1550.41207	0.22030
1548.48370	0.21471
1546.55532	0.21184
1544.62695	0.21069
1542.69858	0.21126
1540.77020	0.21513
1538.84183	0.22414
1536.91346	0.23289
1534.98508	0.24008
1533.05671	0.24904
1531.12834	0.25914
1529.19996	0.26778
1527.27159	0.27587
1525.34322	0.28373
1523.41484	0.28972
1521.48647	0.29451
1519.55810	0.29909
1517.62972	0.30516
1515.70135	0.31660
1513.77298	0.33359
1511.84461	0.35264
1509.91623	0.37032
1507.98786	0.38994
1506.05949	0.42184
1504.13111	0.45325
1502.20274	0.47465
1500.27437	0.49292
1498.34599	0.51247
1496.41762	0.53568
1494.48925	0.55815
1492.56087	0.57407
1490.63250	0.58626
1488.70413	0.60004
1486.77575	0.61449
1484.84738	0.62501
1482.91901	0.62956
1480.99063	0.62882
1479.06226	0.62305
1477.13389	0.61046
1475.20551	0.59094
1473.27714	0.56904
1471.34877	0.55359
1469.42039	0.54562
1467.49202	0.53659
1465.56365	0.52226
1463.63527	0.50696
1461.70690	0.49565
1459.77853	0.48509
1457.85016	0.47166
1455.92178	0.46141
1453.99341	0.45940
1452.06504	0.46047
1450.13666	0.46260
1448.20829	0.46710
1446.27992	0.47522
1444.35154	0.48578
1442.42317	0.49771
1440.49480	0.50971
1438.56642	0.52100
1436.63805	0.53516
1434.70968	0.55207
1432.78130	0.56577
1430.85293	0.57632
1428.92456	0.58566
1426.99618	0.59247
1425.06781	0.59557
1423.13944	0.59612
1421.21106	0.59473
1419.28269	0.59224
1417.35432	0.59250
1415.42594	0.59530
1413.49757	0.59724
1411.56920	0.59800
1409.64082	0.59864
1407.71245	0.59912
1405.78408	0.59944
1403.85570	0.60062
1401.92733	0.60156
1399.99896	0.60026
1398.07059	0.59745
1396.14221	0.59464
1394.21384	0.59253
1392.28547	0.59126
1390.35709	0.58933
1388.42872	0.58675
1386.50035	0.58647
1384.57197	0.58946
1382.64360	0.59350
1380.71523	0.59775
1378.78685	0.60220
1376.85848	0.60595
1374.93011	0.60909
1373.00173	0.61322
1371.07336	0.61828
1369.14499	0.62382
1367.21661	0.63043
1365.28824	0.63686
1363.35987	0.64224
1361.43149	0.64786
1359.50312	0.65344
1357.57475	0.65731
1355.64637	0.65923
1353.71800	0.65983
1351.78963	0.65941
1349.86125	0.65800
1347.93288	0.65571
1346.00451	0.65272
1344.07614	0.64895
1342.14776	0.64418
1340.21939	0.63911
1338.29102	0.63572
1336.36264	0.63435
1334.43427	0.63328
1332.50590	0.63169
1330.57752	0.63019
1328.64915	0.62957
1326.72078	0.62968
1324.79240	0.62975
1322.86403	0.62918
1320.93566	0.62777
1319.00728	0.62582
1317.07891	0.62351
1315.15054	0.62057
1313.22216	0.61710
1311.29379	0.61362
1309.36542	0.61029
1307.43704	0.60749
1305.50867	0.60587
1303.58030	0.60559
1301.65192	0.60652
1299.72355	0.60844
1297.79518	0.61045
1295.86680	0.61153
1293.93843	0.61143
1292.01006	0.61010
1290.08168	0.60752
1288.15331	0.60439
1286.22494	0.60163
1284.29657	0.59957
1282.36819	0.59827
1280.43982	0.59759
1278.51145	0.59718
1276.58307	0.59682
1274.65470	0.59628
1272.72633	0.59530
1270.79795	0.59398
1268.86958	0.59295
1266.94121	0.59253
1265.01283	0.59230
1263.08446	0.59201
1261.15609	0.59163
1259.22771	0.59092
1257.29934	0.58939
1255.37097	0.58679
1253.44259	0.58351
1251.51422	0.57980
1249.58585	0.57547
1247.65747	0.57084
1245.72910	0.56641
1243.80073	0.56234
1241.87235	0.55880
1239.94398	0.55617
1238.01561	0.55496
1236.08723	0.55553
1234.15886	0.55775
1232.23049	0.56140
1230.30212	0.56661
1228.37374	0.57347
1226.44537	0.58157
1224.51700	0.59038
1222.58862	0.59983
1220.66025	0.60978
1218.73188	0.61904
1216.80350	0.62658
1214.87513	0.63267
1212.94676	0.63747
1211.01838	0.64074
1209.09001	0.64296
1207.16164	0.64503
1205.23326	0.64727
1203.30489	0.64956
1201.37652	0.65239
1199.44814	0.65659
1197.51977	0.66205
1195.59140	0.66796
1193.66302	0.67407
1191.73465	0.68024
1189.80628	0.68559
1187.87790	0.68947
1185.94953	0.69223
1184.02116	0.69444
1182.09278	0.69585
1180.16441	0.69602
1178.23604	0.69497
1176.30766	0.69259
1174.37929	0.68897
1172.45092	0.68524
1170.52255	0.68251
1168.59417	0.68095
1166.66580	0.68030
1164.73743	0.68058
1162.80905	0.68193
1160.88068	0.68449
1158.95231	0.68816
1157.02393	0.69254
1155.09556	0.69707
1153.16719	0.70157
1151.23881	0.70639
1149.31044	0.71197
1147.38207	0.71803
1145.45369	0.72376
1143.52532	0.72839
1141.59695	0.73150
1139.66857	0.73304
1137.74020	0.73295
1135.81183	0.73124
1133.88345	0.72848
1131.95508	0.72551
1130.02671	0.72248
1128.09833	0.71903
1126.16996	0.71537
1124.24159	0.71204
1122.31321	0.70931
1120.38484	0.70739
1118.45647	0.70619
1116.52809	0.70567
1114.59972	0.70592
1112.67135	0.70652
1110.74298	0.70705
1108.81460	0.70741
1106.88623	0.70754
1104.95786	0.70755
1103.02948	0.70758
1101.10111	0.70791
1099.17274	0.70860
1097.24436	0.70929
1095.31599	0.70965
1093.38762	0.70942
1091.45924	0.70826
1089.53087	0.70633
1087.60250	0.70396
1085.67412	0.70116
1083.74575	0.69793
1081.81738	0.69476
1079.88900	0.69272
1077.96063	0.69207
1076.03226	0.69215
1074.10388	0.69298
1072.17551	0.69476
1070.24714	0.69683
1068.31876	0.69873
1066.39039	0.70023
1064.46202	0.70089
1062.53364	0.70093
1060.60527	0.70056
1058.67690	0.69940
1056.74853	0.69772
1054.82015	0.69625
1052.89178	0.69478
1050.96341	0.69278
1049.03503	0.69068
1047.10666	0.68883
1045.17829	0.68670
1043.24991	0.68411
1041.32154	0.68158
1039.39317	0.67926
1037.46479	0.67684
1035.53642	0.67423
1033.60805	0.67199
1031.67967	0.67140
1029.75130	0.67330
1027.82293	0.67714
1025.89455	0.68186
1023.96618	0.68673
1022.03781	0.69120
1020.10943	0.69480
1018.18106	0.69741
1016.25269	0.69962
1014.32431	0.70206
1012.39594	0.70459
1010.46757	0.70717
1008.53919	0.71003
1006.61082	0.71337
1004.68245	0.71742
1002.75407	0.72202
1000.82570	0.72694
998.89733	0.73173
996.96896	0.73558
995.04058	0.73856
993.11221	0.74125
991.18384	0.74403
989.25546	0.74709
987.32709	0.75007
985.39872	0.75244
983.47034	0.75417
981.54197	0.75570
979.61360	0.75742
977.68522	0.75957
975.75685	0.76226
973.82848	0.76505
971.90010	0.76756
969.97173	0.77023
968.04336	0.77281
966.11498	0.77407
964.18661	0.77436
962.25824	0.77501
960.32986	0.77565
958.40149	0.77563
956.47312	0.77534
954.54474	0.77513
952.61637	0.77540
950.68800	0.77630
948.75962	0.77704
946.83125	0.77712
944.90288	0.77693
942.97451	0.77682
941.04613	0.77628
939.11776	0.77484
937.18939	0.77315
935.26101	0.77207
933.33264	0.77172
931.40427	0.77164
929.47589	0.77099
927.54752	0.77001
925.61915	0.76984
923.69077	0.77027
921.76240	0.77028
919.83403	0.76982
917.90565	0.76960
915.97728	0.76972
914.04891	0.76976
912.12053	0.76967
910.19216	0.76947
908.26379	0.76968
906.33541	0.77104
904.40704	0.77251
902.47867	0.77293
900.55029	0.77353
898.62192	0.77580
896.69355	0.77874
894.76517	0.78046
892.83680	0.78059
890.90843	0.78051
888.98005	0.78161
887.05168	0.78315
885.12331	0.78346
883.19494	0.78235
881.26656	0.78106
879.33819	0.78047
877.40982	0.78011
875.48144	0.77963
873.55307	0.77956
871.62470	0.77999
869.69632	0.78093
867.76795	0.78299
865.83958	0.78547
863.91120	0.78680
861.98283	0.78673
860.05446	0.78604
858.12608	0.78541
856.19771	0.78469
854.26934	0.78363
852.34096	0.78259
850.41259	0.78228
848.48422	0.78248
846.55584	0.78173
844.62747	0.77970
842.69910	0.77791
840.77072	0.77696
838.84235	0.77617
836.91398	0.77465
834.98560	0.77217
833.05723	0.76944
831.12886	0.76703
829.20049	0.76546
827.27211	0.76531
825.34374	0.76618
823.41537	0.76671
821.48699	0.76646
819.55862	0.76636
817.63025	0.76593
815.70187	0.76402
813.77350	0.76246
811.84513	0.76307
809.91675	0.76433
807.98838	0.76461
806.06001	0.76366
804.13163	0.76157
802.20326	0.75968
800.27489	0.75933
798.34651	0.75879
796.41814	0.75595
794.48977	0.75201
792.56139	0.74894
790.63302	0.74693
788.70465	0.74544
786.77627	0.74363
784.84790	0.74186
782.91953	0.74144
780.99115	0.74127
779.06278	0.73999
777.13441	0.73872
775.20603	0.73771
773.27766	0.73605
771.34929	0.73445
769.42092	0.73380
767.49254	0.73278
765.56417	0.73059
763.63580	0.72886
761.70742	0.72851
759.77905	0.72803
757.85068	0.72580
755.92230	0.72240
753.99393	0.71980
752.06556	0.71898
750.13718	0.71903
748.20881	0.71823
746.28044	0.71652
744.35206	0.71509
742.42369	0.71427
740.49532	0.71376
738.56694	0.71308
736.63857	0.71179
734.71020	0.70964
732.78182	0.70625
730.85345	0.70250
728.92508	0.70061
726.99670	0.70029
725.06833	0.69864
723.13996	0.69418
721.21158	0.68823
719.28321	0.68420
717.35484	0.68322
715.42647	0.68215
713.49809	0.67892
711.56972	0.67484
709.64135	0.67168
707.71297	0.66910
705.78460	0.66586
703.85623	0.66204
701.92785	0.65826
699.99948	0.65513
698.07111	0.65328
696.14273	0.65238
694.21436	0.65154
692.28599	0.65045
690.35761	0.64928
688.42924	0.64779
686.50087	0.64530
684.57249	0.64225
682.64412	0.63965
680.71575	0.63751
678.78737	0.63568
676.85900	0.63415
674.93063	0.63226
673.00225	0.63009
671.07388	0.62852
669.14551	0.62790
667.21713	0.62820
665.28876	0.62822
663.36039	0.62753
661.43201	0.62647
659.50364	0.62594
657.57527	0.62717
655.64690	0.62969
653.71852	0.63121
651.79015	0.63137
649.86178	0.63257
647.93340	0.63495
646.00503	0.63643
644.07666	0.63687
642.14828	0.63708
640.21991	0.63786
638.29154	0.63983
636.36316	0.64166
634.43479	0.64236
632.50642	0.64283
630.57804	0.64297
628.64967	0.64300
626.72130	0.64473
624.79292	0.64784
622.86455	0.65083
620.93618	0.65393
619.00780	0.65685
617.07943	0.65879
615.15106	0.66037
613.22268	0.66256
611.29431	0.66596
609.36594	0.67092
607.43756	0.67573
605.50919	0.67706
603.58082	0.67575
601.65244	0.67592
599.72407	0.67764
