3997.51769	0.56089
3995.58931	0.56232
3993.66094	0.56393
3991.73257	0.56566
3989.80419	0.56789
3987.87582	0.57055
3985.94745	0.57338
3984.01907	0.57608
3982.09070	0.57846
3980.16233	0.58052
3978.23396	0.58234
3976.30558	0.58408
3974.37721	0.58569
3972.44884	0.58694
3970.52046	0.58811
3968.59209	0.58979
3966.66372	0.59194
3964.73534	0.59394
3962.80697	0.59545
3960.87860	0.59665
3958.95022	0.59806
3957.02185	0.60002
3955.09348	0.60204
3953.16510	0.60370
3951.23673	0.60533
3949.30836	0.60712
3947.37998	0.60867
3945.45161	0.60998
3943.52324	0.61139
3941.59486	0.61246
3939.66649	0.61294
3937.73812	0.61361
3935.80974	0.61500
3933.88137	0.61711
3931.95300	0.61930
3930.02462	0.62043
3928.09625	0.62104
3926.16788	0.62239
3924.23950	0.62398
3922.31113	0.62508
3920.38276	0.62639
3918.45439	0.62824
3916.52601	0.62975
3914.59764	0.63047
3912.66927	0.63122
3910.74089	0.63253
3908.81252	0.63448
3906.88415	0.63779
3904.95577	0.64262
3903.02740	0.64689
3901.09903	0.64880
3899.17065	0.64862
3897.24228	0.64724
3895.31391	0.64682
3893.38553	0.64897
3891.45716	0.65221
3889.52879	0.65378
3887.60041	0.65523
3885.67204	0.65796
3883.74367	0.65977
3881.81529	0.66110
3879.88692	0.66251
3877.95855	0.66271
3876.03017	0.66382
3874.10180	0.66695
3872.17343	0.67055
3870.24505	0.67358
3868.31668	0.67438
3866.38831	0.67433
3864.45994	0.67565
3862.53156	0.67656
3860.60319	0.67630
3858.67482	0.67690
3856.74644	0.68047
3854.81807	0.68845
3852.88970	0.69397
3850.96132	0.68870
3849.03295	0.68246
3847.10458	0.68050
3845.17620	0.68201
3843.24783	0.68498
3841.31946	0.68809
3839.39108	0.69144
3837.46271	0.69333
3835.53434	0.69197
3833.60596	0.68990
3831.67759	0.68848
3829.74922	0.68747
3827.82084	0.68743
3825.89247	0.68828
3823.96410	0.69030
3822.03572	0.69399
3820.10735	0.69581
3818.17898	0.69492
3816.25060	0.69426
3814.32223	0.69216
3812.39386	0.68936
3810.46548	0.68902
3808.53711	0.69138
3806.60874	0.69390
3804.68037	0.69484
3802.75199	0.69643
3800.82362	0.69726
3798.89525	0.69480
3796.96687	0.69242
3795.03850	0.69078
3793.11013	0.68895
3791.18175	0.68763
3789.25338	0.68712
3787.32501	0.68732
3785.39663	0.68767
3783.46826	0.68774
3781.53989	0.68810
3779.61151	0.68833
3777.68314	0.68683
3775.75477	0.68460
3773.82639	0.68386
3771.89802	0.68480
3769.96965	0.68583
3768.04127	0.68519
3766.11290	0.68370
3764.18453	0.68239
3762.25615	0.68186
3760.32778	0.68263
3758.39941	0.68288
3756.47103	0.68176
3754.54266	0.68197
3752.61429	0.68541
3750.68591	0.68849
3748.75754	0.68618
3746.82917	0.68371
3744.90080	0.68341
3742.97242	0.67935
3741.04405	0.67297
3739.11568	0.67030
3737.18730	0.67142
3735.25893	0.67234
3733.33056	0.66924
3731.40218	0.66327
3729.47381	0.65828
3727.54544	0.65573
3725.61706	0.65441
3723.68869	0.65252
3721.76032	0.64944
3719.83194	0.64542
3717.90357	0.64118
3715.97520	0.63786
3714.04682	0.63614
3712.11845	0.63484
3710.19008	0.63025
3708.26170	0.62255
3706.33333	0.61513
3704.40496	0.60897
3702.47658	0.60300
3700.54821	0.59536
3698.61984	0.58683
3696.69146	0.57840
3694.76309	0.56999
3692.83472	0.56203
3690.90635	0.55364
3688.97797	0.54111
3687.04960	0.52377
3685.12123	0.50684
3683.19285	0.49138
3681.26448	0.47576
3679.33611	0.46044
3677.40773	0.44552
3675.47936	0.42597
3673.55099	0.40327
3671.62261	0.38447
3669.69424	0.36400
3667.76587	0.34107
3665.83749	0.32130
3663.90912	0.30300
3661.98075	0.28462
3660.05237	0.26714
3658.12400	0.25077
3656.19563	0.23333
3654.26725	0.21644
3652.33888	0.20301
3650.41051	0.18966
3648.48213	0.17323
3646.55376	0.15728
3644.62539	0.14456
3642.69701	0.13359
3640.76864	0.12301
3638.84027	0.11282
3636.91189	0.10338
3634.98352	0.09461
3633.05515	0.08659
3631.12678	0.07966
3629.19840	0.07240
3627.27003	0.06460
3625.34166	0.05857
3623.41328	0.05369
3621.48491	0.04910
3619.55654	0.04458
3617.62816	0.04020
3615.69979	0.03638
3613.77142	0.03298
3611.84304	0.02980
3609.91467	0.02667
3607.98630	0.02350
3606.05792	0.02072
3604.12955	0.01857
3602.20118	0.01669
3600.27280	0.01490
3598.34443	0.01318
3596.41606	0.01159
3594.48768	0.01021
3592.55931	0.00905
3590.63094	0.00812
3588.70256	0.00723
3586.77419	0.00640
3584.84582	0.00574
3582.91744	0.00507
3580.98907	0.00428
3579.06070	0.00355
3577.13233	0.00303
3575.20395	0.00257
3573.27558	0.00225
3571.34721	0.00216
3569.41883	0.00203
3567.49046	0.00173
3565.56209	0.00143
3563.63371	0.00117
3561.70534	0.00083
3559.77697	0.00050
3557.84859	0.00023
3555.92022	0.00013
3553.99185	0.00024
3552.06347	0.00020
3550.13510	0.00022
3548.20673	0.00025
3546.27835	0.00034
3544.34998	0.00036
3542.42161	0.00042
3540.49323	0.00047
3538.56486	0.00044
3536.63649	0.00046
3534.70811	0.00055
3532.77974	0.00056
3530.85137	0.00063
3528.92299	0.00067
3526.99462	0.00068
3525.06625	0.00059
3523.13787	0.00040
3521.20950	0.00041
3519.28113	0.00062
3517.35276	0.00074
3515.42438	0.00043
3513.49601	0.00013
3511.56764	0.00044
3509.63926	0.00066
3507.71089	0.00058
3505.78252	0.00040
3503.85414	0.00028
3501.92577	0.00019
3499.99740	0.00019
3498.06902	0.00038
3496.14065	0.00046
3494.21228	0.00045
3492.28390	0.00054
3490.35553	0.00062
3488.42716	0.00056
3486.49878	0.00077
3484.57041	0.00081
3482.64204	0.00061
3480.71366	0.00043
3478.78529	0.00045
3476.85692	0.00029
3474.92854	0.00042
3473.00017	0.00054
3471.07180	0.00041
3469.14342	0.00033
3467.21505	0.00023
3465.28668	0.00030
3463.35831	0.00037
3461.42993	0.00044
3459.50156	0.00088
3457.57319	0.00097
3455.64481	0.00064
3453.71644	0.00042
3451.78807	0.00027
3449.85969	0.00032
3447.93132	0.00027
3446.00295	0.00036
3444.07457	0.00046
3442.14620	0.00031
3440.21783	0.00044
3438.28945	0.00046
3436.36108	0.00031
3434.43271	0.00023
3432.50433	0.00030
3430.57596	0.00026
3428.64759	0.00034
3426.71921	0.00050
3424.79084	0.00054
3422.86247	0.00040
3420.93409	0.00012
3419.00572	0.00013
3417.07735	0.00016
3415.14897	0.00039
3413.22060	0.00051
3411.29223	0.00056
3409.36385	0.00045
3407.43548	0.00033
3405.50711	0.00026
3403.57874	0.00027
3401.65036	0.00044
3399.72199	0.00060
3397.79362	0.00067
3395.86524	0.00073
3393.93687	0.00073
3392.00850	0.00053
3390.08012	0.00038
3388.15175	0.00034
3386.22338	0.00038
3384.29500	0.00061
3382.36663	0.00093
3380.43826	0.00101
3378.50988	0.00066
3376.58151	0.00028
3374.65314	0.00036
3372.72476	0.00041
3370.79639	0.00034
3368.86802	0.00020
3366.93964	0.00027
3365.01127	0.00049
3363.08290	0.00066
3361.15452	0.00043
3359.22615	0.00030
3357.29778	0.00066
3355.36940	0.00059
3353.44103	0.00044
3351.51266	0.00079
3349.58428	0.00095
3347.65591	0.00070
3345.72754	0.00032
3343.79917	0.00049
3341.87079	0.00059
3339.94242	0.00054
3338.01405	0.00048
3336.08567	0.00052
3334.15730	0.00058
3332.22893	0.00064
3330.30055	0.00076
3328.37218	0.00070
3326.44381	0.00040
3324.51543	0.00022
3322.58706	0.00016
3320.65869	0.00030
3318.73031	0.00045
3316.80194	0.00051
3314.87357	0.00042
3312.94519	0.00047
3311.01682	0.00055
3309.08845	0.00046
3307.16007	0.00040
3305.23170	0.00029
3303.30333	0.00043
3301.37495	0.00036
3299.44658	0.00031
3297.51821	0.00048
3295.58983	0.00050
3293.66146	0.00045
3291.73309	0.00037
3289.80472	0.00044
3287.87634	0.00050
3285.94797	0.00033
3284.01960	0.00017
3282.09122	0.00013
3280.16285	0.00020
3278.23448	0.00016
3276.30610	0.00016
3274.37773	0.00025
3272.44936	0.00035
3270.52098	0.00051
3268.59261	0.00066
3266.66424	0.00067
3264.73586	0.00055
3262.80749	0.00044
3260.87912	0.00040
3258.95074	0.00036
3257.02237	0.00024
3255.09400	0.00034
3253.16562	0.00042
3251.23725	0.00038
3249.30888	0.00025
3247.38050	0.00020
3245.45213	0.00029
3243.52376	0.00015
3241.59538	0.00038
3239.66701	0.00038
3237.73864	0.00026
3235.81026	0.00036
3233.88189	0.00047
3231.95352	0.00061
3230.02515	0.00061
3228.09677	0.00046
3226.16840	0.00033
3224.24003	0.00036
3222.31165	0.00052
3220.38328	0.00056
3218.45491	0.00030
3216.52653	0.00027
3214.59816	0.00045
3212.66979	0.00023
3210.74141	0.00030
3208.81304	0.00045
3206.88467	0.00048
3204.95629	0.00038
3203.02792	0.00027
3201.09955	0.00028
3199.17117	0.00029
3197.24280	0.00032
3195.31443	0.00031
3193.38605	0.00021
3191.45768	0.00020
3189.52931	0.00035
3187.60093	0.00035
3185.67256	0.00018
3183.74419	0.00021
3181.81581	0.00045
3179.88744	0.00039
3177.95907	0.00012
3176.03070	0.00022
3174.10232	0.00025
3172.17395	0.00030
3170.24558	0.00037
3168.31720	0.00036
3166.38883	0.00020
3164.46046	0.00035
3162.53208	0.00047
3160.60371	0.00037
3158.67534	0.00021
3156.74696	0.00054
3154.81859	0.00068
3152.89022	0.00066
3150.96184	0.00060
3149.03347	0.00048
3147.10510	0.00048
3145.17672	0.00034
3143.24835	0.00033
3141.31998	0.00037
3139.39160	0.00022
3137.46323	0.00028
3135.53486	0.00036
3133.60648	0.00056
3131.67811	0.00065
3129.74974	0.00072
3127.82136	0.00058
3125.89299	0.00040
3123.96462	0.00056
3122.03624	0.00060
3120.10787	0.00057
3118.17950	0.00059
3116.25113	0.00060
3114.32275	0.00045
3112.39438	0.00031
3110.46601	0.00035
3108.53763	0.00036
3106.60926	0.00032
3104.68089	0.00060
3102.75251	0.00084
3100.82414	0.00092
3098.89577	0.00078
3096.96739	0.00045
3095.03902	0.00026
3093.11065	0.00035
3091.18227	0.00026
3089.25390	0.00022
3087.32553	0.00030
3085.39715	0.00051
3083.46878	0.00062
3081.54041	0.00048
3079.61203	0.00043
3077.68366	0.00036
3075.75529	0.00029
3073.82691	0.00025
3071.89854	0.00014
3069.97017	0.00024
3068.04179	0.00034
3066.11342	0.00048
3064.18505	0.00055
3062.25668	0.00054
3060.32830	0.00057
3058.39993	0.00063
3056.47156	0.00063
3054.54318	0.00053
3052.61481	0.00049
3050.68644	0.00055
3048.75806	0.00054
3046.82969	0.00044
3044.90132	0.00055
3042.97294	0.00094
3041.04457	0.00125
3039.11620	0.00132
3037.18782	0.00128
3035.25945	0.00126
3033.33108	0.00136
3031.40270	0.00154
3029.47433	0.00173
3027.54596	0.00173
3025.61758	0.00162
3023.68921	0.00161
3021.76084	0.00163
3019.83246	0.00158
3017.90409	0.00162
3015.97572	0.00175
3014.04734	0.00176
3012.11897	0.00171
3010.19060	0.00184
3008.26222	0.00207
3006.33385	0.00217
3004.40548	0.00206
3002.47711	0.00191
3000.54873	0.00175
2998.62036	0.00159
2996.69199	0.00150
2994.76361	0.00137
2992.83524	0.00122
2990.90687	0.00115
2988.97849	0.00108
2987.05012	0.00084
2985.12175	0.00060
2983.19337	0.00044
2981.26500	0.00038
2979.33663	0.00039
2977.40825	0.00032
2975.47988	0.00020
2973.55151	0.00025
2971.62313	0.00041
2969.69476	0.00032
2967.76639	0.00035
2965.83801	0.00058
2963.90964	0.00090
2961.98127	0.00085
2960.05289	0.00065
2958.12452	0.00059
2956.19615	0.00057
2954.26777	0.00065
2952.33940	0.00080
2950.41103	0.00067
2948.48266	0.00052
2946.55428	0.00027
2944.62591	0.00041
2942.69754	0.00042
2940.76916	0.00036
2938.84079	0.00055
2936.91242	0.00067
2934.98404	0.00097
2933.05567	0.00102
2931.12730	0.00081
2929.19892	0.00043
2927.27055	0.00021
2925.34218	0.00024
2923.41380	0.00041
2921.48543	0.00047
2919.55706	0.00030
2917.62868	0.00030
2915.70031	0.00036
2913.77194	0.00050
2911.84356	0.00055
2909.91519	0.00059
2907.98682	0.00060
2906.05844	0.00050
2904.13007	0.00052
2902.20170	0.00053
2900.27332	0.00037
2898.34495	0.00028
2896.41658	0.00022
2894.48820	0.00015
2892.55983	0.00025
2890.63146	0.00048
2888.70309	0.00060
2886.77471	0.00050
2884.84634	0.00043
2882.91797	0.00039
2880.98959	0.00037
2879.06122	0.00037
2877.13285	0.00036
2875.20447	0.00043
2873.27610	0.00048
2871.34773	0.00048
2869.41935	0.00054
2867.49098	0.00066
2865.56261	0.00080
2863.63423	0.00100
2861.70586	0.00116
2859.77749	0.00122
2857.84911	0.00121
2855.92074	0.00111
2853.99237	0.00111
2852.06399	0.00138
2850.13562	0.00188
2848.20725	0.00245
2846.27887	0.00294
2844.35050	0.00346
2842.42213	0.00415
2840.49375	0.00492
2838.56538	0.00556
2836.63701	0.00599
2834.70863	0.00627
2832.78026	0.00654
2830.85189	0.00693
2828.92352	0.00743
2826.99514	0.00799
2825.06677	0.00858
2823.13840	0.00914
2821.21002	0.00965
2819.28165	0.01029
2817.35328	0.01114
2815.42490	0.01203
2813.49653	0.01276
2811.56816	0.01342
2809.63978	0.01425
2807.71141	0.01529
2805.78304	0.01640
2803.85466	0.01740
2801.92629	0.01830
2799.99792	0.01931
2798.06954	0.02048
2796.14117	0.02166
2794.21280	0.02275
2792.28442	0.02369
2790.35605	0.02451
2788.42768	0.02531
2786.49930	0.02607
2784.57093	0.02684
2782.64256	0.02768
2780.71418	0.02856
2778.78581	0.02938
2776.85744	0.03006
2774.92907	0.03068
2773.00069	0.03143
2771.07232	0.03218
2769.14395	0.03282
2767.21557	0.03357
2765.28720	0.03454
2763.35883	0.03551
2761.43045	0.03639
2759.50208	0.03725
2757.57371	0.03818
2755.64533	0.03912
2753.71696	0.04005
2751.78859	0.04096
2749.86021	0.04193
2747.93184	0.04288
2746.00347	0.04368
2744.07509	0.04440
2742.14672	0.04518
2740.21835	0.04592
2738.28997	0.04659
2736.36160	0.04728
2734.43323	0.04791
2732.50485	0.04845
2730.57648	0.04902
2728.64811	0.04965
2726.71973	0.05034
2724.79136	0.05110
2722.86299	0.05189
2720.93461	0.05274
2719.00624	0.05371
2717.07787	0.05479
2715.14950	0.05598
2713.22112	0.05725
2711.29275	0.05843
2709.36438	0.05951
2707.43600	0.06070
2705.50763	0.06207
2703.57926	0.06350
2701.65088	0.06481
2699.72251	0.06600
2697.79414	0.06717
2695.86576	0.06835
2693.93739	0.06954
2692.00902	0.07066
2690.08064	0.07170
2688.15227	0.07276
2686.22390	0.07385
2684.29552	0.07501
2682.36715	0.07628
2680.43878	0.07761
2678.51040	0.07894
2676.58203	0.08031
2674.65366	0.08175
2672.72528	0.08320
2670.79691	0.08452
2668.86854	0.08567
2666.94016	0.08676
2665.01179	0.08795
2663.08342	0.08912
2661.15505	0.09011
2659.22667	0.09091
2657.29830	0.09161
2655.36993	0.09229
2653.44155	0.09289
2651.51318	0.09341
2649.58481	0.09405
2647.65643	0.09481
2645.72806	0.09549
2643.79969	0.09608
2641.87131	0.09663
2639.94294	0.09716
2638.01457	0.09762
2636.08619	0.09803
2634.15782	0.09856
2632.22945	0.09926
2630.30107	0.10002
2628.37270	0.10069
2626.44433	0.10132
2624.51595	0.10208
2622.58758	0.10305
2620.65921	0.10409
2618.73083	0.10510
2616.80246	0.10606
2614.87409	0.10705
2612.94571	0.10816
2611.01734	0.10933
2609.08897	0.11045
2607.16059	0.11154
2605.23222	0.11264
2603.30385	0.11367
2601.37548	0.11458
2599.44710	0.11550
2597.51873	0.11636
2595.59036	0.11705
2593.66198	0.11764
2591.73361	0.11830
2589.80524	0.11897
2587.87686	0.11960
2585.94849	0.12028
2584.02012	0.12111
2582.09174	0.12202
2580.16337	0.12295
2578.23500	0.12401
2576.30662	0.12521
2574.37825	0.12646
2572.44988	0.12783
2570.52150	0.12946
2568.59313	0.13130
2566.66476	0.13326
2564.73638	0.13535
2562.80801	0.13769
2560.87964	0.14021
2558.95126	0.14276
2557.02289	0.14527
2555.09452	0.14768
2553.16614	0.14992
2551.23777	0.15197
2549.30940	0.15371
2547.38103	0.15524
2545.45265	0.15668
2543.52428	0.15797
2541.59591	0.15900
2539.66753	0.15979
2537.73916	0.16043
2535.81079	0.16111
2533.88241	0.16191
2531.95404	0.16277
2530.02567	0.16369
2528.09729	0.16469
2526.16892	0.16575
2524.24055	0.16686
2522.31217	0.16807
2520.38380	0.16939
2518.45543	0.17078
2516.52705	0.17230
2514.59868	0.17390
2512.67031	0.17539
2510.74193	0.17677
2508.81356	0.17822
2506.88519	0.17974
2504.95681	0.18125
2503.02844	0.18278
2501.10007	0.18443
2499.17169	0.18617
2497.24332	0.18797
2495.31495	0.18982
2493.38657	0.19166
2491.45820	0.19353
2489.52983	0.19551
2487.60146	0.19763
2485.67308	0.19970
2483.74471	0.20157
2481.81634	0.20338
2479.88796	0.20525
2477.95959	0.20713
2476.03122	0.20899
2474.10284	0.21093
2472.17447	0.21298
2470.24610	0.21503
2468.31772	0.21698
2466.38935	0.21888
2464.46098	0.22085
2462.53260	0.22298
2460.60423	0.22514
2458.67586	0.22717
2456.74748	0.22912
2454.81911	0.23110
2452.89074	0.23311
2450.96236	0.23502
2449.03399	0.23676
2447.10562	0.23848
2445.17724	0.24027
2443.24887	0.24207
2441.32050	0.24391
2439.39212	0.24578
2437.46375	0.24763
2435.53538	0.24953
2433.60700	0.25153
2431.67863	0.25349
2429.75026	0.25531
2427.82189	0.25707
2425.89351	0.25881
2423.96514	0.26046
2422.03677	0.26190
2420.10839	0.26320
2418.18002	0.26447
2416.25165	0.26577
2414.32327	0.26719
2412.39490	0.26875
2410.46653	0.27040
2408.53815	0.27225
2406.60978	0.27435
2404.68141	0.27655
2402.75303	0.27877
2400.82466	0.28109
2398.89629	0.28353
2396.96791	0.28594
2395.03954	0.28829
2393.11117	0.29063
2391.18279	0.29289
2389.25442	0.29492
2387.32605	0.29666
2385.39767	0.29812
2383.46930	0.29933
2381.54093	0.30026
2379.61255	0.30081
2377.68418	0.30112
2375.75581	0.30154
2373.82744	0.30200
2371.89906	0.30217
2369.97069	0.30225
2368.04232	0.30257
2366.11394	0.30293
2364.18557	0.30337
2362.25720	0.30432
2360.32882	0.30580
2358.40045	0.30767
2356.47208	0.30946
2354.54370	0.31087
2352.61533	0.31267
2350.68696	0.31477
2348.75858	0.31612
2346.83021	0.31625
2344.90184	0.31559
2342.97346	0.31534
2341.04509	0.31579
2339.11672	0.31646
2337.18834	0.31732
2335.25997	0.31818
2333.33160	0.31871
2331.40322	0.31910
2329.47485	0.31976
2327.54648	0.32047
2325.61810	0.32100
2323.68973	0.32177
2321.76136	0.32335
2319.83298	0.32565
2317.90461	0.32817
2315.97624	0.33070
2314.04787	0.33336
2312.11949	0.33618
2310.19112	0.33904
2308.26275	0.34182
2306.33437	0.34451
2304.40600	0.34714
2302.47763	0.34958
2300.54925	0.35175
2298.62088	0.35367
2296.69251	0.35532
2294.76413	0.35670
2292.83576	0.35790
2290.90739	0.35904
2288.97901	0.36016
2287.05064	0.36108
2285.12227	0.36161
2283.19389	0.36183
2281.26552	0.36184
2279.33715	0.36168
2277.40877	0.36142
2275.48040	0.36118
2273.55203	0.36097
2271.62365	0.36061
2269.69528	0.36008
2267.76691	0.35960
2265.83853	0.35924
2263.91016	0.35893
2261.98179	0.35877
2260.05342	0.35898
2258.12504	0.35951
2256.19667	0.36013
2254.26830	0.36082
2252.33992	0.36175
2250.41155	0.36289
2248.48318	0.36413
2246.55480	0.36537
2244.62643	0.36655
2242.69806	0.36758
2240.76968	0.36833
2238.84131	0.36887
2236.91294	0.36928
2234.98456	0.36956
2233.05619	0.36972
2231.12782	0.36983
2229.19944	0.36984
2227.27107	0.36969
2225.34270	0.36949
2223.41432	0.36917
2221.48595	0.36865
2219.55758	0.36804
2217.62920	0.36740
2215.70083	0.36669
2213.77246	0.36588
2211.84408	0.36500
2209.91571	0.36408
2207.98734	0.36314
2206.05896	0.36221
2204.13059	0.36124
2202.20222	0.36018
2200.27385	0.35903
2198.34547	0.35775
2196.41710	0.35638
2194.48873	0.35508
2192.56035	0.35389
2190.63198	0.35278
2188.70361	0.35176
2186.77523	0.35080
2184.84686	0.34984
2182.91849	0.34890
2180.99011	0.34806
2179.06174	0.34732
2177.13337	0.34659
2175.20499	0.34570
2173.27662	0.34472
2171.34825	0.34386
2169.41987	0.34313
2167.49150	0.34239
2165.56313	0.34163
2163.63475	0.34091
2161.70638	0.34029
2159.77801	0.33978
2157.84963	0.33935
2155.92126	0.33912
2153.99289	0.33908
2152.06451	0.33910
2150.13614	0.33914
2148.20777	0.33925
2146.27940	0.33948
2144.35102	0.33980
2142.42265	0.34013
2140.49428	0.34026
2138.56590	0.34013
2136.63753	0.33993
2134.70916	0.33988
2132.78078	0.34000
2130.85241	0.34019
2128.92404	0.34045
2126.99566	0.34089
2125.06729	0.34160
2123.13892	0.34253
2121.21054	0.34358
2119.28217	0.34468
2117.35380	0.34588
2115.42542	0.34713
2113.49705	0.34828
2111.56868	0.34935
2109.64030	0.35036
2107.71193	0.35121
2105.78356	0.35187
2103.85518	0.35239
2101.92681	0.35286
2099.99844	0.35334
2098.07006	0.35372
2096.14169	0.35390
2094.21332	0.35391
2092.28494	0.35385
2090.35657	0.35376
2088.42820	0.35365
2086.49983	0.35336
2084.57145	0.35289
2082.64308	0.35248
2080.71471	0.35215
2078.78633	0.35169
2076.85796	0.35117
2074.92959	0.35077
2073.00121	0.35052
2071.07284	0.35046
2069.14447	0.35073
2067.21609	0.35123
2065.28772	0.35182
2063.35935	0.35254
2061.43097	0.35360
2059.50260	0.35507
2057.57423	0.35682
2055.64585	0.35867
2053.71748	0.36060
2051.78911	0.36263
2049.86073	0.36462
2047.93236	0.36651
2046.00399	0.36833
2044.07561	0.37005
2042.14724	0.37160
2040.21887	0.37294
2038.29049	0.37406
2036.36212	0.37505
2034.43375	0.37595
2032.50538	0.37664
2030.57700	0.37711
2028.64863	0.37751
2026.72026	0.37788
2024.79188	0.37818
2022.86351	0.37852
2020.93514	0.37901
2019.00676	0.37965
2017.07839	0.38039
2015.15002	0.38126
2013.22164	0.38229
2011.29327	0.38344
2009.36490	0.38471
2007.43652	0.38606
2005.50815	0.38745
2003.57978	0.38877
2001.65140	0.38996
1999.72303	0.39103
1997.79466	0.39200
1995.86628	0.39282
1993.93791	0.39355
1992.00954	0.39415
1990.08116	0.39454
1988.15279	0.39477
1986.22442	0.39497
1984.29604	0.39519
1982.36767	0.39530
1980.43930	0.39530
1978.51092	0.39542
1976.58255	0.39570
1974.65418	0.39599
1972.72581	0.39632
1970.79743	0.39677
1968.86906	0.39730
1966.94069	0.39786
1965.01231	0.39844
1963.08394	0.39902
1961.15557	0.39963
1959.22719	0.40030
1957.29882	0.40118
1955.37045	0.40241
1953.44207	0.40394
1951.51370	0.40560
1949.58533	0.40726
1947.65695	0.40888
1945.72858	0.41047
1943.80021	0.41204
1941.87183	0.41354
1939.94346	0.41492
1938.01509	0.41611
1936.08671	0.41702
1934.15834	0.41772
1932.22997	0.41841
1930.30159	0.41906
1928.37322	0.41951
1926.44485	0.41985
1924.51647	0.42023
1922.58810	0.42046
1920.65973	0.42056
1918.73135	0.42063
1916.80298	0.42056
1914.87461	0.42036
1912.94624	0.42015
1911.01786	0.41983
1909.08949	0.41925
1907.16112	0.41832
1905.23274	0.41713
1903.30437	0.41584
1901.37600	0.41443
1899.44762	0.41295
1897.51925	0.41152
1895.59088	0.41016
1893.66250	0.40894
1891.73413	0.40796
1889.80576	0.40706
1887.87738	0.40617
1885.94901	0.40553
1884.02064	0.40531
1882.09226	0.40539
1880.16389	0.40561
1878.23552	0.40586
1876.30714	0.40618
1874.37877	0.40662
1872.45040	0.40708
1870.52202	0.40745
1868.59365	0.40735
1866.66528	0.40667
1864.73690	0.40580
1862.80853	0.40494
1860.88016	0.40395
1858.95179	0.40279
1857.02341	0.40151
1855.09504	0.40007
1853.16667	0.39843
1851.23829	0.39673
1849.30992	0.39512
1847.38155	0.39363
1845.45317	0.39205
1843.52480	0.38993
1841.59643	0.38760
1839.66805	0.38565
1837.73968	0.38378
1835.81131	0.38175
1833.88293	0.37981
1831.95456	0.37801
1830.02619	0.37586
1828.09781	0.37320
1826.16944	0.37049
1824.24107	0.36753
1822.31269	0.36438
1820.38432	0.36124
1818.45595	0.35789
1816.52757	0.35419
1814.59920	0.35025
1812.67083	0.34625
1810.74245	0.34192
1808.81408	0.33722
1806.88571	0.33248
1804.95733	0.32778
1803.02896	0.32282
1801.10059	0.31713
1799.17222	0.31078
1797.24384	0.30441
1795.31547	0.29831
1793.38710	0.29152
1791.45872	0.28314
1789.53035	0.27479
1787.60198	0.26729
1785.67360	0.25953
1783.74523	0.25127
1781.81686	0.24310
1779.88848	0.23479
1777.96011	0.22659
1776.03174	0.21913
1774.10336	0.21167
1772.17499	0.20272
1770.24662	0.19317
1768.31824	0.18425
1766.38987	0.17535
1764.46150	0.16655
1762.53312	0.15667
1760.60475	0.14526
1758.67638	0.13398
1756.74800	0.12198
1754.81963	0.10955
1752.89126	0.09755
1750.96288	0.08430
1749.03451	0.07006
1747.10614	0.05711
1745.17777	0.04550
1743.24939	0.03492
1741.32102	0.02560
1739.39265	0.01756
1737.46427	0.01172
1735.53590	0.00765
1733.60753	0.00426
1731.67915	0.00219
1729.75078	0.00118
1727.82241	0.00058
1725.89403	0.00028
1723.96566	0.00026
1722.03729	0.00038
1720.10891	0.00056
1718.18054	0.00068
1716.25217	0.00064
1714.32379	0.00053
1712.39542	0.00048
1710.46705	0.00051
1708.53867	0.00062
1706.61030	0.00072
1704.68193	0.00077
1702.75355	0.00087
1700.82518	0.00097
1698.89681	0.00099
1696.96843	0.00095
1695.04006	0.00083
1693.11169	0.00075
1691.18331	0.00074
1689.25494	0.00074
1687.32657	0.00070
1685.39820	0.00058
1683.46982	0.00047
1681.54145	0.00039
1679.61308	0.00041
1677.68470	0.00052
1675.75633	0.00055
1673.82796	0.00055
1671.89958	0.00058
1669.97121	0.00059
1668.04284	0.00061
1666.11446	0.00064
1664.18609	0.00066
1662.25772	0.00060
1660.32934	0.00049
1658.40097	0.00044
1656.47260	0.00051
1654.54422	0.00069
1652.61585	0.00083
1650.68748	0.00078
1648.75910	0.00080
1646.83073	0.00090
1644.90236	0.00097
1642.97398	0.00095
1641.04561	0.00085
1639.11724	0.00082
1637.18886	0.00093
1635.26049	0.00097
1633.33212	0.00087
1631.40375	0.00075
1629.47537	0.00072
1627.54700	0.00074
1625.61863	0.00065
1623.69025	0.00049
1621.76188	0.00042
1619.83351	0.00041
1617.90513	0.00053
1615.97676	0.00072
1614.04839	0.00081
1612.12001	0.00077
1610.19164	0.00067
1608.26327	0.00056
1606.33489	0.00057
1604.40652	0.00080
1602.47815	0.00097
1600.54977	0.00093
1598.62140	0.00086
1596.69303	0.00083
1594.76465	0.00081
1592.83628	0.00080
1590.90791	0.00072
1588.97953	0.00055
1587.05116	0.00048
1585.12279	0.00056
1583.19441	0.00065
1581.26604	0.00062
1579.33767	0.00060
1577.40929	0.00064
1575.48092	0.00072
1573.55255	0.00076
1571.62418	0.00076
1569.69580	0.00069
1567.76743	0.00061
1565.83906	0.00062
1563.91068	0.00072
1561.98231	0.00076
1560.05394	0.00079
1558.12556	0.00104
1556.19719	0.00108
1554.26882	0.00083
1552.34044	0.00064
1550.41207	0.00067
1548.48370	0.00079
1546.55532	0.00087
1544.62695	0.00096
1542.69858	0.00113
1540.77020	0.00137
1538.84183	0.00130
1536.91346	0.00104
1534.98508	0.00098
1533.05671	0.00097
1531.12834	0.00090
1529.19996	0.00090
1527.27159	0.00084
1525.34322	0.00073
1523.41484	0.00069
1521.48647	0.00069
1519.55810	0.00080
1517.62972	0.00095
1515.70135	0.00104
1513.77298	0.00101
1511.84461	0.00103
1509.91623	0.00122
1507.98786	0.00144
1506.05949	0.00127
1504.13111	0.00090
1502.20274	0.00086
1500.27437	0.00101
1498.34599	0.00111
1496.41762	0.00105
1494.48925	0.00096
1492.56087	0.00096
1490.63250	0.00101
1488.70413	0.00100
1486.77575	0.00101
1484.84738	0.00105
1482.91901	0.00103
1480.99063	0.00097
1479.06226	0.00091
1477.13389	0.00097
1475.20551	0.00118
1473.27714	0.00134
1471.34877	0.00125
1469.42039	0.00117
1467.49202	0.00124
1465.56365	0.00128
1463.63527	0.00118
1461.70690	0.00113
1459.77853	0.00136
1457.85016	0.00165
1455.92178	0.00166
1453.99341	0.00156
1452.06504	0.00141
1450.13666	0.00116
1448.20829	0.00103
1446.27992	0.00112
1444.35154	0.00125
1442.42317	0.00123
1440.49480	0.00110
1438.56642	0.00106
1436.63805	0.00116
1434.70968	0.00124
1432.78130	0.00127
1430.85293	0.00126
1428.92456	0.00123
1426.99618	0.00119
1425.06781	0.00114
1423.13944	0.00108
1421.21106	0.00101
1419.28269	0.00099
1417.35432	0.00103
1415.42594	0.00108
1413.49757	0.00106
1411.56920	0.00098
1409.64082	0.00104
1407.71245	0.00126
1405.78408	0.00146
1403.85570	0.00149
1401.92733	0.00145
1399.99896	0.00150
1398.07059	0.00159
1396.14221	0.00161
1394.21384	0.00156
1392.28547	0.00152
1390.35709	0.00158
1388.42872	0.00166
1386.50035	0.00172
1384.57197	0.00170
1382.64360	0.00156
1380.71523	0.00149
1378.78685	0.00168
1376.85848	0.00187
1374.93011	0.00183
1373.00173	0.00167
1371.07336	0.00151
1369.14499	0.00143
1367.21661	0.00143
1365.28824	0.00154
1363.35987	0.00181
1361.43149	0.00195
1359.50312	0.00184
1357.57475	0.00171
1355.64637	0.00166
1353.71800	0.00163
1351.78963	0.00153
1349.86125	0.00142
1347.93288	0.00143
1346.00451	0.00148
1344.07614	0.00153
1342.14776	0.00165
1340.21939	0.00171
1338.29102	0.00170
1336.36264	0.00163
1334.43427	0.00150
1332.50590	0.00140
1330.57752	0.00139
1328.64915	0.00139
1326.72078	0.00139
1324.79240	0.00146
1322.86403	0.00157
1320.93566	0.00164
1319.00728	0.00166
1317.07891	0.00158
1315.15054	0.00144
1313.22216	0.00146
1311.29379	0.00168
1309.36542	0.00184
1307.43704	0.00179
1305.50867	0.00169
1303.58030	0.00165
1301.65192	0.00161
1299.72355	0.00164
1297.79518	0.00165
1295.86680	0.00156
1293.93843	0.00159
1292.01006	0.00180
1290.08168	0.00197
1288.15331	0.00193
1286.22494	0.00170
1284.29657	0.00158
1282.36819	0.00169
1280.43982	0.00184
1278.51145	0.00183
1276.58307	0.00175
1274.65470	0.00177
1272.72633	0.00182
1270.79795	0.00183
1268.86958	0.00192
1266.94121	0.00204
1265.01283	0.00205
1263.08446	0.00203
1261.15609	0.00209
1259.22771	0.00229
1257.29934	0.00243
1255.37097	0.00234
1253.44259	0.00221
1251.51422	0.00225
1249.58585	0.00237
1247.65747	0.00242
1245.72910	0.00240
1243.80073	0.00247
1241.87235	0.00265
1239.94398	0.00277
1238.01561	0.00270
1236.08723	0.00263
1234.15886	0.00271
1232.23049	0.00275
1230.30212	0.00279
1228.37374	0.00284
1226.44537	0.00290
1224.51700	0.00319
1222.58862	0.00353
1220.66025	0.00359
1218.73188	0.00347
1216.80350	0.00348
1214.87513	0.00354
1212.94676	0.00340
1211.01838	0.00336
1209.09001	0.00365
1207.16164	0.00387
1205.23326	0.00369
1203.30489	0.00349
1201.37652	0.00360
1199.44814	0.00373
1197.51977	0.00353
1195.59140	0.00325
1193.66302	0.00330
1191.73465	0.00358
1189.80628	0.00378
1187.87790	0.00388
1185.94953	0.00387
1184.02116	0.00365
1182.09278	0.00353
1180.16441	0.00368
1178.23604	0.00365
1176.30766	0.00336
1174.37929	0.00322
1172.45092	0.00324
1170.52255	0.00325
1168.59417	0.00339
1166.66580	0.00359
1164.73743	0.00356
1162.80905	0.00340
1160.88068	0.00333
1158.95231	0.00333
1157.02393	0.00344
1155.09556	0.00373
1153.16719	0.00400
1151.23881	0.00410
1149.31044	0.00409
1147.38207	0.00392
1145.45369	0.00366
1143.52532	0.00348
1141.59695	0.00344
1139.66857	0.00355
1137.74020	0.00358
1135.81183	0.00356
1133.88345	0.00355
1131.95508	0.00353
1130.02671	0.00355
1128.09833	0.00375
1126.16996	0.00396
1124.24159	0.00393
1122.31321	0.00380
1120.38484	0.00392
1118.45647	0.00428
1116.52809	0.00441
1114.59972	0.00407
1112.67135	0.00374
1110.74298	0.00369
1108.81460	0.00360
1106.88623	0.00338
1104.95786	0.00337
1103.02948	0.00357
1101.10111	0.00372
1099.17274	0.00363
1097.24436	0.00355
1095.31599	0.00378
1093.38762	0.00402
1091.45924	0.00391
1089.53087	0.00366
1087.60250	0.00364
1085.67412	0.00370
1083.74575	0.00373
1081.81738	0.00393
1079.88900	0.00410
1077.96063	0.00396
1076.03226	0.00380
1074.10388	0.00392
1072.17551	0.00401
1070.24714	0.00388
1068.31876	0.00390
1066.39039	0.00397
1064.46202	0.00382
1062.53364	0.00391
1060.60527	0.00437
1058.67690	0.00449
1056.74853	0.00401
1054.82015	0.00369
1052.89178	0.00381
1050.96341	0.00404
1049.03503	0.00392
1047.10666	0.00361
1045.17829	0.00360
1043.24991	0.00385
1041.32154	0.00407
1039.39317	0.00407
1037.46479	0.00396
1035.53642	0.00389
1033.60805	0.00384
1031.67967	0.00375
1029.75130	0.00367
1027.82293	0.00369
1025.89455	0.00364
1023.96618	0.00349
1022.03781	0.00341
1020.10943	0.00342
1018.18106	0.00340
1016.25269	0.00343
1014.32431	0.00345
1012.39594	0.00334
1010.46757	0.00327
1008.53919	0.00331
1006.61082	0.00336
1004.68245	0.00337
1002.75407	0.00338
1000.82570	0.00340
998.89733	0.00346
996.96896	0.00342
995.04058	0.00319
993.11221	0.00303
991.18384	0.00306
989.25546	0.00304
987.32709	0.00294
985.39872	0.00281
983.47034	0.00283
981.54197	0.00314
979.61360	0.00345
977.68522	0.00352
975.75685	0.00343
973.82848	0.00341
971.90010	0.00361
969.97173	0.00416
968.04336	0.00523
966.11498	0.00668
964.18661	0.00782
962.25824	0.00765
960.32986	0.00595
958.40149	0.00422
956.47312	0.00380
954.54474	0.00378
952.61637	0.00358
950.68800	0.00339
948.75962	0.00352
946.83125	0.00402
944.90288	0.00468
942.97451	0.00567
941.04613	0.00730
939.11776	0.00966
937.18939	0.01258
935.26101	0.01582
933.33264	0.01891
931.40427	0.02136
929.47589	0.02303
927.54752	0.02383
925.61915	0.02368
923.69077	0.02284
921.76240	0.02197
919.83403	0.02209
917.90565	0.02375
915.97728	0.02639
914.04891	0.02903
912.12053	0.03066
910.19216	0.03022
908.26379	0.02744
906.33541	0.02313
904.40704	0.01860
902.47867	0.01506
900.55029	0.01293
898.62192	0.01195
896.69355	0.01178
894.76517	0.01224
892.83680	0.01351
890.90843	0.01589
888.98005	0.01866
887.05168	0.02031
885.12331	0.02067
883.19494	0.02187
881.26656	0.02582
879.33819	0.03156
877.40982	0.03659
875.48144	0.03960
873.55307	0.04091
871.62470	0.04150
869.69632	0.04186
867.76795	0.04190
865.83958	0.04131
863.91120	0.03998
861.98283	0.03816
860.05446	0.03605
858.12608	0.03390
856.19771	0.03219
854.26934	0.03075
852.34096	0.02902
850.41259	0.02748
848.48422	0.02658
846.55584	0.02585
844.62747	0.02477
842.69910	0.02344
840.77072	0.02238
838.84235	0.02193
836.91398	0.02177
834.98560	0.02173
833.05723	0.02182
831.12886	0.02167
829.20049	0.02106
827.27211	0.02032
825.34374	0.01959
823.41537	0.01895
821.48699	0.01881
819.55862	0.01903
817.63025	0.01894
815.70187	0.01852
813.77350	0.01815
811.84513	0.01781
809.91675	0.01702
807.98838	0.01594
806.06001	0.01533
804.13163	0.01501
802.20326	0.01426
800.27489	0.01325
798.34651	0.01240
796.41814	0.01160
794.48977	0.01059
792.56139	0.00924
790.63302	0.00778
788.70465	0.00679
786.77627	0.00659
784.84790	0.00673
782.91953	0.00653
780.99115	0.00598
779.06278	0.00561
777.13441	0.00553
775.20603	0.00554
773.27766	0.00561
771.34929	0.00580
769.42092	0.00596
767.49254	0.00605
765.56417	0.00612
763.63580	0.00611
761.70742	0.00602
759.77905	0.00607
757.85068	0.00628
755.92230	0.00631
753.99393	0.00625
752.06556	0.00627
750.13718	0.00638
748.20881	0.00650
746.28044	0.00659
744.35206	0.00652
742.42369	0.00618
740.49532	0.00593
738.56694	0.00586
736.63857	0.00563
734.71020	0.00558
732.78182	0.00582
730.85345	0.00588
728.92508	0.00575
726.99670	0.00573
725.06833	0.00592
723.13996	0.00638
721.21158	0.00677
719.28321	0.00658
717.35484	0.00631
715.42647	0.00647
713.49809	0.00679
711.56972	0.00685
709.64135	0.00664
707.71297	0.00658
705.78460	0.00693
703.85623	0.00747
701.92785	0.00775
699.99948	0.00785
698.07111	0.00809
696.14273	0.00846
694.21436	0.00873
692.28599	0.00843
690.35761	0.00779
688.42924	0.00788
686.50087	0.00858
684.57249	0.00887
682.64412	0.00898
680.71575	0.00956
678.78737	0.00998
676.85900	0.00993
674.93063	0.01008
673.00225	0.01110
671.07388	0.01316
669.14551	0.01592
667.21713	0.01552
665.28876	0.01254
663.36039	0.01150
661.43201	0.01185
659.50364	0.01215
657.57527	0.01223
655.64690	0.01234
653.71852	0.01275
651.79015	0.01315
649.86178	0.01269
647.93340	0.01215
646.00503	0.01274
644.07666	0.01325
642.14828	0.01288
640.21991	0.01299
638.29154	0.01372
636.36316	0.01414
634.43479	0.01436
632.50642	0.01449
630.57804	0.01404
628.64967	0.01357
626.72130	0.01432
624.79292	0.01588
622.86455	0.01729
620.93618	0.01879
619.00780	0.01980
617.07943	0.01917
615.15106	0.01867
613.22268	0.02011
611.29431	0.02220
609.36594	0.02345
607.43756	0.02461
605.50919	0.02646
603.58082	0.02839
601.65244	0.02874
599.72407	0.02885
