3997.51769	0.69492
3995.58931	0.69585
3993.66094	0.69711
3991.73257	0.69878
3989.80419	0.70109
3987.87582	0.70396
3985.94745	0.70700
3984.01907	0.70991
3982.09070	0.71249
3980.16233	0.71446
3978.23396	0.71592
3976.30558	0.71725
3974.37721	0.71849
3972.44884	0.71975
3970.52046	0.72137
3968.59209	0.72331
3966.66372	0.72526
3964.73534	0.72706
3962.80697	0.72871
3960.87860	0.73017
3958.95022	0.73161
3957.02185	0.73318
3955.09348	0.73482
3953.16510	0.73636
3951.23673	0.73769
3949.30836	0.73899
3947.37998	0.74041
3945.45161	0.74170
3943.52324	0.74289
3941.59486	0.74430
3939.66649	0.74564
3937.73812	0.74660
3935.80974	0.74740
3933.88137	0.74842
3931.95300	0.74978
3930.02462	0.75095
3928.09625	0.75184
3926.16788	0.75302
3924.23950	0.75453
3922.31113	0.75597
3920.38276	0.75734
3918.45439	0.75886
3916.52601	0.76031
3914.59764	0.76138
3912.66927	0.76225
3910.74089	0.76333
3908.81252	0.76474
3906.88415	0.76650
3904.95577	0.76900
3903.02740	0.77205
3901.09903	0.77456
3899.17065	0.77586
3897.24228	0.77614
3895.31391	0.77619
3893.38553	0.77724
3891.45716	0.77961
3889.52879	0.78149
3887.60041	0.78247
3885.67204	0.78390
3883.74367	0.78510
3881.81529	0.78595
3879.88692	0.78756
3877.95855	0.78888
3876.03017	0.78981
3874.10180	0.79144
3872.17343	0.79369
3870.24505	0.79651
3868.31668	0.79853
3866.38831	0.79886
3864.45994	0.79942
3862.53156	0.80050
3860.60319	0.80101
3858.67482	0.80133
3856.74644	0.80316
3854.81807	0.80862
3852.88970	0.81385
3850.96132	0.81163
3849.03295	0.80761
3847.10458	0.80593
3845.17620	0.80637
3843.24783	0.80762
3841.31946	0.80878
3839.39108	0.81072
3837.46271	0.81298
3835.53434	0.81299
3833.60596	0.81170
3831.67759	0.81099
3829.74922	0.81069
3827.82084	0.81074
3825.89247	0.81135
3823.96410	0.81248
3822.03572	0.81450
3820.10735	0.81627
3818.17898	0.81668
3816.25060	0.81735
3814.32223	0.81743
3812.39386	0.81601
3810.46548	0.81497
3808.53711	0.81539
3806.60874	0.81655
3804.68037	0.81675
3802.75199	0.81706
3800.82362	0.81821
3798.89525	0.81766
3796.96687	0.81633
3795.03850	0.81589
3793.11013	0.81566
3791.18175	0.81519
3789.25338	0.81455
3787.32501	0.81390
3785.39663	0.81349
3783.46826	0.81340
3781.53989	0.81334
3779.61151	0.81322
3777.68314	0.81281
3775.75477	0.81198
3773.82639	0.81122
3771.89802	0.81081
3769.96965	0.81066
3768.04127	0.81023
3766.11290	0.80965
3764.18453	0.80902
3762.25615	0.80796
3760.32778	0.80705
3758.39941	0.80639
3756.47103	0.80536
3754.54266	0.80461
3752.61429	0.80564
3750.68591	0.80771
3748.75754	0.80717
3746.82917	0.80548
3744.90080	0.80507
3742.97242	0.80243
3741.04405	0.79701
3739.11568	0.79316
3737.18730	0.79182
3735.25893	0.79136
3733.33056	0.78984
3731.40218	0.78652
3729.47381	0.78269
3727.54544	0.77937
3725.61706	0.77668
3723.68869	0.77431
3721.76032	0.77197
3719.83194	0.76938
3717.90357	0.76642
3715.97520	0.76338
3714.04682	0.76019
3712.11845	0.75672
3710.19008	0.75246
3708.26170	0.74732
3706.33333	0.74152
3704.40496	0.73524
3702.47658	0.72894
3700.54821	0.72215
3698.61984	0.71452
3696.69146	0.70599
3694.76309	0.69675
3692.83472	0.68728
3690.90635	0.67716
3688.97797	0.66476
3687.04960	0.64941
3685.12123	0.63361
3683.19285	0.61792
3681.26448	0.60119
3679.33611	0.58395
3677.40773	0.56659
3675.47936	0.54572
3673.55099	0.52320
3671.62261	0.50374
3669.69424	0.48211
3667.76587	0.45873
3665.83749	0.43826
3663.90912	0.41860
3661.98075	0.39841
3660.05237	0.37846
3658.12400	0.35902
3656.19563	0.33854
3654.26725	0.31867
3652.33888	0.30161
3650.41051	0.28403
3648.48213	0.26405
3646.55376	0.24559
3644.62539	0.23021
3642.69701	0.21603
3640.76864	0.20225
3638.84027	0.18921
3636.91189	0.17682
3634.98352	0.16469
3633.05515	0.15324
3631.12678	0.14300
3629.19840	0.13194
3627.27003	0.12029
3625.34166	0.11144
3623.41328	0.10415
3621.48491	0.09691
3619.55654	0.08925
3617.62816	0.08179
3615.69979	0.07546
3613.77142	0.06964
3611.84304	0.06404
3609.91467	0.05886
3607.98630	0.05382
3606.05792	0.04902
3604.12955	0.04491
3602.20118	0.04118
3600.27280	0.03766
3598.34443	0.03444
3596.41606	0.03141
3594.48768	0.02842
3592.55931	0.02566
3590.63094	0.02333
3588.70256	0.02102
3586.77419	0.01871
3584.84582	0.01684
3582.91744	0.01538
3580.98907	0.01406
3579.06070	0.01262
3577.13233	0.01116
3575.20395	0.00993
3573.27558	0.00891
3571.34721	0.00794
3569.41883	0.00698
3567.49046	0.00594
3565.56209	0.00493
3563.63371	0.00440
3561.70534	0.00421
3559.77697	0.00393
3557.84859	0.00348
3555.92022	0.00300
3553.99185	0.00249
3552.06347	0.00201
3550.13510	0.00169
3548.20673	0.00133
3546.27835	0.00092
3544.34998	0.00067
3542.42161	0.00062
3540.49323	0.00066
3538.56486	0.00061
3536.63649	0.00030
3534.70811	0.00031
3532.77974	0.00060
3530.85137	0.00073
3528.92299	0.00061
3526.99462	0.00038
3525.06625	0.00031
3523.13787	0.00070
3521.20950	0.00101
3519.28113	0.00100
3517.35276	0.00079
3515.42438	0.00060
3513.49601	0.00052
3511.56764	0.00051
3509.63926	0.00057
3507.71089	0.00070
3505.78252	0.00085
3503.85414	0.00096
3501.92577	0.00097
3499.99740	0.00099
3498.06902	0.00097
3496.14065	0.00102
3494.21228	0.00113
3492.28390	0.00105
3490.35553	0.00079
3488.42716	0.00045
3486.49878	0.00041
3484.57041	0.00028
3482.64204	0.00041
3480.71366	0.00076
3478.78529	0.00105
3476.85692	0.00116
3474.92854	0.00103
3473.00017	0.00072
3471.07180	0.00052
3469.14342	0.00050
3467.21505	0.00051
3465.28668	0.00050
3463.35831	0.00075
3461.42993	0.00090
3459.50156	0.00082
3457.57319	0.00061
3455.64481	0.00066
3453.71644	0.00066
3451.78807	0.00058
3449.85969	0.00068
3447.93132	0.00070
3446.00295	0.00073
3444.07457	0.00080
3442.14620	0.00079
3440.21783	0.00075
3438.28945	0.00072
3436.36108	0.00072
3434.43271	0.00071
3432.50433	0.00069
3430.57596	0.00067
3428.64759	0.00075
3426.71921	0.00077
3424.79084	0.00078
3422.86247	0.00087
3420.93409	0.00101
3419.00572	0.00116
3417.07735	0.00126
3415.14897	0.00115
3413.22060	0.00098
3411.29223	0.00100
3409.36385	0.00107
3407.43548	0.00101
3405.50711	0.00097
3403.57874	0.00110
3401.65036	0.00115
3399.72199	0.00094
3397.79362	0.00079
3395.86524	0.00091
3393.93687	0.00090
3392.00850	0.00066
3390.08012	0.00049
3388.15175	0.00062
3386.22338	0.00065
3384.29500	0.00069
3382.36663	0.00081
3380.43826	0.00096
3378.50988	0.00110
3376.58151	0.00110
3374.65314	0.00085
3372.72476	0.00053
3370.79639	0.00056
3368.86802	0.00082
3366.93964	0.00104
3365.01127	0.00102
3363.08290	0.00097
3361.15452	0.00110
3359.22615	0.00117
3357.29778	0.00117
3355.36940	0.00106
3353.44103	0.00103
3351.51266	0.00103
3349.58428	0.00098
3347.65591	0.00108
3345.72754	0.00114
3343.79917	0.00096
3341.87079	0.00065
3339.94242	0.00056
3338.01405	0.00070
3336.08567	0.00076
3334.15730	0.00066
3332.22893	0.00056
3330.30055	0.00057
3328.37218	0.00064
3326.44381	0.00062
3324.51543	0.00054
3322.58706	0.00058
3320.65869	0.00073
3318.73031	0.00078
3316.80194	0.00074
3314.87357	0.00072
3312.94519	0.00079
3311.01682	0.00088
3309.08845	0.00095
3307.16007	0.00100
3305.23170	0.00099
3303.30333	0.00100
3301.37495	0.00102
3299.44658	0.00105
3297.51821	0.00108
3295.58983	0.00088
3293.66146	0.00070
3291.73309	0.00073
3289.80472	0.00072
3287.87634	0.00062
3285.94797	0.00068
3284.01960	0.00073
3282.09122	0.00072
3280.16285	0.00078
3278.23448	0.00076
3276.30610	0.00053
3274.37773	0.00052
3272.44936	0.00063
3270.52098	0.00070
3268.59261	0.00061
3266.66424	0.00060
3264.73586	0.00073
3262.80749	0.00069
3260.87912	0.00062
3258.95074	0.00077
3257.02237	0.00077
3255.09400	0.00070
3253.16562	0.00087
3251.23725	0.00097
3249.30888	0.00085
3247.38050	0.00078
3245.45213	0.00079
3243.52376	0.00069
3241.59538	0.00054
3239.66701	0.00056
3237.73864	0.00065
3235.81026	0.00066
3233.88189	0.00055
3231.95352	0.00063
3230.02515	0.00067
3228.09677	0.00077
3226.16840	0.00091
3224.24003	0.00090
3222.31165	0.00083
3220.38328	0.00081
3218.45491	0.00073
3216.52653	0.00074
3214.59816	0.00076
3212.66979	0.00055
3210.74141	0.00052
3208.81304	0.00077
3206.88467	0.00103
3204.95629	0.00096
3203.02792	0.00076
3201.09955	0.00077
3199.17117	0.00078
3197.24280	0.00074
3195.31443	0.00065
3193.38605	0.00060
3191.45768	0.00069
3189.52931	0.00085
3187.60093	0.00088
3185.67256	0.00075
3183.74419	0.00064
3181.81581	0.00057
3179.88744	0.00062
3177.95907	0.00072
3176.03070	0.00084
3174.10232	0.00091
3172.17395	0.00094
3170.24558	0.00092
3168.31720	0.00087
3166.38883	0.00090
3164.46046	0.00086
3162.53208	0.00065
3160.60371	0.00063
3158.67534	0.00091
3156.74696	0.00106
3154.81859	0.00099
3152.89022	0.00093
3150.96184	0.00074
3149.03347	0.00065
3147.10510	0.00069
3145.17672	0.00076
3143.24835	0.00094
3141.31998	0.00100
3139.39160	0.00088
3137.46323	0.00076
3135.53486	0.00077
3133.60648	0.00086
3131.67811	0.00091
3129.74974	0.00080
3127.82136	0.00072
3125.89299	0.00072
3123.96462	0.00057
3122.03624	0.00047
3120.10787	0.00061
3118.17950	0.00076
3116.25113	0.00074
3114.32275	0.00065
3112.39438	0.00056
3110.46601	0.00052
3108.53763	0.00060
3106.60926	0.00077
3104.68089	0.00104
3102.75251	0.00110
3100.82414	0.00093
3098.89577	0.00074
3096.96739	0.00069
3095.03902	0.00079
3093.11065	0.00084
3091.18227	0.00075
3089.25390	0.00063
3087.32553	0.00068
3085.39715	0.00081
3083.46878	0.00094
3081.54041	0.00083
3079.61203	0.00069
3077.68366	0.00051
3075.75529	0.00041
3073.82691	0.00062
3071.89854	0.00096
3069.97017	0.00124
3068.04179	0.00142
3066.11342	0.00150
3064.18505	0.00160
3062.25668	0.00183
3060.32830	0.00202
3058.39993	0.00198
3056.47156	0.00184
3054.54318	0.00193
3052.61481	0.00219
3050.68644	0.00239
3048.75806	0.00248
3046.82969	0.00257
3044.90132	0.00274
3042.97294	0.00304
3041.04457	0.00343
3039.11620	0.00383
3037.18782	0.00413
3035.25945	0.00428
3033.33108	0.00434
3031.40270	0.00436
3029.47433	0.00447
3027.54596	0.00476
3025.61758	0.00507
3023.68921	0.00530
3021.76084	0.00552
3019.83246	0.00572
3017.90409	0.00580
3015.97572	0.00579
3014.04734	0.00583
3012.11897	0.00591
3010.19060	0.00597
3008.26222	0.00600
3006.33385	0.00600
3004.40548	0.00586
3002.47711	0.00550
3000.54873	0.00513
2998.62036	0.00484
2996.69199	0.00453
2994.76361	0.00413
2992.83524	0.00366
2990.90687	0.00326
2988.97849	0.00296
2987.05012	0.00263
2985.12175	0.00229
2983.19337	0.00206
2981.26500	0.00197
2979.33663	0.00178
2977.40825	0.00131
2975.47988	0.00094
2973.55151	0.00084
2971.62313	0.00085
2969.69476	0.00081
2967.76639	0.00071
2965.83801	0.00053
2963.90964	0.00050
2961.98127	0.00070
2960.05289	0.00089
2958.12452	0.00109
2956.19615	0.00121
2954.26777	0.00114
2952.33940	0.00125
2950.41103	0.00134
2948.48266	0.00118
2946.55428	0.00109
2944.62591	0.00118
2942.69754	0.00127
2940.76916	0.00121
2938.84079	0.00095
2936.91242	0.00075
2934.98404	0.00085
2933.05567	0.00102
2931.12730	0.00116
2929.19892	0.00113
2927.27055	0.00093
2925.34218	0.00080
2923.41380	0.00084
2921.48543	0.00095
2919.55706	0.00101
2917.62868	0.00091
2915.70031	0.00079
2913.77194	0.00098
2911.84356	0.00119
2909.91519	0.00127
2907.98682	0.00131
2906.05844	0.00129
2904.13007	0.00136
2902.20170	0.00145
2900.27332	0.00147
2898.34495	0.00126
2896.41658	0.00093
2894.48820	0.00083
2892.55983	0.00096
2890.63146	0.00113
2888.70309	0.00126
2886.77471	0.00139
2884.84634	0.00144
2882.91797	0.00131
2880.98959	0.00118
2879.06122	0.00114
2877.13285	0.00100
2875.20447	0.00085
2873.27610	0.00090
2871.34773	0.00121
2869.41935	0.00150
2867.49098	0.00166
2865.56261	0.00189
2863.63423	0.00225
2861.70586	0.00264
2859.77749	0.00299
2857.84911	0.00337
2855.92074	0.00388
2853.99237	0.00458
2852.06399	0.00538
2850.13562	0.00621
2848.20725	0.00733
2846.27887	0.00884
2844.35050	0.01041
2842.42213	0.01181
2840.49375	0.01309
2838.56538	0.01430
2836.63701	0.01542
2834.70863	0.01652
2832.78026	0.01769
2830.85189	0.01882
2828.92352	0.01986
2826.99514	0.02104
2825.06677	0.02241
2823.13840	0.02378
2821.21002	0.02507
2819.28165	0.02641
2817.35328	0.02779
2815.42490	0.02921
2813.49653	0.03068
2811.56816	0.03218
2809.63978	0.03372
2807.71141	0.03540
2805.78304	0.03722
2803.85466	0.03907
2801.92629	0.04091
2799.99792	0.04279
2798.06954	0.04465
2796.14117	0.04651
2794.21280	0.04833
2792.28442	0.05004
2790.35605	0.05173
2788.42768	0.05343
2786.49930	0.05510
2784.57093	0.05667
2782.64256	0.05815
2780.71418	0.05955
2778.78581	0.06087
2776.85744	0.06206
2774.92907	0.06312
2773.00069	0.06412
2771.07232	0.06526
2769.14395	0.06659
2767.21557	0.06795
2765.28720	0.06921
2763.35883	0.07042
2761.43045	0.07164
2759.50208	0.07304
2757.57371	0.07467
2755.64533	0.07640
2753.71696	0.07810
2751.78859	0.07971
2749.86021	0.08108
2747.93184	0.08222
2746.00347	0.08338
2744.07509	0.08456
2742.14672	0.08570
2740.21835	0.08692
2738.28997	0.08820
2736.36160	0.08931
2734.43323	0.09028
2732.50485	0.09117
2730.57648	0.09204
2728.64811	0.09303
2726.71973	0.09417
2724.79136	0.09536
2722.86299	0.09665
2720.93461	0.09810
2719.00624	0.09964
2717.07787	0.10118
2715.14950	0.10273
2713.22112	0.10434
2711.29275	0.10603
2709.36438	0.10785
2707.43600	0.10973
2705.50763	0.11159
2703.57926	0.11350
2701.65088	0.11547
2699.72251	0.11737
2697.79414	0.11907
2695.86576	0.12068
2693.93739	0.12246
2692.00902	0.12435
2690.08064	0.12614
2688.15227	0.12782
2686.22390	0.12954
2684.29552	0.13136
2682.36715	0.13318
2680.43878	0.13500
2678.51040	0.13693
2676.58203	0.13890
2674.65366	0.14079
2672.72528	0.14264
2670.79691	0.14444
2668.86854	0.14632
2666.94016	0.14818
2665.01179	0.14977
2663.08342	0.15120
2661.15505	0.15266
2659.22667	0.15403
2657.29830	0.15511
2655.36993	0.15594
2653.44155	0.15683
2651.51318	0.15783
2649.58481	0.15875
2647.65643	0.15958
2645.72806	0.16045
2643.79969	0.16123
2641.87131	0.16187
2639.94294	0.16255
2638.01457	0.16334
2636.08619	0.16418
2634.15782	0.16507
2632.22945	0.16612
2630.30107	0.16722
2628.37270	0.16825
2626.44433	0.16929
2624.51595	0.17038
2622.58758	0.17153
2620.65921	0.17284
2618.73083	0.17428
2616.80246	0.17567
2614.87409	0.17704
2612.94571	0.17851
2611.01734	0.18004
2609.08897	0.18154
2607.16059	0.18302
2605.23222	0.18452
2603.30385	0.18602
2601.37548	0.18745
2599.44710	0.18877
2597.51873	0.18993
2595.59036	0.19084
2593.66198	0.19162
2591.73361	0.19246
2589.80524	0.19330
2587.87686	0.19418
2585.94849	0.19522
2584.02012	0.19634
2582.09174	0.19745
2580.16337	0.19869
2578.23500	0.20019
2576.30662	0.20188
2574.37825	0.20371
2572.44988	0.20566
2570.52150	0.20776
2568.59313	0.21007
2566.66476	0.21260
2564.73638	0.21538
2562.80801	0.21843
2560.87964	0.22164
2558.95126	0.22485
2557.02289	0.22795
2555.09452	0.23090
2553.16614	0.23384
2551.23777	0.23673
2549.30940	0.23919
2547.38103	0.24112
2545.45265	0.24273
2543.52428	0.24411
2541.59591	0.24523
2539.66753	0.24618
2537.73916	0.24707
2535.81079	0.24792
2533.88241	0.24871
2531.95404	0.24951
2530.02567	0.25042
2528.09729	0.25160
2526.16892	0.25304
2524.24055	0.25453
2522.31217	0.25601
2520.38380	0.25756
2518.45543	0.25918
2516.52705	0.26095
2514.59868	0.26287
2512.67031	0.26477
2510.74193	0.26648
2508.81356	0.26814
2506.88519	0.26998
2504.95681	0.27191
2503.02844	0.27374
2501.10007	0.27558
2499.17169	0.27763
2497.24332	0.27980
2495.31495	0.28196
2493.38657	0.28426
2491.45820	0.28675
2489.52983	0.28926
2487.60146	0.29164
2485.67308	0.29398
2483.74471	0.29639
2481.81634	0.29883
2479.88796	0.30124
2477.95959	0.30361
2476.03122	0.30589
2474.10284	0.30810
2472.17447	0.31038
2470.24610	0.31278
2468.31772	0.31526
2466.38935	0.31785
2464.46098	0.32041
2462.53260	0.32287
2460.60423	0.32531
2458.67586	0.32776
2456.74748	0.33022
2454.81911	0.33266
2452.89074	0.33505
2450.96236	0.33736
2449.03399	0.33957
2447.10562	0.34177
2445.17724	0.34402
2443.24887	0.34628
2441.32050	0.34850
2439.39212	0.35067
2437.46375	0.35283
2435.53538	0.35511
2433.60700	0.35749
2431.67863	0.35979
2429.75026	0.36205
2427.82189	0.36429
2425.89351	0.36632
2423.96514	0.36801
2422.03677	0.36952
2420.10839	0.37102
2418.18002	0.37244
2416.25165	0.37378
2414.32327	0.37524
2412.39490	0.37699
2410.46653	0.37904
2408.53815	0.38135
2406.60978	0.38387
2404.68141	0.38649
2402.75303	0.38912
2400.82466	0.39179
2398.89629	0.39452
2396.96791	0.39728
2395.03954	0.40001
2393.11117	0.40270
2391.18279	0.40517
2389.25442	0.40729
2387.32605	0.40900
2385.39767	0.41020
2383.46930	0.41072
2381.54093	0.41044
2379.61255	0.40959
2377.68418	0.40861
2375.75581	0.40770
2373.82744	0.40658
2371.89906	0.40488
2369.97069	0.40284
2368.04232	0.40120
2366.11394	0.40006
2364.18557	0.39922
2362.25720	0.39907
2360.32882	0.40024
2358.40045	0.40252
2356.47208	0.40575
2354.54370	0.41022
2352.61533	0.41532
2350.68696	0.41928
2348.75858	0.42062
2346.83021	0.41935
2344.90184	0.41680
2342.97346	0.41551
2341.04509	0.41607
2339.11672	0.41695
2337.18834	0.41780
2335.25997	0.41902
2333.33160	0.42023
2331.40322	0.42116
2329.47485	0.42211
2327.54648	0.42316
2325.61810	0.42425
2323.68973	0.42581
2321.76136	0.42829
2319.83298	0.43155
2317.90461	0.43505
2315.97624	0.43850
2314.04787	0.44190
2312.11949	0.44537
2310.19112	0.44901
2308.26275	0.45283
2306.33437	0.45670
2304.40600	0.46037
2302.47763	0.46342
2300.54925	0.46585
2298.62088	0.46797
2296.69251	0.46993
2294.76413	0.47179
2292.83576	0.47364
2290.90739	0.47531
2288.97901	0.47658
2287.05064	0.47760
2285.12227	0.47853
2283.19389	0.47915
2281.26552	0.47925
2279.33715	0.47890
2277.40877	0.47831
2275.48040	0.47782
2273.55203	0.47750
2271.62365	0.47714
2269.69528	0.47668
2267.76691	0.47627
2265.83853	0.47591
2263.91016	0.47563
2261.98179	0.47552
2260.05342	0.47565
2258.12504	0.47598
2256.19667	0.47654
2254.26830	0.47747
2252.33992	0.47879
2250.41155	0.48023
2248.48318	0.48159
2246.55480	0.48296
2244.62643	0.48433
2242.69806	0.48549
2240.76968	0.48633
2238.84131	0.48694
2236.91294	0.48742
2234.98456	0.48774
2233.05619	0.48791
2231.12782	0.48809
2229.19944	0.48830
2227.27107	0.48831
2225.34270	0.48813
2223.41432	0.48781
2221.48595	0.48732
2219.55758	0.48671
2217.62920	0.48598
2215.70083	0.48509
2213.77246	0.48413
2211.84408	0.48321
2209.91571	0.48223
2207.98734	0.48112
2206.05896	0.47992
2204.13059	0.47870
2202.20222	0.47743
2200.27385	0.47604
2198.34547	0.47451
2196.41710	0.47289
2194.48873	0.47135
2192.56035	0.46999
2190.63198	0.46874
2188.70361	0.46753
2186.77523	0.46646
2184.84686	0.46553
2182.91849	0.46459
2180.99011	0.46370
2179.06174	0.46297
2177.13337	0.46225
2175.20499	0.46135
2173.27662	0.46036
2171.34825	0.45944
2169.41987	0.45854
2167.49150	0.45766
2165.56313	0.45686
2163.63475	0.45623
2161.70638	0.45570
2159.77801	0.45524
2157.84963	0.45488
2155.92126	0.45463
2153.99289	0.45454
2152.06451	0.45454
2150.13614	0.45458
2148.20777	0.45472
2146.27940	0.45494
2144.35102	0.45515
2142.42265	0.45530
2140.49428	0.45541
2138.56590	0.45547
2136.63753	0.45548
2134.70916	0.45550
2132.78078	0.45551
2130.85241	0.45562
2128.92404	0.45598
2126.99566	0.45662
2125.06729	0.45739
2123.13892	0.45831
2121.21054	0.45948
2119.28217	0.46087
2117.35380	0.46229
2115.42542	0.46368
2113.49705	0.46508
2111.56868	0.46646
2109.64030	0.46779
2107.71193	0.46902
2105.78356	0.47008
2103.85518	0.47089
2101.92681	0.47148
2099.99844	0.47196
2098.07006	0.47242
2096.14169	0.47278
2094.21332	0.47300
2092.28494	0.47303
2090.35657	0.47287
2088.42820	0.47270
2086.49983	0.47253
2084.57145	0.47218
2082.64308	0.47165
2080.71471	0.47109
2078.78633	0.47056
2076.85796	0.47011
2074.92959	0.46979
2073.00121	0.46966
2071.07284	0.46972
2069.14447	0.46993
2067.21609	0.47028
2065.28772	0.47094
2063.35935	0.47207
2061.43097	0.47360
2059.50260	0.47538
2057.57423	0.47732
2055.64585	0.47942
2053.71748	0.48168
2051.78911	0.48404
2049.86073	0.48642
2047.93236	0.48873
2046.00399	0.49087
2044.07561	0.49276
2042.14724	0.49443
2040.21887	0.49597
2038.29049	0.49738
2036.36212	0.49856
2034.43375	0.49948
2032.50538	0.50024
2030.57700	0.50093
2028.64863	0.50151
2026.72026	0.50194
2024.79188	0.50226
2022.86351	0.50255
2020.93514	0.50281
2019.00676	0.50313
2017.07839	0.50369
2015.15002	0.50454
2013.22164	0.50553
2011.29327	0.50662
2009.36490	0.50788
2007.43652	0.50931
2005.50815	0.51077
2003.57978	0.51223
2001.65140	0.51372
1999.72303	0.51518
1997.79466	0.51646
1995.86628	0.51731
1993.93791	0.51775
1992.00954	0.51816
1990.08116	0.51871
1988.15279	0.51920
1986.22442	0.51958
1984.29604	0.51983
1982.36767	0.51995
1980.43930	0.51997
1978.51092	0.51999
1976.58255	0.52006
1974.65418	0.52022
1972.72581	0.52046
1970.79743	0.52078
1968.86906	0.52115
1966.94069	0.52168
1965.01231	0.52230
1963.08394	0.52286
1961.15557	0.52348
1959.22719	0.52434
1957.29882	0.52541
1955.37045	0.52667
1953.44207	0.52821
1951.51370	0.52996
1949.58533	0.53168
1947.65695	0.53337
1945.72858	0.53503
1943.80021	0.53672
1941.87183	0.53869
1939.94346	0.54063
1938.01509	0.54209
1936.08671	0.54321
1934.15834	0.54422
1932.22997	0.54513
1930.30159	0.54597
1928.37322	0.54667
1926.44485	0.54702
1924.51647	0.54707
1922.58810	0.54718
1920.65973	0.54728
1918.73135	0.54723
1916.80298	0.54742
1914.87461	0.54769
1912.94624	0.54754
1911.01786	0.54702
1909.08949	0.54633
1907.16112	0.54553
1905.23274	0.54453
1903.30437	0.54331
1901.37600	0.54194
1899.44762	0.54048
1897.51925	0.53900
1895.59088	0.53760
1893.66250	0.53639
1891.73413	0.53516
1889.80576	0.53407
1887.87738	0.53361
1885.94901	0.53357
1884.02064	0.53366
1882.09226	0.53388
1880.16389	0.53419
1878.23552	0.53456
1876.30714	0.53498
1874.37877	0.53533
1872.45040	0.53516
1870.52202	0.53435
1868.59365	0.53369
1866.66528	0.53374
1864.73690	0.53373
1862.80853	0.53312
1860.88016	0.53204
1858.95179	0.53064
1857.02341	0.52908
1855.09504	0.52747
1853.16667	0.52581
1851.23829	0.52389
1849.30992	0.52163
1847.38155	0.51917
1845.45317	0.51665
1843.52480	0.51460
1841.59643	0.51315
1839.66805	0.51152
1837.73968	0.50942
1835.81131	0.50714
1833.88293	0.50465
1831.95456	0.50169
1830.02619	0.49859
1828.09781	0.49581
1826.16944	0.49301
1824.24107	0.48993
1822.31269	0.48687
1820.38432	0.48352
1818.45595	0.47958
1816.52757	0.47526
1814.59920	0.47066
1812.67083	0.46570
1810.74245	0.46047
1808.81408	0.45536
1806.88571	0.45021
1804.95733	0.44460
1803.02896	0.43842
1801.10059	0.43171
1799.17222	0.42486
1797.24384	0.41796
1795.31547	0.41059
1793.38710	0.40207
1791.45872	0.39274
1789.53035	0.38417
1787.60198	0.37589
1785.67360	0.36670
1783.74523	0.35693
1781.81686	0.34713
1779.88848	0.33720
1777.96011	0.32749
1776.03174	0.31812
1774.10336	0.30802
1772.17499	0.29645
1770.24662	0.28513
1768.31824	0.27481
1766.38987	0.26420
1764.46150	0.25304
1762.53312	0.24008
1760.60475	0.22528
1758.67638	0.21045
1756.74800	0.19433
1754.81963	0.17736
1752.89126	0.16027
1750.96288	0.14082
1749.03451	0.11979
1747.10614	0.10039
1745.17777	0.08257
1743.24939	0.06580
1741.32102	0.05032
1739.39265	0.03657
1737.46427	0.02635
1735.53590	0.01877
1733.60753	0.01173
1731.67915	0.00688
1729.75078	0.00430
1727.82241	0.00263
1725.89403	0.00150
1723.96566	0.00082
1722.03729	0.00070
1720.10891	0.00080
1718.18054	0.00101
1716.25217	0.00116
1714.32379	0.00105
1712.39542	0.00089
1710.46705	0.00080
1708.53867	0.00076
1706.61030	0.00079
1704.68193	0.00099
1702.75355	0.00134
1700.82518	0.00166
1698.89681	0.00172
1696.96843	0.00149
1695.04006	0.00115
1693.11169	0.00090
1691.18331	0.00083
1689.25494	0.00086
1687.32657	0.00093
1685.39820	0.00112
1683.46982	0.00123
1681.54145	0.00098
1679.61308	0.00069
1677.68470	0.00070
1675.75633	0.00093
1673.82796	0.00107
1671.89958	0.00106
1669.97121	0.00101
1668.04284	0.00088
1666.11446	0.00079
1664.18609	0.00087
1662.25772	0.00095
1660.32934	0.00090
1658.40097	0.00079
1656.47260	0.00074
1654.54422	0.00085
1652.61585	0.00108
1650.68748	0.00111
1648.75910	0.00114
1646.83073	0.00126
1644.90236	0.00124
1642.97398	0.00107
1641.04561	0.00094
1639.11724	0.00092
1637.18886	0.00105
1635.26049	0.00109
1633.33212	0.00091
1631.40375	0.00082
1629.47537	0.00085
1627.54700	0.00089
1625.61863	0.00085
1623.69025	0.00082
1621.76188	0.00082
1619.83351	0.00079
1617.90513	0.00085
1615.97676	0.00091
1614.04839	0.00083
1612.12001	0.00079
1610.19164	0.00084
1608.26327	0.00083
1606.33489	0.00076
1604.40652	0.00072
1602.47815	0.00070
1600.54977	0.00072
1598.62140	0.00081
1596.69303	0.00092
1594.76465	0.00102
1592.83628	0.00109
1590.90791	0.00104
1588.97953	0.00090
1587.05116	0.00082
1585.12279	0.00080
1583.19441	0.00080
1581.26604	0.00081
1579.33767	0.00089
1577.40929	0.00108
1575.48092	0.00114
1573.55255	0.00100
1571.62418	0.00093
1569.69580	0.00099
1567.76743	0.00106
1565.83906	0.00098
1563.91068	0.00085
1561.98231	0.00094
1560.05394	0.00130
1558.12556	0.00146
1556.19719	0.00113
1554.26882	0.00088
1552.34044	0.00087
1550.41207	0.00095
1548.48370	0.00102
1546.55532	0.00115
1544.62695	0.00141
1542.69858	0.00169
1540.77020	0.00184
1538.84183	0.00161
1536.91346	0.00130
1534.98508	0.00116
1533.05671	0.00109
1531.12834	0.00106
1529.19996	0.00115
1527.27159	0.00133
1525.34322	0.00144
1523.41484	0.00144
1521.48647	0.00141
1519.55810	0.00136
1517.62972	0.00133
1515.70135	0.00134
1513.77298	0.00136
1511.84461	0.00145
1509.91623	0.00168
1507.98786	0.00194
1506.05949	0.00177
1504.13111	0.00136
1502.20274	0.00120
1500.27437	0.00124
1498.34599	0.00130
1496.41762	0.00126
1494.48925	0.00110
1492.56087	0.00111
1490.63250	0.00122
1488.70413	0.00114
1486.77575	0.00101
1484.84738	0.00113
1482.91901	0.00128
1480.99063	0.00124
1479.06226	0.00116
1477.13389	0.00125
1475.20551	0.00154
1473.27714	0.00176
1471.34877	0.00162
1469.42039	0.00137
1467.49202	0.00131
1465.56365	0.00138
1463.63527	0.00139
1461.70690	0.00144
1459.77853	0.00169
1457.85016	0.00199
1455.92178	0.00184
1453.99341	0.00141
1452.06504	0.00121
1450.13666	0.00127
1448.20829	0.00144
1446.27992	0.00149
1444.35154	0.00142
1442.42317	0.00136
1440.49480	0.00143
1438.56642	0.00161
1436.63805	0.00170
1434.70968	0.00157
1432.78130	0.00147
1430.85293	0.00148
1428.92456	0.00153
1426.99618	0.00150
1425.06781	0.00147
1423.13944	0.00148
1421.21106	0.00147
1419.28269	0.00143
1417.35432	0.00143
1415.42594	0.00142
1413.49757	0.00136
1411.56920	0.00136
1409.64082	0.00134
1407.71245	0.00124
1405.78408	0.00119
1403.85570	0.00130
1401.92733	0.00137
1399.99896	0.00137
1398.07059	0.00146
1396.14221	0.00154
1394.21384	0.00150
1392.28547	0.00142
1390.35709	0.00140
1388.42872	0.00146
1386.50035	0.00153
1384.57197	0.00148
1382.64360	0.00138
1380.71523	0.00133
1378.78685	0.00138
1376.85848	0.00149
1374.93011	0.00150
1373.00173	0.00151
1371.07336	0.00168
1369.14499	0.00185
1367.21661	0.00182
1365.28824	0.00174
1363.35987	0.00185
1361.43149	0.00197
1359.50312	0.00191
1357.57475	0.00175
1355.64637	0.00166
1353.71800	0.00159
1351.78963	0.00148
1349.86125	0.00140
1347.93288	0.00135
1346.00451	0.00131
1344.07614	0.00127
1342.14776	0.00129
1340.21939	0.00144
1338.29102	0.00159
1336.36264	0.00159
1334.43427	0.00151
1332.50590	0.00151
1330.57752	0.00158
1328.64915	0.00156
1326.72078	0.00149
1324.79240	0.00155
1322.86403	0.00164
1320.93566	0.00158
1319.00728	0.00151
1317.07891	0.00164
1315.15054	0.00183
1313.22216	0.00192
1311.29379	0.00190
1309.36542	0.00186
1307.43704	0.00189
1305.50867	0.00190
1303.58030	0.00187
1301.65192	0.00191
1299.72355	0.00209
1297.79518	0.00225
1295.86680	0.00220
1293.93843	0.00210
1292.01006	0.00206
1290.08168	0.00201
1288.15331	0.00200
1286.22494	0.00202
1284.29657	0.00202
1282.36819	0.00205
1280.43982	0.00217
1278.51145	0.00227
1276.58307	0.00230
1274.65470	0.00234
1272.72633	0.00236
1270.79795	0.00244
1268.86958	0.00269
1266.94121	0.00285
1265.01283	0.00272
1263.08446	0.00244
1261.15609	0.00228
1259.22771	0.00220
1257.29934	0.00212
1255.37097	0.00210
1253.44259	0.00205
1251.51422	0.00194
1249.58585	0.00196
1247.65747	0.00224
1245.72910	0.00256
1243.80073	0.00261
1241.87235	0.00249
1239.94398	0.00244
1238.01561	0.00241
1236.08723	0.00242
1234.15886	0.00258
1232.23049	0.00282
1230.30212	0.00289
1228.37374	0.00295
1226.44537	0.00327
1224.51700	0.00349
1222.58862	0.00341
1220.66025	0.00349
1218.73188	0.00364
1216.80350	0.00335
1214.87513	0.00287
1212.94676	0.00288
1211.01838	0.00344
1209.09001	0.00388
1207.16164	0.00374
1205.23326	0.00331
1203.30489	0.00310
1201.37652	0.00332
1199.44814	0.00376
1197.51977	0.00391
1195.59140	0.00374
1193.66302	0.00357
1191.73465	0.00336
1189.80628	0.00307
1187.87790	0.00301
1185.94953	0.00336
1184.02116	0.00390
1182.09278	0.00423
1180.16441	0.00410
1178.23604	0.00384
1176.30766	0.00382
1174.37929	0.00387
1172.45092	0.00386
1170.52255	0.00392
1168.59417	0.00395
1166.66580	0.00382
1164.73743	0.00359
1162.80905	0.00337
1160.88068	0.00334
1158.95231	0.00354
1157.02393	0.00372
1155.09556	0.00382
1153.16719	0.00394
1151.23881	0.00401
1149.31044	0.00402
1147.38207	0.00407
1145.45369	0.00416
1143.52532	0.00403
1141.59695	0.00358
1139.66857	0.00311
1137.74020	0.00282
1135.81183	0.00275
1133.88345	0.00303
1131.95508	0.00351
1130.02671	0.00382
1128.09833	0.00392
1126.16996	0.00380
1124.24159	0.00353
1122.31321	0.00332
1120.38484	0.00327
1118.45647	0.00345
1116.52809	0.00373
1114.59972	0.00390
1112.67135	0.00390
1110.74298	0.00384
1108.81460	0.00371
1106.88623	0.00366
1104.95786	0.00386
1103.02948	0.00402
1101.10111	0.00400
1099.17274	0.00396
1097.24436	0.00389
1095.31599	0.00375
1093.38762	0.00378
1091.45924	0.00395
1089.53087	0.00404
1087.60250	0.00393
1085.67412	0.00364
1083.74575	0.00351
1081.81738	0.00364
1079.88900	0.00380
1077.96063	0.00391
1076.03226	0.00407
1074.10388	0.00420
1072.17551	0.00404
1070.24714	0.00377
1068.31876	0.00367
1066.39039	0.00365
1064.46202	0.00365
1062.53364	0.00373
1060.60527	0.00384
1058.67690	0.00414
1056.74853	0.00437
1054.82015	0.00408
1052.89178	0.00364
1050.96341	0.00358
1049.03503	0.00369
1047.10666	0.00359
1045.17829	0.00340
1043.24991	0.00350
1041.32154	0.00401
1039.39317	0.00435
1037.46479	0.00423
1035.53642	0.00418
1033.60805	0.00431
1031.67967	0.00437
1029.75130	0.00427
1027.82293	0.00412
1025.89455	0.00402
1023.96618	0.00394
1022.03781	0.00375
1020.10943	0.00367
1018.18106	0.00359
1016.25269	0.00331
1014.32431	0.00305
1012.39594	0.00299
1010.46757	0.00298
1008.53919	0.00295
1006.61082	0.00299
1004.68245	0.00308
1002.75407	0.00311
1000.82570	0.00312
998.89733	0.00325
996.96896	0.00338
995.04058	0.00323
993.11221	0.00301
991.18384	0.00320
989.25546	0.00380
987.32709	0.00466
985.39872	0.00558
983.47034	0.00612
981.54197	0.00607
979.61360	0.00551
977.68522	0.00486
975.75685	0.00460
973.82848	0.00504
971.90010	0.00656
969.97173	0.00928
968.04336	0.01274
966.11498	0.01616
964.18661	0.01830
962.25824	0.01762
960.32986	0.01371
958.40149	0.00856
956.47312	0.00504
954.54474	0.00381
952.61637	0.00374
950.68800	0.00445
948.75962	0.00604
946.83125	0.00827
944.90288	0.01062
942.97451	0.01318
941.04613	0.01670
939.11776	0.02172
937.18939	0.02789
935.26101	0.03416
933.33264	0.03965
931.40427	0.04392
929.47589	0.04680
927.54752	0.04786
925.61915	0.04709
923.69077	0.04564
921.76240	0.04474
919.83403	0.04544
917.90565	0.04860
915.97728	0.05355
914.04891	0.05795
912.12053	0.05973
910.19216	0.05802
908.26379	0.05294
906.33541	0.04563
904.40704	0.03794
902.47867	0.03156
900.55029	0.02745
898.62192	0.02562
896.69355	0.02549
894.76517	0.02683
892.83680	0.02965
890.90843	0.03362
888.98005	0.03788
887.05168	0.04096
885.12331	0.04276
883.19494	0.04602
881.26656	0.05295
879.33819	0.06176
877.40982	0.06903
875.48144	0.07353
873.55307	0.07594
871.62470	0.07709
869.69632	0.07753
867.76795	0.07739
865.83958	0.07654
863.91120	0.07485
861.98283	0.07218
860.05446	0.06866
858.12608	0.06499
856.19771	0.06182
854.26934	0.05905
852.34096	0.05644
850.41259	0.05437
848.48422	0.05308
846.55584	0.05220
844.62747	0.05088
842.69910	0.04892
840.77072	0.04721
838.84235	0.04628
836.91398	0.04586
834.98560	0.04575
833.05723	0.04574
831.12886	0.04546
829.20049	0.04486
827.27211	0.04381
825.34374	0.04226
823.41537	0.04091
821.48699	0.04023
819.55862	0.03982
817.63025	0.03927
815.70187	0.03882
813.77350	0.03851
811.84513	0.03766
809.91675	0.03608
807.98838	0.03458
806.06001	0.03370
804.13163	0.03314
802.20326	0.03231
800.27489	0.03088
798.34651	0.02904
796.41814	0.02715
794.48977	0.02485
792.56139	0.02177
790.63302	0.01860
788.70465	0.01603
786.77627	0.01371
784.84790	0.01139
782.91953	0.00964
780.99115	0.00842
779.06278	0.00727
777.13441	0.00629
775.20603	0.00563
773.27766	0.00528
771.34929	0.00540
769.42092	0.00573
767.49254	0.00586
765.56417	0.00581
763.63580	0.00567
761.70742	0.00558
759.77905	0.00570
757.85068	0.00592
755.92230	0.00591
753.99393	0.00556
752.06556	0.00524
750.13718	0.00508
748.20881	0.00534
746.28044	0.00575
744.35206	0.00562
742.42369	0.00514
740.49532	0.00504
738.56694	0.00531
736.63857	0.00541
734.71020	0.00530
732.78182	0.00531
730.85345	0.00570
728.92508	0.00622
726.99670	0.00615
725.06833	0.00566
723.13996	0.00551
721.21158	0.00575
719.28321	0.00582
717.35484	0.00560
715.42647	0.00555
713.49809	0.00578
711.56972	0.00585
709.64135	0.00576
707.71297	0.00587
705.78460	0.00617
703.85623	0.00658
701.92785	0.00710
699.99948	0.00770
698.07111	0.00841
696.14273	0.00908
694.21436	0.00921
692.28599	0.00866
690.35761	0.00815
688.42924	0.00821
686.50087	0.00862
684.57249	0.00907
682.64412	0.00953
680.71575	0.00982
678.78737	0.00982
676.85900	0.00953
674.93063	0.00914
673.00225	0.00899
671.07388	0.01019
669.14551	0.01333
667.21713	0.01436
665.28876	0.01222
663.36039	0.01117
661.43201	0.01164
659.50364	0.01242
657.57527	0.01227
655.64690	0.01120
653.71852	0.01027
651.79015	0.01019
649.86178	0.01082
647.93340	0.01123
646.00503	0.01114
644.07666	0.01143
642.14828	0.01280
640.21991	0.01466
638.29154	0.01563
636.36316	0.01499
634.43479	0.01373
632.50642	0.01306
630.57804	0.01333
628.64967	0.01469
626.72130	0.01645
624.79292	0.01761
622.86455	0.01834
620.93618	0.01938
619.00780	0.02050
617.07943	0.02064
615.15106	0.02015
613.22268	0.01962
611.29431	0.01847
609.36594	0.01802
607.43756	0.02040
605.50919	0.02419
603.58082	0.02698
601.65244	0.02857
599.72407	0.02982
