3997.51769	0.52364
3995.58931	0.52463
3993.66094	0.52596
3991.73257	0.52751
3989.80419	0.52913
3987.87582	0.53100
3985.94745	0.53321
3984.01907	0.53530
3982.09070	0.53698
3980.16233	0.53845
3978.23396	0.53991
3976.30558	0.54136
3974.37721	0.54255
3972.44884	0.54351
3970.52046	0.54467
3968.59209	0.54619
3966.66372	0.54778
3964.73534	0.54915
3962.80697	0.55016
3960.87860	0.55094
3958.95022	0.55189
3957.02185	0.55317
3955.09348	0.55461
3953.16510	0.55608
3951.23673	0.55741
3949.30836	0.55853
3947.37998	0.55950
3945.45161	0.56055
3943.52324	0.56157
3941.59486	0.56239
3939.66649	0.56337
3937.73812	0.56444
3935.80974	0.56533
3933.88137	0.56605
3931.95300	0.56645
3930.02462	0.56672
3928.09625	0.56761
3926.16788	0.56911
3924.23950	0.57048
3922.31113	0.57166
3920.38276	0.57291
3918.45439	0.57390
3916.52601	0.57451
3914.59764	0.57531
3912.66927	0.57660
3910.74089	0.57809
3908.81252	0.57978
3906.88415	0.58181
3904.95577	0.58366
3903.02740	0.58474
3901.09903	0.58531
3899.17065	0.58554
3897.24228	0.58603
3895.31391	0.58778
3893.38553	0.59017
3891.45716	0.59145
3889.52879	0.59195
3887.60041	0.59341
3885.67204	0.59459
3883.74367	0.59478
3881.81529	0.59591
3879.88692	0.59731
3877.95855	0.59836
3876.03017	0.59989
3874.10180	0.60143
3872.17343	0.60313
3870.24505	0.60463
3868.31668	0.60511
3866.38831	0.60598
3864.45994	0.60704
3862.53156	0.60736
3860.60319	0.60817
3858.67482	0.61025
3856.74644	0.61388
3854.81807	0.61823
3852.88970	0.61727
3850.96132	0.61217
3849.03295	0.61081
3847.10458	0.61209
3845.17620	0.61374
3843.24783	0.61498
3841.31946	0.61617
3839.39108	0.61766
3837.46271	0.61799
3835.53434	0.61710
3833.60596	0.61676
3831.67759	0.61667
3829.74922	0.61664
3827.82084	0.61716
3825.89247	0.61791
3823.96410	0.61934
3822.03572	0.62060
3820.10735	0.62005
3818.17898	0.62038
3816.25060	0.62116
3814.32223	0.62002
3812.39386	0.61957
3810.46548	0.62094
3808.53711	0.62237
3806.60874	0.62222
3804.68037	0.62213
3802.75199	0.62320
3800.82362	0.62231
3798.89525	0.62021
3796.96687	0.61956
3795.03850	0.61934
3793.11013	0.61947
3791.18175	0.61992
3789.25338	0.61998
3787.32501	0.61967
3785.39663	0.61902
3783.46826	0.61862
3781.53989	0.61900
3779.61151	0.61896
3777.68314	0.61810
3775.75477	0.61761
3773.82639	0.61774
3771.89802	0.61782
3769.96965	0.61718
3768.04127	0.61610
3766.11290	0.61527
3764.18453	0.61457
3762.25615	0.61433
3760.32778	0.61414
3758.39941	0.61293
3756.47103	0.61210
3754.54266	0.61295
3752.61429	0.61442
3750.68591	0.61337
3748.75754	0.61046
3746.82917	0.61034
3744.90080	0.61022
3742.97242	0.60587
3741.04405	0.60238
3739.11568	0.60198
3737.18730	0.60151
3735.25893	0.59917
3733.33056	0.59638
3731.40218	0.59409
3729.47381	0.59243
3727.54544	0.59091
3725.61706	0.58880
3723.68869	0.58667
3721.76032	0.58489
3719.83194	0.58287
3717.90357	0.58085
3715.97520	0.57945
3714.04682	0.57821
3712.11845	0.57510
3710.19008	0.56942
3708.26170	0.56442
3706.33333	0.56102
3704.40496	0.55777
3702.47658	0.55304
3700.54821	0.54659
3698.61984	0.54055
3696.69146	0.53490
3694.76309	0.52876
3692.83472	0.52226
3690.90635	0.51429
3688.97797	0.50270
3687.04960	0.48929
3685.12123	0.47782
3683.19285	0.46698
3681.26448	0.45463
3679.33611	0.44174
3677.40773	0.42872
3675.47936	0.41141
3673.55099	0.39308
3671.62261	0.37913
3669.69424	0.36255
3667.76587	0.34361
3665.83749	0.32801
3663.90912	0.31340
3661.98075	0.29818
3660.05237	0.28318
3658.12400	0.26837
3656.19563	0.25197
3654.26725	0.23637
3652.33888	0.22409
3650.41051	0.21076
3648.48213	0.19391
3646.55376	0.17896
3644.62539	0.16789
3642.69701	0.15801
3640.76864	0.14781
3638.84027	0.13761
3636.91189	0.12796
3634.98352	0.11886
3633.05515	0.11044
3631.12678	0.10292
3629.19840	0.09432
3627.27003	0.08505
3625.34166	0.07859
3623.41328	0.07360
3621.48491	0.06842
3619.55654	0.06268
3617.62816	0.05694
3615.69979	0.05209
3613.77142	0.04779
3611.84304	0.04366
3609.91467	0.03976
3607.98630	0.03612
3606.05792	0.03277
3604.12955	0.02981
3602.20118	0.02722
3600.27280	0.02497
3598.34443	0.02280
3596.41606	0.02050
3594.48768	0.01837
3592.55931	0.01657
3590.63094	0.01493
3588.70256	0.01325
3586.77419	0.01175
3584.84582	0.01061
3582.91744	0.00953
3580.98907	0.00847
3579.06070	0.00740
3577.13233	0.00628
3575.20395	0.00531
3573.27558	0.00472
3571.34721	0.00432
3569.41883	0.00384
3567.49046	0.00325
3565.56209	0.00255
3563.63371	0.00194
3561.70534	0.00163
3559.77697	0.00159
3557.84859	0.00156
3555.92022	0.00140
3553.99185	0.00114
3552.06347	0.00084
3550.13510	0.00046
3548.20673	0.00045
3546.27835	0.00070
3544.34998	0.00073
3542.42161	0.00053
3540.49323	0.00043
3538.56486	0.00060
3536.63649	0.00093
3534.70811	0.00083
3532.77974	0.00072
3530.85137	0.00099
3528.92299	0.00121
3526.99462	0.00115
3525.06625	0.00094
3523.13787	0.00075
3521.20950	0.00062
3519.28113	0.00062
3517.35276	0.00075
3515.42438	0.00092
3513.49601	0.00099
3511.56764	0.00099
3509.63926	0.00097
3507.71089	0.00094
3505.78252	0.00085
3503.85414	0.00071
3501.92577	0.00059
3499.99740	0.00075
3498.06902	0.00089
3496.14065	0.00095
3494.21228	0.00102
3492.28390	0.00100
3490.35553	0.00090
3488.42716	0.00101
3486.49878	0.00112
3484.57041	0.00106
3482.64204	0.00088
3480.71366	0.00074
3478.78529	0.00073
3476.85692	0.00078
3474.92854	0.00081
3473.00017	0.00075
3471.07180	0.00074
3469.14342	0.00080
3467.21505	0.00085
3465.28668	0.00103
3463.35831	0.00124
3461.42993	0.00118
3459.50156	0.00112
3457.57319	0.00131
3455.64481	0.00134
3453.71644	0.00125
3451.78807	0.00119
3449.85969	0.00109
3447.93132	0.00092
3446.00295	0.00083
3444.07457	0.00075
3442.14620	0.00056
3440.21783	0.00051
3438.28945	0.00062
3436.36108	0.00060
3434.43271	0.00056
3432.50433	0.00057
3430.57596	0.00052
3428.64759	0.00051
3426.71921	0.00058
3424.79084	0.00079
3422.86247	0.00094
3420.93409	0.00093
3419.00572	0.00083
3417.07735	0.00074
3415.14897	0.00068
3413.22060	0.00076
3411.29223	0.00097
3409.36385	0.00105
3407.43548	0.00081
3405.50711	0.00068
3403.57874	0.00071
3401.65036	0.00074
3399.72199	0.00099
3397.79362	0.00113
3395.86524	0.00107
3393.93687	0.00098
3392.00850	0.00084
3390.08012	0.00067
3388.15175	0.00061
3386.22338	0.00058
3384.29500	0.00054
3382.36663	0.00058
3380.43826	0.00065
3378.50988	0.00074
3376.58151	0.00080
3374.65314	0.00081
3372.72476	0.00080
3370.79639	0.00083
3368.86802	0.00092
3366.93964	0.00095
3365.01127	0.00079
3363.08290	0.00076
3361.15452	0.00086
3359.22615	0.00095
3357.29778	0.00108
3355.36940	0.00117
3353.44103	0.00100
3351.51266	0.00069
3349.58428	0.00058
3347.65591	0.00063
3345.72754	0.00062
3343.79917	0.00067
3341.87079	0.00079
3339.94242	0.00088
3338.01405	0.00087
3336.08567	0.00090
3334.15730	0.00085
3332.22893	0.00074
3330.30055	0.00079
3328.37218	0.00089
3326.44381	0.00103
3324.51543	0.00105
3322.58706	0.00088
3320.65869	0.00075
3318.73031	0.00068
3316.80194	0.00063
3314.87357	0.00062
3312.94519	0.00050
3311.01682	0.00078
3309.08845	0.00100
3307.16007	0.00098
3305.23170	0.00085
3303.30333	0.00084
3301.37495	0.00087
3299.44658	0.00089
3297.51821	0.00095
3295.58983	0.00105
3293.66146	0.00121
3291.73309	0.00136
3289.80472	0.00132
3287.87634	0.00121
3285.94797	0.00113
3284.01960	0.00097
3282.09122	0.00087
3280.16285	0.00092
3278.23448	0.00095
3276.30610	0.00104
3274.37773	0.00106
3272.44936	0.00102
3270.52098	0.00111
3268.59261	0.00123
3266.66424	0.00129
3264.73586	0.00111
3262.80749	0.00078
3260.87912	0.00064
3258.95074	0.00063
3257.02237	0.00067
3255.09400	0.00080
3253.16562	0.00094
3251.23725	0.00087
3249.30888	0.00080
3247.38050	0.00089
3245.45213	0.00089
3243.52376	0.00076
3241.59538	0.00072
3239.66701	0.00084
3237.73864	0.00103
3235.81026	0.00109
3233.88189	0.00104
3231.95352	0.00104
3230.02515	0.00113
3228.09677	0.00119
3226.16840	0.00115
3224.24003	0.00100
3222.31165	0.00083
3220.38328	0.00062
3218.45491	0.00044
3216.52653	0.00051
3214.59816	0.00062
3212.66979	0.00061
3210.74141	0.00070
3208.81304	0.00074
3206.88467	0.00064
3204.95629	0.00081
3203.02792	0.00086
3201.09955	0.00083
3199.17117	0.00079
3197.24280	0.00075
3195.31443	0.00079
3193.38605	0.00079
3191.45768	0.00071
3189.52931	0.00066
3187.60093	0.00066
3185.67256	0.00075
3183.74419	0.00078
3181.81581	0.00073
3179.88744	0.00063
3177.95907	0.00062
3176.03070	0.00071
3174.10232	0.00073
3172.17395	0.00076
3170.24558	0.00084
3168.31720	0.00073
3166.38883	0.00048
3164.46046	0.00040
3162.53208	0.00060
3160.60371	0.00080
3158.67534	0.00086
3156.74696	0.00090
3154.81859	0.00082
3152.89022	0.00065
3150.96184	0.00055
3149.03347	0.00050
3147.10510	0.00042
3145.17672	0.00038
3143.24835	0.00045
3141.31998	0.00062
3139.39160	0.00073
3137.46323	0.00071
3135.53486	0.00062
3133.60648	0.00067
3131.67811	0.00090
3129.74974	0.00102
3127.82136	0.00087
3125.89299	0.00062
3123.96462	0.00050
3122.03624	0.00049
3120.10787	0.00063
3118.17950	0.00077
3116.25113	0.00079
3114.32275	0.00081
3112.39438	0.00087
3110.46601	0.00087
3108.53763	0.00073
3106.60926	0.00057
3104.68089	0.00050
3102.75251	0.00057
3100.82414	0.00076
3098.89577	0.00083
3096.96739	0.00080
3095.03902	0.00090
3093.11065	0.00104
3091.18227	0.00102
3089.25390	0.00084
3087.32553	0.00060
3085.39715	0.00045
3083.46878	0.00048
3081.54041	0.00063
3079.61203	0.00059
3077.68366	0.00054
3075.75529	0.00057
3073.82691	0.00061
3071.89854	0.00063
3069.97017	0.00061
3068.04179	0.00062
3066.11342	0.00060
3064.18505	0.00065
3062.25668	0.00075
3060.32830	0.00078
3058.39993	0.00074
3056.47156	0.00072
3054.54318	0.00078
3052.61481	0.00089
3050.68644	0.00097
3048.75806	0.00095
3046.82969	0.00098
3044.90132	0.00117
3042.97294	0.00142
3041.04457	0.00157
3039.11620	0.00166
3037.18782	0.00166
3035.25945	0.00149
3033.33108	0.00137
3031.40270	0.00152
3029.47433	0.00184
3027.54596	0.00203
3025.61758	0.00205
3023.68921	0.00209
3021.76084	0.00224
3019.83246	0.00248
3017.90409	0.00268
3015.97572	0.00282
3014.04734	0.00298
3012.11897	0.00291
3010.19060	0.00251
3008.26222	0.00214
3006.33385	0.00195
3004.40548	0.00198
3002.47711	0.00216
3000.54873	0.00217
2998.62036	0.00202
2996.69199	0.00181
2994.76361	0.00160
2992.83524	0.00143
2990.90687	0.00133
2988.97849	0.00127
2987.05012	0.00110
2985.12175	0.00072
2983.19337	0.00044
2981.26500	0.00060
2979.33663	0.00059
2977.40825	0.00055
2975.47988	0.00076
2973.55151	0.00109
2971.62313	0.00130
2969.69476	0.00133
2967.76639	0.00118
2965.83801	0.00115
2963.90964	0.00129
2961.98127	0.00120
2960.05289	0.00098
2958.12452	0.00111
2956.19615	0.00133
2954.26777	0.00110
2952.33940	0.00077
2950.41103	0.00070
2948.48266	0.00088
2946.55428	0.00110
2944.62591	0.00122
2942.69754	0.00121
2940.76916	0.00112
2938.84079	0.00108
2936.91242	0.00116
2934.98404	0.00125
2933.05567	0.00122
2931.12730	0.00117
2929.19892	0.00122
2927.27055	0.00118
2925.34218	0.00117
2923.41380	0.00098
2921.48543	0.00067
2919.55706	0.00058
2917.62868	0.00053
2915.70031	0.00048
2913.77194	0.00059
2911.84356	0.00079
2909.91519	0.00085
2907.98682	0.00078
2906.05844	0.00072
2904.13007	0.00065
2902.20170	0.00066
2900.27332	0.00065
2898.34495	0.00061
2896.41658	0.00058
2894.48820	0.00073
2892.55983	0.00067
2890.63146	0.00045
2888.70309	0.00040
2886.77471	0.00060
2884.84634	0.00080
2882.91797	0.00083
2880.98959	0.00079
2879.06122	0.00072
2877.13285	0.00072
2875.20447	0.00078
2873.27610	0.00083
2871.34773	0.00080
2869.41935	0.00081
2867.49098	0.00077
2865.56261	0.00070
2863.63423	0.00078
2861.70586	0.00106
2859.77749	0.00129
2857.84911	0.00137
2855.92074	0.00140
2853.99237	0.00158
2852.06399	0.00213
2850.13562	0.00293
2848.20725	0.00380
2846.27887	0.00470
2844.35050	0.00553
2842.42213	0.00620
2840.49375	0.00684
2838.56538	0.00761
2836.63701	0.00836
2834.70863	0.00899
2832.78026	0.00967
2830.85189	0.01051
2828.92352	0.01141
2826.99514	0.01230
2825.06677	0.01307
2823.13840	0.01378
2821.21002	0.01455
2819.28165	0.01535
2817.35328	0.01623
2815.42490	0.01726
2813.49653	0.01832
2811.56816	0.01933
2809.63978	0.02032
2807.71141	0.02135
2805.78304	0.02241
2803.85466	0.02345
2801.92629	0.02462
2799.99792	0.02604
2798.06954	0.02744
2796.14117	0.02862
2794.21280	0.02974
2792.28442	0.03093
2790.35605	0.03215
2788.42768	0.03340
2786.49930	0.03458
2784.57093	0.03561
2782.64256	0.03653
2780.71418	0.03736
2778.78581	0.03812
2776.85744	0.03885
2774.92907	0.03961
2773.00069	0.04041
2771.07232	0.04115
2769.14395	0.04193
2767.21557	0.04290
2765.28720	0.04398
2763.35883	0.04501
2761.43045	0.04598
2759.50208	0.04697
2757.57371	0.04797
2755.64533	0.04896
2753.71696	0.04994
2751.78859	0.05100
2749.86021	0.05215
2747.93184	0.05321
2746.00347	0.05404
2744.07509	0.05469
2742.14672	0.05535
2740.21835	0.05613
2738.28997	0.05700
2736.36160	0.05786
2734.43323	0.05856
2732.50485	0.05916
2730.57648	0.05992
2728.64811	0.06078
2726.71973	0.06159
2724.79136	0.06242
2722.86299	0.06326
2720.93461	0.06407
2719.00624	0.06498
2717.07787	0.06608
2715.14950	0.06737
2713.22112	0.06872
2711.29275	0.06998
2709.36438	0.07118
2707.43600	0.07243
2705.50763	0.07372
2703.57926	0.07500
2701.65088	0.07630
2699.72251	0.07765
2697.79414	0.07895
2695.86576	0.08017
2693.93739	0.08135
2692.00902	0.08249
2690.08064	0.08366
2688.15227	0.08488
2686.22390	0.08606
2684.29552	0.08719
2682.36715	0.08836
2680.43878	0.08958
2678.51040	0.09085
2676.58203	0.09216
2674.65366	0.09354
2672.72528	0.09488
2670.79691	0.09605
2668.86854	0.09713
2666.94016	0.09828
2665.01179	0.09941
2663.08342	0.10047
2661.15505	0.10149
2659.22667	0.10248
2657.29830	0.10334
2655.36993	0.10408
2653.44155	0.10475
2651.51318	0.10537
2649.58481	0.10589
2647.65643	0.10636
2645.72806	0.10694
2643.79969	0.10762
2641.87131	0.10820
2639.94294	0.10863
2638.01457	0.10900
2636.08619	0.10944
2634.15782	0.11009
2632.22945	0.11089
2630.30107	0.11166
2628.37270	0.11243
2626.44433	0.11325
2624.51595	0.11409
2622.58758	0.11490
2620.65921	0.11563
2618.73083	0.11645
2616.80246	0.11748
2614.87409	0.11866
2612.94571	0.11984
2611.01734	0.12099
2609.08897	0.12213
2607.16059	0.12326
2605.23222	0.12439
2603.30385	0.12550
2601.37548	0.12653
2599.44710	0.12750
2597.51873	0.12845
2595.59036	0.12925
2593.66198	0.12979
2591.73361	0.13025
2589.80524	0.13087
2587.87686	0.13166
2585.94849	0.13248
2584.02012	0.13326
2582.09174	0.13411
2580.16337	0.13510
2578.23500	0.13615
2576.30662	0.13730
2574.37825	0.13857
2572.44988	0.13995
2570.52150	0.14155
2568.59313	0.14341
2566.66476	0.14536
2564.73638	0.14739
2562.80801	0.14959
2560.87964	0.15187
2558.95126	0.15415
2557.02289	0.15644
2555.09452	0.15867
2553.16614	0.16081
2551.23777	0.16280
2549.30940	0.16455
2547.38103	0.16610
2545.45265	0.16749
2543.52428	0.16869
2541.59591	0.16960
2539.66753	0.17026
2537.73916	0.17087
2535.81079	0.17159
2533.88241	0.17241
2531.95404	0.17326
2530.02567	0.17415
2528.09729	0.17510
2526.16892	0.17611
2524.24055	0.17719
2522.31217	0.17833
2520.38380	0.17954
2518.45543	0.18089
2516.52705	0.18236
2514.59868	0.18383
2512.67031	0.18512
2510.74193	0.18636
2508.81356	0.18779
2506.88519	0.18938
2504.95681	0.19092
2503.02844	0.19230
2501.10007	0.19365
2499.17169	0.19512
2497.24332	0.19668
2495.31495	0.19831
2493.38657	0.20010
2491.45820	0.20196
2489.52983	0.20376
2487.60146	0.20556
2485.67308	0.20743
2483.74471	0.20930
2481.81634	0.21110
2479.88796	0.21288
2477.95959	0.21465
2476.03122	0.21639
2474.10284	0.21816
2472.17447	0.21991
2470.24610	0.22157
2468.31772	0.22321
2466.38935	0.22494
2464.46098	0.22672
2462.53260	0.22853
2460.60423	0.23036
2458.67586	0.23221
2456.74748	0.23403
2454.81911	0.23584
2452.89074	0.23773
2450.96236	0.23965
2449.03399	0.24138
2447.10562	0.24291
2445.17724	0.24443
2443.24887	0.24600
2441.32050	0.24764
2439.39212	0.24940
2437.46375	0.25120
2435.53538	0.25291
2433.60700	0.25449
2431.67863	0.25603
2429.75026	0.25756
2427.82189	0.25907
2425.89351	0.26051
2423.96514	0.26182
2422.03677	0.26302
2420.10839	0.26406
2418.18002	0.26495
2416.25165	0.26583
2414.32327	0.26683
2412.39490	0.26810
2410.46653	0.26963
2408.53815	0.27128
2406.60978	0.27297
2404.68141	0.27487
2402.75303	0.27693
2400.82466	0.27894
2398.89629	0.28089
2396.96791	0.28292
2395.03954	0.28507
2393.11117	0.28721
2391.18279	0.28913
2389.25442	0.29077
2387.32605	0.29218
2385.39767	0.29327
2383.46930	0.29390
2381.54093	0.29407
2379.61255	0.29383
2377.68418	0.29333
2375.75581	0.29268
2373.82744	0.29192
2371.89906	0.29101
2369.97069	0.28990
2368.04232	0.28870
2366.11394	0.28759
2364.18557	0.28668
2362.25720	0.28618
2360.32882	0.28676
2358.40045	0.28871
2356.47208	0.29114
2354.54370	0.29367
2352.61533	0.29690
2350.68696	0.30051
2348.75858	0.30313
2346.83021	0.30367
2344.90184	0.30217
2342.97346	0.30077
2341.04509	0.30101
2339.11672	0.30191
2337.18834	0.30283
2335.25997	0.30388
2333.33160	0.30492
2331.40322	0.30566
2329.47485	0.30645
2327.54648	0.30757
2325.61810	0.30873
2323.68973	0.31005
2321.76136	0.31204
2319.83298	0.31463
2317.90461	0.31749
2315.97624	0.32050
2314.04787	0.32343
2312.11949	0.32617
2310.19112	0.32894
2308.26275	0.33193
2306.33437	0.33508
2304.40600	0.33812
2302.47763	0.34076
2300.54925	0.34294
2298.62088	0.34486
2296.69251	0.34669
2294.76413	0.34844
2292.83576	0.35009
2290.90739	0.35164
2288.97901	0.35306
2287.05064	0.35431
2285.12227	0.35539
2283.19389	0.35622
2281.26552	0.35668
2279.33715	0.35684
2277.40877	0.35685
2275.48040	0.35684
2273.55203	0.35680
2271.62365	0.35669
2269.69528	0.35656
2267.76691	0.35643
2265.83853	0.35628
2263.91016	0.35613
2261.98179	0.35615
2260.05342	0.35641
2258.12504	0.35685
2256.19667	0.35747
2254.26830	0.35833
2252.33992	0.35938
2250.41155	0.36046
2248.48318	0.36153
2246.55480	0.36266
2244.62643	0.36386
2242.69806	0.36491
2240.76968	0.36568
2238.84131	0.36628
2236.91294	0.36682
2234.98456	0.36719
2233.05619	0.36742
2231.12782	0.36759
2229.19944	0.36772
2227.27107	0.36776
2225.34270	0.36778
2223.41432	0.36777
2221.48595	0.36750
2219.55758	0.36695
2217.62920	0.36631
2215.70083	0.36570
2213.77246	0.36506
2211.84408	0.36433
2209.91571	0.36347
2207.98734	0.36250
2206.05896	0.36146
2204.13059	0.36036
2202.20222	0.35925
2200.27385	0.35814
2198.34547	0.35705
2196.41710	0.35597
2194.48873	0.35488
2192.56035	0.35374
2190.63198	0.35262
2188.70361	0.35165
2186.77523	0.35085
2184.84686	0.35016
2182.91849	0.34949
2180.99011	0.34878
2179.06174	0.34804
2177.13337	0.34740
2175.20499	0.34677
2173.27662	0.34604
2171.34825	0.34529
2169.41987	0.34463
2167.49150	0.34400
2165.56313	0.34341
2163.63475	0.34293
2161.70638	0.34243
2159.77801	0.34187
2157.84963	0.34143
2155.92126	0.34124
2153.99289	0.34122
2152.06451	0.34125
2150.13614	0.34126
2148.20777	0.34128
2146.27940	0.34140
2144.35102	0.34158
2142.42265	0.34173
2140.49428	0.34188
2138.56590	0.34209
2136.63753	0.34225
2134.70916	0.34234
2132.78078	0.34252
2130.85241	0.34293
2128.92404	0.34348
2126.99566	0.34409
2125.06729	0.34479
2123.13892	0.34568
2121.21054	0.34676
2119.28217	0.34790
2117.35380	0.34907
2115.42542	0.35020
2113.49705	0.35131
2111.56868	0.35252
2109.64030	0.35375
2107.71193	0.35486
2105.78356	0.35582
2103.85518	0.35660
2101.92681	0.35718
2099.99844	0.35769
2098.07006	0.35821
2096.14169	0.35869
2094.21332	0.35906
2092.28494	0.35926
2090.35657	0.35933
2088.42820	0.35940
2086.49983	0.35945
2084.57145	0.35939
2082.64308	0.35924
2080.71471	0.35910
2078.78633	0.35900
2076.85796	0.35900
2074.92959	0.35911
2073.00121	0.35929
2071.07284	0.35961
2069.14447	0.36016
2067.21609	0.36091
2065.28772	0.36176
2063.35935	0.36268
2061.43097	0.36381
2059.50260	0.36530
2057.57423	0.36698
2055.64585	0.36868
2053.71748	0.37047
2051.78911	0.37239
2049.86073	0.37433
2047.93236	0.37615
2046.00399	0.37772
2044.07561	0.37911
2042.14724	0.38047
2040.21887	0.38189
2038.29049	0.38317
2036.36212	0.38416
2034.43375	0.38494
2032.50538	0.38565
2030.57700	0.38635
2028.64863	0.38700
2026.72026	0.38750
2024.79188	0.38795
2022.86351	0.38845
2020.93514	0.38894
2019.00676	0.38935
2017.07839	0.38986
2015.15002	0.39064
2013.22164	0.39159
2011.29327	0.39257
2009.36490	0.39359
2007.43652	0.39463
2005.50815	0.39569
2003.57978	0.39674
2001.65140	0.39768
1999.72303	0.39847
1997.79466	0.39916
1995.86628	0.39966
1993.93791	0.39978
1992.00954	0.39964
1990.08116	0.39962
1988.15279	0.39976
1986.22442	0.39991
1984.29604	0.40009
1982.36767	0.40018
1980.43930	0.40011
1978.51092	0.40004
1976.58255	0.40003
1974.65418	0.40005
1972.72581	0.40020
1970.79743	0.40047
1968.86906	0.40070
1966.94069	0.40091
1965.01231	0.40133
1963.08394	0.40194
1961.15557	0.40251
1959.22719	0.40305
1957.29882	0.40360
1955.37045	0.40423
1953.44207	0.40507
1951.51370	0.40614
1949.58533	0.40729
1947.65695	0.40844
1945.72858	0.40949
1943.80021	0.41040
1941.87183	0.41140
1939.94346	0.41269
1938.01509	0.41388
1936.08671	0.41467
1934.15834	0.41525
1932.22997	0.41588
1930.30159	0.41652
1928.37322	0.41700
1926.44485	0.41730
1924.51647	0.41746
1922.58810	0.41760
1920.65973	0.41784
1918.73135	0.41795
1916.80298	0.41804
1914.87461	0.41843
1912.94624	0.41877
1911.01786	0.41874
1909.08949	0.41844
1907.16112	0.41803
1905.23274	0.41752
1903.30437	0.41683
1901.37600	0.41595
1899.44762	0.41491
1897.51925	0.41376
1895.59088	0.41255
1893.66250	0.41153
1891.73413	0.41063
1889.80576	0.40970
1887.87738	0.40926
1885.94901	0.40949
1884.02064	0.40996
1882.09226	0.41037
1880.16389	0.41079
1878.23552	0.41139
1876.30714	0.41220
1874.37877	0.41299
1872.45040	0.41346
1870.52202	0.41333
1868.59365	0.41287
1866.66528	0.41296
1864.73690	0.41343
1862.80853	0.41348
1860.88016	0.41300
1858.95179	0.41230
1857.02341	0.41155
1855.09504	0.41061
1853.16667	0.40939
1851.23829	0.40798
1849.30992	0.40644
1847.38155	0.40471
1845.45317	0.40262
1843.52480	0.40053
1841.59643	0.39929
1839.66805	0.39841
1837.73968	0.39709
1835.81131	0.39545
1833.88293	0.39368
1831.95456	0.39148
1830.02619	0.38887
1828.09781	0.38665
1826.16944	0.38477
1824.24107	0.38261
1822.31269	0.38044
1820.38432	0.37801
1818.45595	0.37492
1816.52757	0.37148
1814.59920	0.36787
1812.67083	0.36385
1810.74245	0.35944
1808.81408	0.35513
1806.88571	0.35092
1804.95733	0.34642
1803.02896	0.34140
1801.10059	0.33578
1799.17222	0.33003
1797.24384	0.32442
1795.31547	0.31861
1793.38710	0.31163
1791.45872	0.30359
1789.53035	0.29655
1787.60198	0.29027
1785.67360	0.28319
1783.74523	0.27539
1781.81686	0.26746
1779.88848	0.25934
1777.96011	0.25145
1776.03174	0.24393
1774.10336	0.23576
1772.17499	0.22613
1770.24662	0.21684
1768.31824	0.20871
1766.38987	0.20042
1764.46150	0.19175
1762.53312	0.18158
1760.60475	0.16987
1758.67638	0.15820
1756.74800	0.14538
1754.81963	0.13188
1752.89126	0.11859
1750.96288	0.10359
1749.03451	0.08759
1747.10614	0.07323
1745.17777	0.06022
1743.24939	0.04799
1741.32102	0.03673
1739.39265	0.02668
1737.46427	0.01922
1735.53590	0.01366
1733.60753	0.00830
1731.67915	0.00453
1729.75078	0.00262
1727.82241	0.00145
1725.89403	0.00073
1723.96566	0.00054
1722.03729	0.00053
1720.10891	0.00074
1718.18054	0.00088
1716.25217	0.00088
1714.32379	0.00070
1712.39542	0.00060
1710.46705	0.00066
1708.53867	0.00076
1706.61030	0.00083
1704.68193	0.00093
1702.75355	0.00114
1700.82518	0.00138
1698.89681	0.00149
1696.96843	0.00140
1695.04006	0.00119
1693.11169	0.00101
1691.18331	0.00098
1689.25494	0.00098
1687.32657	0.00094
1685.39820	0.00097
1683.46982	0.00097
1681.54145	0.00086
1679.61308	0.00075
1677.68470	0.00083
1675.75633	0.00091
1673.82796	0.00080
1671.89958	0.00076
1669.97121	0.00094
1668.04284	0.00101
1666.11446	0.00092
1664.18609	0.00084
1662.25772	0.00074
1660.32934	0.00061
1658.40097	0.00063
1656.47260	0.00087
1654.54422	0.00125
1652.61585	0.00135
1650.68748	0.00120
1648.75910	0.00118
1646.83073	0.00111
1644.90236	0.00091
1642.97398	0.00081
1641.04561	0.00081
1639.11724	0.00075
1637.18886	0.00068
1635.26049	0.00066
1633.33212	0.00064
1631.40375	0.00070
1629.47537	0.00084
1627.54700	0.00091
1625.61863	0.00083
1623.69025	0.00071
1621.76188	0.00065
1619.83351	0.00065
1617.90513	0.00064
1615.97676	0.00070
1614.04839	0.00084
1612.12001	0.00087
1610.19164	0.00080
1608.26327	0.00077
1606.33489	0.00087
1604.40652	0.00090
1602.47815	0.00075
1600.54977	0.00063
1598.62140	0.00064
1596.69303	0.00065
1594.76465	0.00060
1592.83628	0.00058
1590.90791	0.00056
1588.97953	0.00054
1587.05116	0.00057
1585.12279	0.00061
1583.19441	0.00060
1581.26604	0.00058
1579.33767	0.00064
1577.40929	0.00077
1575.48092	0.00082
1573.55255	0.00074
1571.62418	0.00070
1569.69580	0.00077
1567.76743	0.00082
1565.83906	0.00078
1563.91068	0.00079
1561.98231	0.00101
1560.05394	0.00137
1558.12556	0.00141
1556.19719	0.00107
1554.26882	0.00083
1552.34044	0.00070
1550.41207	0.00072
1548.48370	0.00078
1546.55532	0.00079
1544.62695	0.00081
1542.69858	0.00094
1540.77020	0.00103
1538.84183	0.00082
1536.91346	0.00060
1534.98508	0.00053
1533.05671	0.00057
1531.12834	0.00063
1529.19996	0.00062
1527.27159	0.00054
1525.34322	0.00056
1523.41484	0.00070
1521.48647	0.00084
1519.55810	0.00084
1517.62972	0.00088
1515.70135	0.00093
1513.77298	0.00091
1511.84461	0.00095
1509.91623	0.00105
1507.98786	0.00111
1506.05949	0.00104
1504.13111	0.00089
1502.20274	0.00086
1500.27437	0.00089
1498.34599	0.00092
1496.41762	0.00096
1494.48925	0.00093
1492.56087	0.00080
1490.63250	0.00066
1488.70413	0.00058
1486.77575	0.00059
1484.84738	0.00063
1482.91901	0.00066
1480.99063	0.00072
1479.06226	0.00075
1477.13389	0.00068
1475.20551	0.00056
1473.27714	0.00061
1471.34877	0.00071
1469.42039	0.00071
1467.49202	0.00077
1465.56365	0.00080
1463.63527	0.00078
1461.70690	0.00087
1459.77853	0.00116
1457.85016	0.00150
1455.92178	0.00144
1453.99341	0.00116
1452.06504	0.00099
1450.13666	0.00089
1448.20829	0.00078
1446.27992	0.00064
1444.35154	0.00053
1442.42317	0.00049
1440.49480	0.00056
1438.56642	0.00078
1436.63805	0.00109
1434.70968	0.00112
1432.78130	0.00095
1430.85293	0.00088
1428.92456	0.00085
1426.99618	0.00085
1425.06781	0.00089
1423.13944	0.00097
1421.21106	0.00107
1419.28269	0.00107
1417.35432	0.00096
1415.42594	0.00090
1413.49757	0.00090
1411.56920	0.00079
1409.64082	0.00068
1407.71245	0.00074
1405.78408	0.00083
1403.85570	0.00080
1401.92733	0.00078
1399.99896	0.00086
1398.07059	0.00103
1396.14221	0.00116
1394.21384	0.00112
1392.28547	0.00106
1390.35709	0.00104
1388.42872	0.00100
1386.50035	0.00103
1384.57197	0.00111
1382.64360	0.00116
1380.71523	0.00109
1378.78685	0.00095
1376.85848	0.00089
1374.93011	0.00092
1373.00173	0.00100
1371.07336	0.00117
1369.14499	0.00119
1367.21661	0.00100
1365.28824	0.00098
1363.35987	0.00117
1361.43149	0.00129
1359.50312	0.00114
1357.57475	0.00089
1355.64637	0.00074
1353.71800	0.00079
1351.78963	0.00100
1349.86125	0.00117
1347.93288	0.00113
1346.00451	0.00097
1344.07614	0.00085
1342.14776	0.00084
1340.21939	0.00087
1338.29102	0.00089
1336.36264	0.00088
1334.43427	0.00086
1332.50590	0.00088
1330.57752	0.00098
1328.64915	0.00097
1326.72078	0.00086
1324.79240	0.00081
1322.86403	0.00088
1320.93566	0.00095
1319.00728	0.00101
1317.07891	0.00102
1315.15054	0.00097
1313.22216	0.00102
1311.29379	0.00117
1309.36542	0.00120
1307.43704	0.00110
1305.50867	0.00100
1303.58030	0.00090
1301.65192	0.00078
1299.72355	0.00076
1297.79518	0.00086
1295.86680	0.00092
1293.93843	0.00082
1292.01006	0.00071
1290.08168	0.00072
1288.15331	0.00068
1286.22494	0.00066
1284.29657	0.00085
1282.36819	0.00103
1280.43982	0.00105
1278.51145	0.00105
1276.58307	0.00105
1274.65470	0.00107
1272.72633	0.00115
1270.79795	0.00136
1268.86958	0.00146
1266.94121	0.00132
1265.01283	0.00122
1263.08446	0.00134
1261.15609	0.00156
1259.22771	0.00172
1257.29934	0.00171
1255.37097	0.00143
1253.44259	0.00103
1251.51422	0.00091
1249.58585	0.00114
1247.65747	0.00136
1245.72910	0.00137
1243.80073	0.00130
1241.87235	0.00134
1239.94398	0.00143
1238.01561	0.00141
1236.08723	0.00135
1234.15886	0.00130
1232.23049	0.00131
1230.30212	0.00144
1228.37374	0.00166
1226.44537	0.00178
1224.51700	0.00170
1222.58862	0.00163
1220.66025	0.00166
1218.73188	0.00157
1216.80350	0.00168
1214.87513	0.00180
1212.94676	0.00157
1211.01838	0.00143
1209.09001	0.00157
1207.16164	0.00187
1205.23326	0.00207
1203.30489	0.00214
1201.37652	0.00216
1199.44814	0.00195
1197.51977	0.00171
1195.59140	0.00170
1193.66302	0.00184
1191.73465	0.00207
1189.80628	0.00217
1187.87790	0.00191
1185.94953	0.00158
1184.02116	0.00146
1182.09278	0.00151
1180.16441	0.00160
1178.23604	0.00178
1176.30766	0.00198
1174.37929	0.00204
1172.45092	0.00193
1170.52255	0.00186
1168.59417	0.00201
1166.66580	0.00216
1164.73743	0.00204
1162.80905	0.00186
1160.88068	0.00190
1158.95231	0.00202
1157.02393	0.00201
1155.09556	0.00200
1153.16719	0.00207
1151.23881	0.00211
1149.31044	0.00210
1147.38207	0.00206
1145.45369	0.00216
1143.52532	0.00240
1141.59695	0.00237
1139.66857	0.00198
1137.74020	0.00177
1135.81183	0.00173
1133.88345	0.00170
1131.95508	0.00177
1130.02671	0.00172
1128.09833	0.00162
1126.16996	0.00187
1124.24159	0.00226
1122.31321	0.00229
1120.38484	0.00205
1118.45647	0.00184
1116.52809	0.00181
1114.59972	0.00195
1112.67135	0.00193
1110.74298	0.00188
1108.81460	0.00198
1106.88623	0.00203
1104.95786	0.00196
1103.02948	0.00195
1101.10111	0.00189
1099.17274	0.00197
1097.24436	0.00226
1095.31599	0.00230
1093.38762	0.00227
1091.45924	0.00229
1089.53087	0.00237
1087.60250	0.00227
1085.67412	0.00206
1083.74575	0.00216
1081.81738	0.00233
1079.88900	0.00220
1077.96063	0.00198
1076.03226	0.00187
1074.10388	0.00162
1072.17551	0.00139
1070.24714	0.00161
1068.31876	0.00206
1066.39039	0.00227
1064.46202	0.00201
1062.53364	0.00176
1060.60527	0.00187
1058.67690	0.00200
1056.74853	0.00158
1054.82015	0.00112
1052.89178	0.00122
1050.96341	0.00163
1049.03503	0.00187
1047.10666	0.00176
1045.17829	0.00143
1043.24991	0.00114
1041.32154	0.00110
1039.39317	0.00116
1037.46479	0.00135
1035.53642	0.00161
1033.60805	0.00184
1031.67967	0.00196
1029.75130	0.00191
1027.82293	0.00177
1025.89455	0.00159
1023.96618	0.00168
1022.03781	0.00196
1020.10943	0.00193
1018.18106	0.00159
1016.25269	0.00135
1014.32431	0.00124
1012.39594	0.00127
1010.46757	0.00158
1008.53919	0.00192
1006.61082	0.00177
1004.68245	0.00132
1002.75407	0.00113
1000.82570	0.00120
998.89733	0.00132
996.96896	0.00152
995.04058	0.00172
993.11221	0.00181
991.18384	0.00192
989.25546	0.00227
987.32709	0.00285
985.39872	0.00341
983.47034	0.00377
981.54197	0.00377
979.61360	0.00344
977.68522	0.00308
975.75685	0.00288
973.82848	0.00313
971.90010	0.00421
969.97173	0.00635
968.04336	0.00923
966.11498	0.01194
964.18661	0.01341
962.25824	0.01282
960.32986	0.00992
958.40149	0.00583
956.47312	0.00285
954.54474	0.00199
952.61637	0.00210
950.68800	0.00263
948.75962	0.00384
946.83125	0.00543
944.90288	0.00715
942.97451	0.00932
941.04613	0.01225
939.11776	0.01602
937.18939	0.02073
935.26101	0.02601
933.33264	0.03087
931.40427	0.03445
929.47589	0.03641
927.54752	0.03697
925.61915	0.03658
923.69077	0.03568
921.76240	0.03497
919.83403	0.03563
917.90565	0.03809
915.97728	0.04162
914.04891	0.04502
912.12053	0.04671
910.19216	0.04563
908.26379	0.04193
906.33541	0.03639
904.40704	0.03017
902.47867	0.02474
900.55029	0.02126
898.62192	0.01986
896.69355	0.01996
894.76517	0.02126
892.83680	0.02372
890.90843	0.02716
888.98005	0.03059
887.05168	0.03272
885.12331	0.03381
883.19494	0.03607
881.26656	0.04128
879.33819	0.04817
877.40982	0.05374
875.48144	0.05688
873.55307	0.05849
871.62470	0.05940
869.69632	0.05982
867.76795	0.05965
865.83958	0.05879
863.91120	0.05730
861.98283	0.05529
860.05446	0.05277
858.12608	0.05008
856.19771	0.04784
854.26934	0.04616
852.34096	0.04431
850.41259	0.04218
848.48422	0.04056
846.55584	0.03965
844.62747	0.03887
842.69910	0.03767
840.77072	0.03605
838.84235	0.03474
836.91398	0.03431
834.98560	0.03436
833.05723	0.03431
831.12886	0.03398
829.20049	0.03323
827.27211	0.03218
825.34374	0.03123
823.41537	0.03054
821.48699	0.03013
819.55862	0.03000
817.63025	0.02993
815.70187	0.02943
813.77350	0.02871
811.84513	0.02846
809.91675	0.02854
807.98838	0.02811
806.06001	0.02691
804.13163	0.02545
802.20326	0.02416
800.27489	0.02290
798.34651	0.02129
796.41814	0.01934
794.48977	0.01741
792.56139	0.01560
790.63302	0.01363
788.70465	0.01158
786.77627	0.00988
784.84790	0.00851
782.91953	0.00726
780.99115	0.00611
779.06278	0.00500
777.13441	0.00402
775.20603	0.00344
773.27766	0.00300
771.34929	0.00262
769.42092	0.00273
767.49254	0.00340
765.56417	0.00353
763.63580	0.00300
761.70742	0.00265
759.77905	0.00261
757.85068	0.00253
755.92230	0.00263
753.99393	0.00305
752.06556	0.00324
750.13718	0.00326
748.20881	0.00352
746.28044	0.00366
744.35206	0.00330
742.42369	0.00264
740.49532	0.00224
738.56694	0.00220
736.63857	0.00205
734.71020	0.00226
732.78182	0.00252
730.85345	0.00244
728.92508	0.00240
726.99670	0.00268
725.06833	0.00282
723.13996	0.00259
721.21158	0.00231
719.28321	0.00236
717.35484	0.00237
715.42647	0.00222
713.49809	0.00233
711.56972	0.00298
709.64135	0.00342
707.71297	0.00350
705.78460	0.00316
703.85623	0.00288
701.92785	0.00310
699.99948	0.00360
698.07111	0.00391
696.14273	0.00374
694.21436	0.00350
692.28599	0.00343
690.35761	0.00340
688.42924	0.00334
686.50087	0.00375
684.57249	0.00442
682.64412	0.00479
680.71575	0.00489
678.78737	0.00500
676.85900	0.00532
674.93063	0.00551
673.00225	0.00560
671.07388	0.00657
669.14551	0.00843
667.21713	0.00833
665.28876	0.00647
663.36039	0.00547
661.43201	0.00503
659.50364	0.00511
657.57527	0.00533
655.64690	0.00575
653.71852	0.00656
651.79015	0.00696
649.86178	0.00651
647.93340	0.00621
646.00503	0.00654
644.07666	0.00719
642.14828	0.00785
640.21991	0.00789
638.29154	0.00703
636.36316	0.00564
634.43479	0.00469
632.50642	0.00529
630.57804	0.00685
628.64967	0.00784
626.72130	0.00856
624.79292	0.00944
622.86455	0.01017
620.93618	0.01012
619.00780	0.00879
617.07943	0.00838
615.15106	0.00923
613.22268	0.00942
611.29431	0.01014
609.36594	0.01181
607.43756	0.01382
605.50919	0.01542
603.58082	0.01537
601.65244	0.01527
599.72407	0.01774
