3997.51769	1.05171
3995.58931	1.05193
3993.66094	1.05223
3991.73257	1.05270
3989.80419	1.05347
3987.87582	1.05435
3985.94745	1.05497
3984.01907	1.05535
3982.09070	1.05572
3980.16233	1.05600
3978.23396	1.05610
3976.30558	1.05624
3974.37721	1.05638
3972.44884	1.05653
3970.52046	1.05716
3968.59209	1.05850
3966.66372	1.06005
3964.73534	1.06086
3962.80697	1.06044
3960.87860	1.05966
3958.95022	1.05978
3957.02185	1.06081
3955.09348	1.06190
3953.16510	1.06219
3951.23673	1.06157
3949.30836	1.06117
3947.37998	1.06197
3945.45161	1.06298
3943.52324	1.06318
3941.59486	1.06376
3939.66649	1.06535
3937.73812	1.06660
3935.80974	1.06664
3933.88137	1.06577
3931.95300	1.06523
3930.02462	1.06590
3928.09625	1.06702
3926.16788	1.06739
3924.23950	1.06749
3922.31113	1.06828
3920.38276	1.06878
3918.45439	1.06843
3916.52601	1.06900
3914.59764	1.07127
3912.66927	1.07353
3910.74089	1.07455
3908.81252	1.07436
3906.88415	1.07274
3904.95577	1.07010
3903.02740	1.06863
3901.09903	1.06942
3899.17065	1.07171
3897.24228	1.07485
3895.31391	1.07692
3893.38553	1.07674
3891.45716	1.07654
3889.52879	1.07802
3887.60041	1.07862
3885.67204	1.07753
3883.74367	1.07662
3881.81529	1.07624
3879.88692	1.07750
3877.95855	1.08057
3876.03017	1.08156
3874.10180	1.08007
3872.17343	1.07890
3870.24505	1.07890
3868.31668	1.08007
3866.38831	1.08101
3864.45994	1.08104
3862.53156	1.08249
3860.60319	1.08532
3858.67482	1.08647
3856.74644	1.08544
3854.81807	1.08340
3852.88970	1.08205
3850.96132	1.08438
3849.03295	1.08814
3847.10458	1.09026
3845.17620	1.08991
3843.24783	1.08792
3841.31946	1.08569
3839.39108	1.08470
3837.46271	1.08591
3835.53434	1.08813
3833.60596	1.08996
3831.67759	1.09154
3829.74922	1.09268
3827.82084	1.09298
3825.89247	1.09318
3823.96410	1.09289
3822.03572	1.09063
3820.10735	1.08946
3818.17898	1.09161
3816.25060	1.09403
3814.32223	1.09663
3812.39386	1.09917
3810.46548	1.09997
3808.53711	1.09871
3806.60874	1.09710
3804.68037	1.09631
3802.75199	1.09491
3800.82362	1.09426
3798.89525	1.09585
3796.96687	1.09777
3795.03850	1.10037
3793.11013	1.10314
3791.18175	1.10452
3789.25338	1.10483
3787.32501	1.10441
3785.39663	1.10364
3783.46826	1.10362
3781.53989	1.10352
3779.61151	1.10303
3777.68314	1.10423
3775.75477	1.10654
3773.82639	1.10738
3771.89802	1.10602
3769.96965	1.10391
3768.04127	1.10298
3766.11290	1.10314
3764.18453	1.10418
3762.25615	1.10483
3760.32778	1.10340
3758.39941	1.10192
3756.47103	1.10229
3754.54266	1.10223
3752.61429	1.10006
3750.68591	1.09760
3748.75754	1.09777
3746.82917	1.09881
3744.90080	1.09939
3742.97242	1.10043
3741.04405	1.10113
3739.11568	1.09985
3737.18730	1.09608
3735.25893	1.09256
3733.33056	1.09378
3731.40218	1.09842
3729.47381	1.10182
3727.54544	1.10202
3725.61706	1.10055
3723.68869	1.10024
3721.76032	1.10155
3719.83194	1.10339
3717.90357	1.10516
3715.97520	1.10591
3714.04682	1.10416
3712.11845	1.09994
3710.19008	1.09771
3708.26170	1.10024
3706.33333	1.10335
3704.40496	1.10357
3702.47658	1.10136
3700.54821	1.10017
3698.61984	1.10097
3696.69146	1.10129
3694.76309	1.09974
3692.83472	1.09610
3690.90635	1.09144
3688.97797	1.08917
3687.04960	1.09066
3685.12123	1.09241
3683.19285	1.09220
3681.26448	1.08961
3679.33611	1.08504
3677.40773	1.07912
3675.47936	1.07367
3673.55099	1.07238
3671.62261	1.07211
3669.69424	1.07036
3667.76587	1.07065
3665.83749	1.07215
3663.90912	1.07165
3661.98075	1.06914
3660.05237	1.06571
3658.12400	1.06159
3656.19563	1.05710
3654.26725	1.05288
3652.33888	1.04690
3650.41051	1.03766
3648.48213	1.03047
3646.55376	1.03079
3644.62539	1.03352
3642.69701	1.03363
3640.76864	1.03087
3638.84027	1.02720
3636.91189	1.02321
3634.98352	1.01807
3633.05515	1.01216
3631.12678	1.00574
3629.19840	0.99816
3627.27003	0.99379
3625.34166	0.99374
3623.41328	0.99238
3621.48491	0.98740
3619.55654	0.98022
3617.62816	0.97479
3615.69979	0.97152
3613.77142	0.96795
3611.84304	0.96427
3609.91467	0.96012
3607.98630	0.95534
3606.05792	0.95224
3604.12955	0.94999
3602.20118	0.94563
3600.27280	0.93986
3598.34443	0.93486
3596.41606	0.93029
3594.48768	0.92573
3592.55931	0.92202
3590.63094	0.91794
3588.70256	0.91121
3586.77419	0.90445
3584.84582	0.90160
3582.91744	0.89990
3580.98907	0.89639
3579.06070	0.89132
3577.13233	0.88592
3575.20395	0.88071
3573.27558	0.87569
3571.34721	0.87041
3569.41883	0.86343
3567.49046	0.85501
3565.56209	0.84922
3563.63371	0.84675
3561.70534	0.84400
3559.77697	0.84026
3557.84859	0.83636
3555.92022	0.83199
3553.99185	0.82660
3552.06347	0.82074
3550.13510	0.81553
3548.20673	0.81045
3546.27835	0.80509
3544.34998	0.80070
3542.42161	0.79753
3540.49323	0.79427
3538.56486	0.79004
3536.63649	0.78528
3534.70811	0.78093
3532.77974	0.77688
3530.85137	0.77214
3528.92299	0.76665
3526.99462	0.76154
3525.06625	0.75738
3523.13787	0.75385
3521.20950	0.75051
3519.28113	0.74702
3517.35276	0.74327
3515.42438	0.73949
3513.49601	0.73573
3511.56764	0.73153
3509.63926	0.72702
3507.71089	0.72275
3505.78252	0.71859
3503.85414	0.71428
3501.92577	0.71054
3499.99740	0.70758
3498.06902	0.70468
3496.14065	0.70153
3494.21228	0.69831
3492.28390	0.69530
3490.35553	0.69250
3488.42716	0.68956
3486.49878	0.68622
3484.57041	0.68271
3482.64204	0.67948
3480.71366	0.67688
3478.78529	0.67474
3476.85692	0.67248
3474.92854	0.67012
3473.00017	0.66784
3471.07180	0.66517
3469.14342	0.66204
3467.21505	0.65893
3465.28668	0.65617
3463.35831	0.65357
3461.42993	0.65099
3459.50156	0.64857
3457.57319	0.64618
3455.64481	0.64360
3453.71644	0.64081
3451.78807	0.63787
3449.85969	0.63470
3447.93132	0.63133
3446.00295	0.62827
3444.07457	0.62583
3442.14620	0.62358
3440.21783	0.62120
3438.28945	0.61863
3436.36108	0.61576
3434.43271	0.61278
3432.50433	0.60985
3430.57596	0.60693
3428.64759	0.60392
3426.71921	0.60085
3424.79084	0.59782
3422.86247	0.59470
3420.93409	0.59151
3419.00572	0.58871
3417.07735	0.58641
3415.14897	0.58408
3413.22060	0.58129
3411.29223	0.57829
3409.36385	0.57560
3407.43548	0.57306
3405.50711	0.57030
3403.57874	0.56743
3401.65036	0.56467
3399.72199	0.56196
3397.79362	0.55922
3395.86524	0.55627
3393.93687	0.55294
3392.00850	0.54967
3390.08012	0.54683
3388.15175	0.54403
3386.22338	0.54094
3384.29500	0.53764
3382.36663	0.53417
3380.43826	0.53050
3378.50988	0.52664
3376.58151	0.52264
3374.65314	0.51848
3372.72476	0.51401
3370.79639	0.50926
3368.86802	0.50455
3366.93964	0.49994
3365.01127	0.49499
3363.08290	0.48944
3361.15452	0.48373
3359.22615	0.47827
3357.29778	0.47286
3355.36940	0.46705
3353.44103	0.46087
3351.51266	0.45467
3349.58428	0.44850
3347.65591	0.44216
3345.72754	0.43568
3343.79917	0.42922
3341.87079	0.42272
3339.94242	0.41600
3338.01405	0.40912
3336.08567	0.40218
3334.15730	0.39518
3332.22893	0.38821
3330.30055	0.38127
3328.37218	0.37426
3326.44381	0.36731
3324.51543	0.36050
3322.58706	0.35369
3320.65869	0.34697
3318.73031	0.34052
3316.80194	0.33426
3314.87357	0.32816
3312.94519	0.32246
3311.01682	0.31732
3309.08845	0.31252
3307.16007	0.30776
3305.23170	0.30330
3303.30333	0.29945
3301.37495	0.29601
3299.44658	0.29280
3297.51821	0.29000
3295.58983	0.28790
3293.66146	0.28645
3291.73309	0.28550
3289.80472	0.28515
3287.87634	0.28561
3285.94797	0.28671
3284.01960	0.28813
3282.09122	0.28999
3280.16285	0.29254
3278.23448	0.29603
3276.30610	0.30054
3274.37773	0.30579
3272.44936	0.31151
3270.52098	0.31779
3268.59261	0.32503
3266.66424	0.33316
3264.73586	0.34181
3262.80749	0.35098
3260.87912	0.36067
3258.95074	0.37065
3257.02237	0.38090
3255.09400	0.39146
3253.16562	0.40227
3251.23725	0.41313
3249.30888	0.42373
3247.38050	0.43387
3245.45213	0.44372
3243.52376	0.45348
3241.59538	0.46290
3239.66701	0.47165
3237.73864	0.47966
3235.81026	0.48690
3233.88189	0.49339
3231.95352	0.49942
3230.02515	0.50523
3228.09677	0.51082
3226.16840	0.51616
3224.24003	0.52112
3222.31165	0.52567
3220.38328	0.52995
3218.45491	0.53414
3216.52653	0.53834
3214.59816	0.54268
3212.66979	0.54714
3210.74141	0.55154
3208.81304	0.55589
3206.88467	0.56029
3204.95629	0.56483
3203.02792	0.56947
3201.09955	0.57410
3199.17117	0.57879
3197.24280	0.58356
3195.31443	0.58844
3193.38605	0.59350
3191.45768	0.59880
3189.52931	0.60411
3187.60093	0.60906
3185.67256	0.61375
3183.74419	0.61852
3181.81581	0.62355
3179.88744	0.62879
3177.95907	0.63406
3176.03070	0.63912
3174.10232	0.64397
3172.17395	0.64888
3170.24558	0.65383
3168.31720	0.65863
3166.38883	0.66320
3164.46046	0.66757
3162.53208	0.67179
3160.60371	0.67579
3158.67534	0.67957
3156.74696	0.68330
3154.81859	0.68702
3152.89022	0.69056
3150.96184	0.69392
3149.03347	0.69716
3147.10510	0.70007
3145.17672	0.70264
3143.24835	0.70516
3141.31998	0.70766
3139.39160	0.71012
3137.46323	0.71241
3135.53486	0.71419
3133.60648	0.71554
3131.67811	0.71687
3129.74974	0.71810
3127.82136	0.71897
3125.89299	0.71965
3123.96462	0.72032
3122.03624	0.72072
3120.10787	0.72072
3118.17950	0.72051
3116.25113	0.72025
3114.32275	0.71999
3112.39438	0.71952
3110.46601	0.71846
3108.53763	0.71705
3106.60926	0.71576
3104.68089	0.71447
3102.75251	0.71287
3100.82414	0.71102
3098.89577	0.70910
3096.96739	0.70714
3095.03902	0.70494
3093.11065	0.70249
3091.18227	0.69999
3089.25390	0.69770
3087.32553	0.69566
3085.39715	0.69372
3083.46878	0.69184
3081.54041	0.69012
3079.61203	0.68877
3077.68366	0.68797
3075.75529	0.68752
3073.82691	0.68717
3071.89854	0.68716
3069.97017	0.68759
3068.04179	0.68833
3066.11342	0.68945
3064.18505	0.69120
3062.25668	0.69358
3060.32830	0.69632
3058.39993	0.69920
3056.47156	0.70232
3054.54318	0.70600
3052.61481	0.71001
3050.68644	0.71385
3048.75806	0.71751
3046.82969	0.72121
3044.90132	0.72494
3042.97294	0.72871
3041.04457	0.73267
3039.11620	0.73673
3037.18782	0.74046
3035.25945	0.74375
3033.33108	0.74700
3031.40270	0.75040
3029.47433	0.75390
3027.54596	0.75730
3025.61758	0.76046
3023.68921	0.76358
3021.76084	0.76674
3019.83246	0.76960
3017.90409	0.77200
3015.97572	0.77411
3014.04734	0.77606
3012.11897	0.77784
3010.19060	0.77927
3008.26222	0.78006
3006.33385	0.78013
3004.40548	0.77951
3002.47711	0.77830
3000.54873	0.77657
2998.62036	0.77399
2996.69199	0.77020
2994.76361	0.76519
2992.83524	0.75916
2990.90687	0.75238
2988.97849	0.74480
2987.05012	0.73643
2985.12175	0.72765
2983.19337	0.71886
2981.26500	0.71016
2979.33663	0.70152
2977.40825	0.69283
2975.47988	0.68416
2973.55151	0.67565
2971.62313	0.66741
2969.69476	0.65975
2967.76639	0.65320
2965.83801	0.64832
2963.90964	0.64553
2961.98127	0.64521
2960.05289	0.64770
2958.12452	0.65281
2956.19615	0.65993
2954.26777	0.66844
2952.33940	0.67748
2950.41103	0.68533
2948.48266	0.69038
2946.55428	0.69211
2944.62591	0.69080
2942.69754	0.68728
2940.76916	0.68286
2938.84079	0.67858
2936.91242	0.67502
2934.98404	0.67251
2933.05567	0.67099
2931.12730	0.67020
2929.19892	0.66962
2927.27055	0.66817
2925.34218	0.66486
2923.41380	0.65909
2921.48543	0.65077
2919.55706	0.64196
2917.62868	0.63845
2915.70031	0.64644
2913.77194	0.66554
2911.84356	0.68823
2909.91519	0.70761
2907.98682	0.72194
2906.05844	0.73223
2904.13007	0.73982
2902.20170	0.74574
2900.27332	0.75040
2898.34495	0.75397
2896.41658	0.75682
2894.48820	0.75920
2892.55983	0.76108
2890.63146	0.76238
2888.70309	0.76290
2886.77471	0.76237
2884.84634	0.76064
2882.91797	0.75781
2880.98959	0.75426
2879.06122	0.75088
2877.13285	0.74908
2875.20447	0.75006
2873.27610	0.75421
2871.34773	0.76126
2869.41935	0.77034
2867.49098	0.78026
2865.56261	0.78985
2863.63423	0.79794
2861.70586	0.80363
2859.77749	0.80671
2857.84911	0.80729
2855.92074	0.80471
2853.99237	0.79676
2852.06399	0.78205
2850.13562	0.76678
2848.20725	0.76453
2846.27887	0.78048
2844.35050	0.80395
2842.42213	0.82311
2840.49375	0.83541
2838.56538	0.84316
2836.63701	0.84856
2834.70863	0.85277
2832.78026	0.85623
2830.85189	0.85903
2828.92352	0.86123
2826.99514	0.86302
2825.06677	0.86467
2823.13840	0.86638
2821.21002	0.86814
2819.28165	0.86999
2817.35328	0.87187
2815.42490	0.87357
2813.49653	0.87516
2811.56816	0.87688
2809.63978	0.87873
2807.71141	0.88064
2805.78304	0.88252
2803.85466	0.88430
2801.92629	0.88598
2799.99792	0.88759
2798.06954	0.88926
2796.14117	0.89106
2794.21280	0.89279
2792.28442	0.89453
2790.35605	0.89648
2788.42768	0.89858
2786.49930	0.90058
2784.57093	0.90232
2782.64256	0.90399
2780.71418	0.90565
2778.78581	0.90712
2776.85744	0.90857
2774.92907	0.91040
2773.00069	0.91234
2771.07232	0.91402
2769.14395	0.91565
2767.21557	0.91740
2765.28720	0.91913
2763.35883	0.92078
2761.43045	0.92236
2759.50208	0.92385
2757.57371	0.92529
2755.64533	0.92686
2753.71696	0.92861
2751.78859	0.93038
2749.86021	0.93208
2747.93184	0.93362
2746.00347	0.93485
2744.07509	0.93591
2742.14672	0.93717
2740.21835	0.93880
2738.28997	0.94059
2736.36160	0.94224
2734.43323	0.94370
2732.50485	0.94506
2730.57648	0.94634
2728.64811	0.94756
2726.71973	0.94898
2724.79136	0.95078
2722.86299	0.95274
2720.93461	0.95456
2719.00624	0.95621
2717.07787	0.95771
2715.14950	0.95917
2713.22112	0.96076
2711.29275	0.96229
2709.36438	0.96371
2707.43600	0.96517
2705.50763	0.96659
2703.57926	0.96789
2701.65088	0.96904
2699.72251	0.97012
2697.79414	0.97117
2695.86576	0.97222
2693.93739	0.97331
2692.00902	0.97451
2690.08064	0.97570
2688.15227	0.97675
2686.22390	0.97777
2684.29552	0.97892
2682.36715	0.98012
2680.43878	0.98124
2678.51040	0.98226
2676.58203	0.98343
2674.65366	0.98483
2672.72528	0.98618
2670.79691	0.98725
2668.86854	0.98827
2666.94016	0.98934
2665.01179	0.99028
2663.08342	0.99125
2661.15505	0.99241
2659.22667	0.99357
2657.29830	0.99461
2655.36993	0.99563
2653.44155	0.99670
2651.51318	0.99773
2649.58481	0.99863
2647.65643	0.99940
2645.72806	1.00018
2643.79969	1.00105
2641.87131	1.00196
2639.94294	1.00290
2638.01457	1.00386
2636.08619	1.00478
2634.15782	1.00576
2632.22945	1.00686
2630.30107	1.00783
2628.37270	1.00865
2626.44433	1.00946
2624.51595	1.01026
2622.58758	1.01108
2620.65921	1.01203
2618.73083	1.01314
2616.80246	1.01434
2614.87409	1.01549
2612.94571	1.01651
2611.01734	1.01755
2609.08897	1.01862
2607.16059	1.01953
2605.23222	1.02034
2603.30385	1.02128
2601.37548	1.02228
2599.44710	1.02332
2597.51873	1.02448
2595.59036	1.02560
2593.66198	1.02664
2591.73361	1.02776
2589.80524	1.02886
2587.87686	1.02983
2585.94849	1.03089
2584.02012	1.03195
2582.09174	1.03279
2580.16337	1.03365
2578.23500	1.03481
2576.30662	1.03604
2574.37825	1.03714
2572.44988	1.03824
2570.52150	1.03944
2568.59313	1.04064
2566.66476	1.04164
2564.73638	1.04240
2562.80801	1.04322
2560.87964	1.04428
2558.95126	1.04538
2557.02289	1.04642
2555.09452	1.04747
2553.16614	1.04847
2551.23777	1.04933
2549.30940	1.05009
2547.38103	1.05090
2545.45265	1.05178
2543.52428	1.05267
2541.59591	1.05357
2539.66753	1.05443
2537.73916	1.05529
2535.81079	1.05620
2533.88241	1.05692
2531.95404	1.05742
2530.02567	1.05804
2528.09729	1.05888
2526.16892	1.05964
2524.24055	1.06025
2522.31217	1.06086
2520.38380	1.06154
2518.45543	1.06221
2516.52705	1.06296
2514.59868	1.06374
2512.67031	1.06428
2510.74193	1.06463
2508.81356	1.06517
2506.88519	1.06587
2504.95681	1.06642
2503.02844	1.06690
2501.10007	1.06744
2499.17169	1.06793
2497.24332	1.06844
2495.31495	1.06909
2493.38657	1.06972
2491.45820	1.07026
2489.52983	1.07082
2487.60146	1.07137
2485.67308	1.07184
2483.74471	1.07235
2481.81634	1.07297
2479.88796	1.07361
2477.95959	1.07422
2476.03122	1.07473
2474.10284	1.07518
2472.17447	1.07568
2470.24610	1.07620
2468.31772	1.07665
2466.38935	1.07711
2464.46098	1.07756
2462.53260	1.07793
2460.60423	1.07834
2458.67586	1.07881
2456.74748	1.07925
2454.81911	1.07973
2452.89074	1.08025
2450.96236	1.08065
2449.03399	1.08093
2447.10562	1.08122
2445.17724	1.08151
2443.24887	1.08181
2441.32050	1.08218
2439.39212	1.08258
2437.46375	1.08289
2435.53538	1.08318
2433.60700	1.08351
2431.67863	1.08385
2429.75026	1.08420
2427.82189	1.08450
2425.89351	1.08470
2423.96514	1.08486
2422.03677	1.08501
2420.10839	1.08531
2418.18002	1.08573
2416.25165	1.08603
2414.32327	1.08626
2412.39490	1.08657
2410.46653	1.08684
2408.53815	1.08703
2406.60978	1.08726
2404.68141	1.08748
2402.75303	1.08756
2400.82466	1.08742
2398.89629	1.08726
2396.96791	1.08739
2395.03954	1.08780
2393.11117	1.08808
2391.18279	1.08793
2389.25442	1.08737
2387.32605	1.08636
2385.39767	1.08457
2383.46930	1.08165
2381.54093	1.07748
2379.61255	1.07241
2377.68418	1.06714
2375.75581	1.06186
2373.82744	1.05614
2371.89906	1.04976
2369.97069	1.04334
2368.04232	1.03778
2366.11394	1.03299
2364.18557	1.02866
2362.25720	1.02576
2360.32882	1.02480
2358.40045	1.02582
2356.47208	1.02914
2354.54370	1.03397
2352.61533	1.03963
2350.68696	1.04515
2348.75858	1.04789
2346.83021	1.04596
2344.90184	1.04030
2342.97346	1.03577
2341.04509	1.03493
2339.11672	1.03588
2337.18834	1.03718
2335.25997	1.03814
2333.33160	1.03839
2331.40322	1.03840
2329.47485	1.03909
2327.54648	1.04051
2325.61810	1.04198
2323.68973	1.04330
2321.76136	1.04513
2319.83298	1.04794
2317.90461	1.05109
2315.97624	1.05363
2314.04787	1.05538
2312.11949	1.05678
2310.19112	1.05818
2308.26275	1.05979
2306.33437	1.06176
2304.40600	1.06372
2302.47763	1.06517
2300.54925	1.06617
2298.62088	1.06700
2296.69251	1.06772
2294.76413	1.06839
2292.83576	1.06904
2290.90739	1.06965
2288.97901	1.07020
2287.05064	1.07069
2285.12227	1.07105
2283.19389	1.07111
2281.26552	1.07068
2279.33715	1.06971
2277.40877	1.06862
2275.48040	1.06788
2273.55203	1.06749
2271.62365	1.06713
2269.69528	1.06671
2267.76691	1.06626
2265.83853	1.06572
2263.91016	1.06507
2261.98179	1.06451
2260.05342	1.06412
2258.12504	1.06381
2256.19667	1.06343
2254.26830	1.06299
2252.33992	1.06254
2250.41155	1.06193
2248.48318	1.06119
2246.55480	1.06058
2244.62643	1.06014
2242.69806	1.05965
2240.76968	1.05898
2238.84131	1.05825
2236.91294	1.05757
2234.98456	1.05694
2233.05619	1.05629
2231.12782	1.05557
2229.19944	1.05479
2227.27107	1.05398
2225.34270	1.05322
2223.41432	1.05247
2221.48595	1.05167
2219.55758	1.05100
2217.62920	1.05046
2215.70083	1.04976
2213.77246	1.04892
2211.84408	1.04813
2209.91571	1.04737
2207.98734	1.04656
2206.05896	1.04580
2204.13059	1.04512
2202.20222	1.04436
2200.27385	1.04352
2198.34547	1.04268
2196.41710	1.04186
2194.48873	1.04105
2192.56035	1.04031
2190.63198	1.03961
2188.70361	1.03886
2186.77523	1.03809
2184.84686	1.03740
2182.91849	1.03679
2180.99011	1.03620
2179.06174	1.03557
2177.13337	1.03487
2175.20499	1.03407
2173.27662	1.03324
2171.34825	1.03246
2169.41987	1.03169
2167.49150	1.03087
2165.56313	1.03012
2163.63475	1.02942
2161.70638	1.02862
2159.77801	1.02769
2157.84963	1.02687
2155.92126	1.02636
2153.99289	1.02593
2152.06451	1.02518
2150.13614	1.02413
2148.20777	1.02309
2146.27940	1.02219
2144.35102	1.02141
2142.42265	1.02069
2140.49428	1.01995
2138.56590	1.01916
2136.63753	1.01843
2134.70916	1.01778
2132.78078	1.01714
2130.85241	1.01654
2128.92404	1.01593
2126.99566	1.01524
2125.06729	1.01452
2123.13892	1.01379
2121.21054	1.01307
2119.28217	1.01241
2117.35380	1.01180
2115.42542	1.01106
2113.49705	1.01023
2111.56868	1.00947
2109.64030	1.00885
2107.71193	1.00828
2105.78356	1.00772
2103.85518	1.00716
2101.92681	1.00653
2099.99844	1.00585
2098.07006	1.00523
2096.14169	1.00469
2094.21332	1.00411
2092.28494	1.00337
2090.35657	1.00258
2088.42820	1.00202
2086.49983	1.00161
2084.57145	1.00111
2082.64308	1.00048
2080.71471	0.99981
2078.78633	0.99918
2076.85796	0.99861
2074.92959	0.99805
2073.00121	0.99756
2071.07284	0.99719
2069.14447	0.99675
2067.21609	0.99602
2065.28772	0.99524
2063.35935	0.99475
2061.43097	0.99437
2059.50260	0.99394
2057.57423	0.99350
2055.64585	0.99302
2053.71748	0.99258
2051.78911	0.99220
2049.86073	0.99169
2047.93236	0.99109
2046.00399	0.99055
2044.07561	0.98997
2042.14724	0.98935
2040.21887	0.98883
2038.29049	0.98848
2036.36212	0.98819
2034.43375	0.98778
2032.50538	0.98727
2030.57700	0.98688
2028.64863	0.98659
2026.72026	0.98613
2024.79188	0.98559
2022.86351	0.98505
2020.93514	0.98441
2019.00676	0.98364
2017.07839	0.98305
2015.15002	0.98290
2013.22164	0.98286
2011.29327	0.98260
2009.36490	0.98224
2007.43652	0.98193
2005.50815	0.98163
2003.57978	0.98130
2001.65140	0.98090
1999.72303	0.98052
1997.79466	0.98021
1995.86628	0.97961
1993.93791	0.97840
1992.00954	0.97730
1990.08116	0.97715
1988.15279	0.97748
1986.22442	0.97772
1984.29604	0.97777
1982.36767	0.97753
1980.43930	0.97711
1978.51092	0.97670
1976.58255	0.97636
1974.65418	0.97614
1972.72581	0.97595
1970.79743	0.97548
1968.86906	0.97455
1966.94069	0.97383
1965.01231	0.97397
1963.08394	0.97438
1961.15557	0.97441
1959.22719	0.97413
1957.29882	0.97374
1955.37045	0.97345
1953.44207	0.97342
1951.51370	0.97353
1949.58533	0.97346
1947.65695	0.97300
1945.72858	0.97198
1943.80021	0.97060
1941.87183	0.97025
1939.94346	0.97143
1938.01509	0.97252
1936.08671	0.97261
1934.15834	0.97221
1932.22997	0.97198
1930.30159	0.97204
1928.37322	0.97206
1926.44485	0.97162
1924.51647	0.97047
1922.58810	0.96947
1920.65973	0.96908
1918.73135	0.96864
1916.80298	0.96886
1914.87461	0.96999
1912.94624	0.97047
1911.01786	0.97000
1909.08949	0.96967
1907.16112	0.97006
1905.23274	0.97069
1903.30437	0.97102
1901.37600	0.97112
1899.44762	0.97102
1897.51925	0.97054
1895.59088	0.96998
1893.66250	0.96980
1891.73413	0.96924
1889.80576	0.96839
1887.87738	0.96886
1885.94901	0.97017
1884.02064	0.97097
1882.09226	0.97134
1880.16389	0.97159
1878.23552	0.97192
1876.30714	0.97229
1874.37877	0.97235
1872.45040	0.97125
1870.52202	0.96851
1868.59365	0.96653
1866.66528	0.96823
1864.73690	0.97148
1862.80853	0.97341
1860.88016	0.97402
1858.95179	0.97423
1857.02341	0.97456
1855.09504	0.97497
1853.16667	0.97527
1851.23829	0.97527
1849.30992	0.97456
1847.38155	0.97289
1845.45317	0.97073
1843.52480	0.97077
1841.59643	0.97381
1839.66805	0.97618
1837.73968	0.97679
1835.81131	0.97724
1833.88293	0.97736
1831.95456	0.97556
1830.02619	0.97334
1828.09781	0.97362
1826.16944	0.97497
1824.24107	0.97650
1822.31269	0.97889
1820.38432	0.98075
1818.45595	0.98137
1816.52757	0.98179
1814.59920	0.98195
1812.67083	0.98111
1810.74245	0.98034
1808.81408	0.98117
1806.88571	0.98269
1804.95733	0.98296
1803.02896	0.98148
1801.10059	0.97989
1799.17222	0.98029
1797.24384	0.98164
1795.31547	0.98110
1793.38710	0.97856
1791.45872	0.97807
1789.53035	0.98147
1787.60198	0.98429
1785.67360	0.98463
1783.74523	0.98404
1781.81686	0.98335
1779.88848	0.98333
1777.96011	0.98400
1776.03174	0.98323
1774.10336	0.97975
1772.17499	0.97642
1770.24662	0.97733
1768.31824	0.98065
1766.38987	0.98358
1764.46150	0.98416
1762.53312	0.98238
1760.60475	0.98119
1758.67638	0.98105
1756.74800	0.98057
1754.81963	0.97960
1752.89126	0.97636
1750.96288	0.97029
1749.03451	0.96562
1747.10614	0.96406
1745.17777	0.96253
1743.24939	0.95936
1741.32102	0.95478
1739.39265	0.95015
1737.46427	0.94566
1735.53590	0.93877
1733.60753	0.93080
1731.67915	0.92816
1729.75078	0.92792
1727.82241	0.92602
1725.89403	0.92172
1723.96566	0.91487
1722.03729	0.90660
1720.10891	0.89539
1718.18054	0.87895
1716.25217	0.86222
1714.32379	0.84998
1712.39542	0.83729
1710.46705	0.81915
1708.53867	0.79447
1706.61030	0.76201
1704.68193	0.72578
1702.75355	0.69112
1700.82518	0.64685
1698.89681	0.59483
1696.96843	0.55131
1695.04006	0.50770
1693.11169	0.46831
1691.18331	0.43393
1689.25494	0.39769
1687.32657	0.36478
1685.39820	0.33204
1683.46982	0.29524
1681.54145	0.26890
1679.61308	0.25096
1677.68470	0.23353
1675.75633	0.21424
1673.82796	0.19519
1671.89958	0.17918
1669.97121	0.16288
1668.04284	0.14609
1666.11446	0.13287
1664.18609	0.12025
1662.25772	0.10566
1660.32934	0.09217
1658.40097	0.08163
1656.47260	0.07385
1654.54422	0.06822
1652.61585	0.06535
1650.68748	0.06621
1648.75910	0.07013
1646.83073	0.07864
1644.90236	0.08995
1642.97398	0.09956
1641.04561	0.10743
1639.11724	0.11392
1637.18886	0.11930
1635.26049	0.12565
1633.33212	0.13292
1631.40375	0.14025
1629.47537	0.15054
1627.54700	0.16595
1625.61863	0.18625
1623.69025	0.21335
1621.76188	0.24598
1619.83351	0.27586
1617.90513	0.30581
1615.97676	0.34214
1614.04839	0.37520
1612.12001	0.40184
1610.19164	0.42734
1608.26327	0.45238
1606.33489	0.47491
1604.40652	0.49389
1602.47815	0.50995
1600.54977	0.52342
1598.62140	0.53427
1596.69303	0.54280
1594.76465	0.55039
1592.83628	0.55763
1590.90791	0.56382
1588.97953	0.56832
1587.05116	0.57064
1585.12279	0.57048
1583.19441	0.56773
1581.26604	0.56259
1579.33767	0.55473
1577.40929	0.54279
1575.48092	0.52769
1573.55255	0.51438
1571.62418	0.49982
1569.69580	0.47873
1567.76743	0.45579
1565.83906	0.43412
1563.91068	0.41114
1561.98231	0.38802
1560.05394	0.35809
1558.12556	0.31848
1556.19719	0.29405
1554.26882	0.27965
1552.34044	0.26712
1550.41207	0.25780
1548.48370	0.25222
1546.55532	0.24976
1544.62695	0.24929
1542.69858	0.25056
1540.77020	0.25530
1538.84183	0.26546
1536.91346	0.27504
1534.98508	0.28287
1533.05671	0.29272
1531.12834	0.30384
1529.19996	0.31339
1527.27159	0.32236
1525.34322	0.33104
1523.41484	0.33768
1521.48647	0.34275
1519.55810	0.34722
1517.62972	0.35325
1515.70135	0.36496
1513.77298	0.38235
1511.84461	0.40183
1509.91623	0.41992
1507.98786	0.43947
1506.05949	0.47025
1504.13111	0.50065
1502.20274	0.52168
1500.27437	0.53974
1498.34599	0.55906
1496.41762	0.58181
1494.48925	0.60373
1492.56087	0.61965
1490.63250	0.63259
1488.70413	0.64743
1486.77575	0.66293
1484.84738	0.67458
1482.91901	0.68044
1480.99063	0.68134
1479.06226	0.67748
1477.13389	0.66727
1475.20551	0.65074
1473.27714	0.63164
1471.34877	0.61734
1469.42039	0.60930
1467.49202	0.60039
1465.56365	0.58682
1463.63527	0.57253
1461.70690	0.56152
1459.77853	0.55023
1457.85016	0.53522
1455.92178	0.52325
1453.99341	0.52015
1452.06504	0.52056
1450.13666	0.52222
1448.20829	0.52634
1446.27992	0.53418
1444.35154	0.54480
1442.42317	0.55716
1440.49480	0.56987
1438.56642	0.58206
1436.63805	0.59713
1434.70968	0.61475
1432.78130	0.62919
1430.85293	0.64063
1428.92456	0.65084
1426.99618	0.65835
1425.06781	0.66208
1423.13944	0.66322
1421.21106	0.66230
1419.28269	0.66012
1417.35432	0.66039
1415.42594	0.66301
1413.49757	0.66485
1411.56920	0.66577
1409.64082	0.66684
1407.71245	0.66781
1405.78408	0.66855
1403.85570	0.67012
1401.92733	0.67162
1399.99896	0.67118
1398.07059	0.66929
1396.14221	0.66715
1394.21384	0.66534
1392.28547	0.66404
1390.35709	0.66221
1388.42872	0.66016
1386.50035	0.66088
1384.57197	0.66532
1382.64360	0.67107
1380.71523	0.67710
1378.78685	0.68351
1376.85848	0.68932
1374.93011	0.69414
1373.00173	0.69936
1371.07336	0.70514
1369.14499	0.71143
1367.21661	0.71909
1365.28824	0.72691
1363.35987	0.73389
1361.43149	0.74110
1359.50312	0.74805
1357.57475	0.75314
1355.64637	0.75629
1353.71800	0.75807
1351.78963	0.75864
1349.86125	0.75796
1347.93288	0.75629
1346.00451	0.75380
1344.07614	0.75027
1342.14776	0.74552
1340.21939	0.74057
1338.29102	0.73751
1336.36264	0.73659
1334.43427	0.73597
1332.50590	0.73482
1330.57752	0.73386
1328.64915	0.73389
1326.72078	0.73481
1324.79240	0.73601
1322.86403	0.73660
1320.93566	0.73593
1319.00728	0.73413
1317.07891	0.73162
1315.15054	0.72841
1313.22216	0.72461
1311.29379	0.72075
1309.36542	0.71710
1307.43704	0.71400
1305.50867	0.71221
1303.58030	0.71224
1301.65192	0.71394
1299.72355	0.71667
1297.79518	0.71942
1295.86680	0.72108
1293.93843	0.72108
1292.01006	0.71954
1290.08168	0.71674
1288.15331	0.71334
1286.22494	0.71023
1284.29657	0.70785
1282.36819	0.70618
1280.43982	0.70523
1278.51145	0.70493
1276.58307	0.70495
1274.65470	0.70479
1272.72633	0.70415
1270.79795	0.70334
1268.86958	0.70299
1266.94121	0.70324
1265.01283	0.70377
1263.08446	0.70412
1261.15609	0.70409
1259.22771	0.70371
1257.29934	0.70270
1255.37097	0.70045
1253.44259	0.69687
1251.51422	0.69257
1249.58585	0.68791
1247.65747	0.68293
1245.72910	0.67796
1243.80073	0.67360
1241.87235	0.67018
1239.94398	0.66780
1238.01561	0.66670
1236.08723	0.66738
1234.15886	0.67029
1232.23049	0.67536
1230.30212	0.68226
1228.37374	0.69083
1226.44537	0.70086
1224.51700	0.71208
1222.58862	0.72432
1220.66025	0.73725
1218.73188	0.75006
1216.80350	0.76159
1214.87513	0.77087
1212.94676	0.77765
1211.01838	0.78242
1209.09001	0.78602
1207.16164	0.78940
1205.23326	0.79311
1203.30489	0.79721
1201.37652	0.80187
1199.44814	0.80768
1197.51977	0.81485
1195.59140	0.82304
1193.66302	0.83184
1191.73465	0.84054
1189.80628	0.84830
1187.87790	0.85460
1185.94953	0.85940
1184.02116	0.86274
1182.09278	0.86465
1180.16441	0.86533
1178.23604	0.86464
1176.30766	0.86233
1174.37929	0.85901
1172.45092	0.85598
1170.52255	0.85431
1168.59417	0.85415
1166.66580	0.85485
1164.73743	0.85643
1162.80905	0.85974
1160.88068	0.86472
1158.95231	0.87059
1157.02393	0.87695
1155.09556	0.88356
1153.16719	0.89001
1151.23881	0.89653
1149.31044	0.90369
1147.38207	0.91112
1145.45369	0.91808
1143.52532	0.92411
1141.59695	0.92859
1139.66857	0.93098
1137.74020	0.93129
1135.81183	0.92989
1133.88345	0.92737
1131.95508	0.92428
1130.02671	0.92062
1128.09833	0.91670
1126.16996	0.91346
1124.24159	0.91150
1122.31321	0.91076
1120.38484	0.91094
1118.45647	0.91144
1116.52809	0.91218
1114.59972	0.91328
1112.67135	0.91420
1110.74298	0.91460
1108.81460	0.91484
1106.88623	0.91512
1104.95786	0.91529
1103.02948	0.91554
1101.10111	0.91629
1099.17274	0.91765
1097.24436	0.91931
1095.31599	0.92058
1093.38762	0.92071
1091.45924	0.92008
1089.53087	0.91919
1087.60250	0.91761
1085.67412	0.91529
1083.74575	0.91293
1081.81738	0.91102
1079.88900	0.90981
1077.96063	0.90969
1076.03226	0.91089
1074.10388	0.91322
1072.17551	0.91631
1070.24714	0.91932
1068.31876	0.92164
1066.39039	0.92344
1064.46202	0.92456
1062.53364	0.92497
1060.60527	0.92507
1058.67690	0.92478
1056.74853	0.92399
1054.82015	0.92332
1052.89178	0.92310
1050.96341	0.92288
1049.03503	0.92235
1047.10666	0.92163
1045.17829	0.92091
1043.24991	0.92014
1041.32154	0.91924
1039.39317	0.91802
1037.46479	0.91648
1035.53642	0.91491
1033.60805	0.91344
1031.67967	0.91237
1029.75130	0.91260
1027.82293	0.91461
1025.89455	0.91799
1023.96618	0.92213
1022.03781	0.92663
1020.10943	0.93100
1018.18106	0.93489
1016.25269	0.93834
1014.32431	0.94158
1012.39594	0.94491
1010.46757	0.94846
1008.53919	0.95179
1006.61082	0.95459
1004.68245	0.95731
1002.75407	0.96007
1000.82570	0.96219
998.89733	0.96338
996.96896	0.96408
995.04058	0.96483
993.11221	0.96578
991.18384	0.96674
989.25546	0.96751
987.32709	0.96815
985.39872	0.96878
983.47034	0.96944
981.54197	0.97017
979.61360	0.97109
977.68522	0.97208
975.75685	0.97290
973.82848	0.97386
971.90010	0.97481
969.97173	0.97529
968.04336	0.97569
966.11498	0.97614
964.18661	0.97575
962.25824	0.97442
960.32986	0.97309
958.40149	0.97187
956.47312	0.97021
954.54474	0.96842
952.61637	0.96723
950.68800	0.96657
948.75962	0.96577
946.83125	0.96468
944.90288	0.96353
942.97451	0.96217
941.04613	0.96054
939.11776	0.95883
937.18939	0.95699
935.26101	0.95510
933.33264	0.95363
931.40427	0.95259
929.47589	0.95153
927.54752	0.95038
925.61915	0.94937
923.69077	0.94858
921.76240	0.94826
919.83403	0.94841
917.90565	0.94847
915.97728	0.94805
914.04891	0.94716
912.12053	0.94584
910.19216	0.94416
908.26379	0.94258
906.33541	0.94161
904.40704	0.94100
902.47867	0.94055
900.55029	0.94017
898.62192	0.93957
896.69355	0.93897
894.76517	0.93857
892.83680	0.93800
890.90843	0.93687
888.98005	0.93529
887.05168	0.93372
885.12331	0.93243
883.19494	0.93136
881.26656	0.93031
879.33819	0.92907
877.40982	0.92740
875.48144	0.92562
873.55307	0.92448
871.62470	0.92403
869.69632	0.92379
867.76795	0.92374
865.83958	0.92360
863.91120	0.92262
861.98283	0.92075
860.05446	0.91893
858.12608	0.91763
856.19771	0.91609
854.26934	0.91370
852.34096	0.91108
850.41259	0.90891
848.48422	0.90703
846.55584	0.90528
844.62747	0.90358
842.69910	0.90120
840.77072	0.89805
838.84235	0.89538
836.91398	0.89324
834.98560	0.89033
833.05723	0.88675
831.12886	0.88367
829.20049	0.88174
827.27211	0.88090
825.34374	0.88044
823.41537	0.87994
821.48699	0.87939
819.55862	0.87829
817.63025	0.87672
815.70187	0.87543
813.77350	0.87422
811.84513	0.87247
809.91675	0.87044
807.98838	0.86848
806.06001	0.86643
804.13163	0.86428
802.20326	0.86208
800.27489	0.85974
798.34651	0.85734
796.41814	0.85467
794.48977	0.85139
792.56139	0.84819
790.63302	0.84575
788.70465	0.84361
786.77627	0.84154
784.84790	0.83981
782.91953	0.83823
780.99115	0.83626
779.06278	0.83387
777.13441	0.83191
775.20603	0.83052
773.27766	0.82882
771.34929	0.82653
769.42092	0.82426
767.49254	0.82218
765.56417	0.81999
763.63580	0.81775
761.70742	0.81566
759.77905	0.81337
757.85068	0.81071
755.92230	0.80834
753.99393	0.80642
752.06556	0.80451
750.13718	0.80253
748.20881	0.80045
746.28044	0.79824
744.35206	0.79631
742.42369	0.79483
740.49532	0.79348
738.56694	0.79222
736.63857	0.79104
734.71020	0.78913
732.78182	0.78587
730.85345	0.78224
728.92508	0.77965
726.99670	0.77773
725.06833	0.77510
723.13996	0.77092
721.21158	0.76568
719.28321	0.76184
717.35484	0.76052
715.42647	0.75926
713.49809	0.75639
711.56972	0.75280
709.64135	0.74886
707.71297	0.74449
705.78460	0.74053
703.85623	0.73732
701.92785	0.73432
699.99948	0.73126
698.07111	0.72885
696.14273	0.72768
694.21436	0.72656
692.28599	0.72431
690.35761	0.72176
688.42924	0.72003
686.50087	0.71852
684.57249	0.71653
682.64412	0.71431
680.71575	0.71193
678.78737	0.70954
676.85900	0.70722
674.93063	0.70499
673.00225	0.70305
671.07388	0.70073
669.14551	0.69842
667.21713	0.69905
665.28876	0.70058
663.36039	0.70053
661.43201	0.70002
659.50364	0.70024
657.57527	0.70133
655.64690	0.70291
653.71852	0.70489
651.79015	0.70685
649.86178	0.70767
647.93340	0.70729
646.00503	0.70687
644.07666	0.70718
642.14828	0.70852
640.21991	0.71013
638.29154	0.71064
636.36316	0.71059
634.43479	0.71137
632.50642	0.71259
630.57804	0.71321
628.64967	0.71350
626.72130	0.71401
624.79292	0.71517
622.86455	0.71746
620.93618	0.71971
619.00780	0.72142
617.07943	0.72426
615.15106	0.72756
613.22268	0.72974
611.29431	0.73229
609.36594	0.73568
607.43756	0.73726
605.50919	0.73606
603.58082	0.73583
601.65244	0.74003
599.72407	0.74675
