3997.51769	1.09598
3995.58931	1.09513
3993.66094	1.09460
3991.73257	1.09445
3989.80419	1.09479
3987.87582	1.09548
3985.94745	1.09584
3984.01907	1.09566
3982.09070	1.09534
3980.16233	1.09508
3978.23396	1.09453
3976.30558	1.09341
3974.37721	1.09236
3972.44884	1.09211
3970.52046	1.09275
3968.59209	1.09430
3966.66372	1.09596
3964.73534	1.09582
3962.80697	1.09356
3960.87860	1.09179
3958.95022	1.09181
3957.02185	1.09245
3955.09348	1.09301
3953.16510	1.09197
3951.23673	1.08785
3949.30836	1.08357
3947.37998	1.08367
3945.45161	1.08490
3943.52324	1.08298
3941.59486	1.08369
3939.66649	1.08939
3937.73812	1.09326
3935.80974	1.09137
3933.88137	1.08429
3931.95300	1.07769
3930.02462	1.07860
3928.09625	1.08270
3926.16788	1.08185
3924.23950	1.07926
3922.31113	1.08025
3920.38276	1.07990
3918.45439	1.07635
3916.52601	1.07755
3914.59764	1.08602
3912.66927	1.09392
3910.74089	1.09606
3908.81252	1.09181
3906.88415	1.07903
3904.95577	1.06011
3903.02740	1.04712
3901.09903	1.04688
3899.17065	1.05689
3897.24228	1.07265
3895.31391	1.08191
3893.38553	1.07726
3891.45716	1.07042
3889.52879	1.07373
3887.60041	1.07430
3885.67204	1.06663
3883.74367	1.06249
3881.81529	1.06041
3879.88692	1.06244
3877.95855	1.07329
3876.03017	1.07569
3874.10180	1.06540
3872.17343	1.05415
3870.24505	1.04827
3868.31668	1.05270
3866.38831	1.05735
3864.45994	1.05429
3862.53156	1.05781
3860.60319	1.06985
3858.67482	1.07375
3856.74644	1.06231
3854.81807	1.03789
3852.88970	1.02315
3850.96132	1.04409
3849.03295	1.07041
3847.10458	1.08158
3845.17620	1.07666
3843.24783	1.06252
3841.31946	1.04709
3839.39108	1.03527
3837.46271	1.03476
3835.53434	1.04563
3833.60596	1.05613
3831.67759	1.06387
3829.74922	1.06993
3827.82084	1.07099
3825.89247	1.06843
3823.96410	1.06084
3822.03572	1.04363
3820.10735	1.03509
3818.17898	1.04380
3816.25060	1.05309
3814.32223	1.06705
3812.39386	1.08248
3810.46548	1.08552
3808.53711	1.07446
3806.60874	1.06182
3804.68037	1.05570
3802.75199	1.04592
3800.82362	1.04057
3798.89525	1.05013
3796.96687	1.06064
3795.03850	1.07207
3793.11013	1.08479
3791.18175	1.09111
3789.25338	1.09115
3787.32501	1.08707
3785.39663	1.08142
3783.46826	1.07922
3781.53989	1.07643
3779.61151	1.07126
3777.68314	1.07482
3775.75477	1.08465
3773.82639	1.08683
3771.89802	1.07750
3769.96965	1.06567
3768.04127	1.06253
3766.11290	1.06532
3764.18453	1.06972
3762.25615	1.07011
3760.32778	1.06072
3758.39941	1.05253
3756.47103	1.05335
3754.54266	1.04891
3752.61429	1.02969
3750.68591	1.01095
3748.75754	1.01398
3746.82917	1.02037
3744.90080	1.01973
3742.97242	1.02841
3741.04405	1.04166
3739.11568	1.04120
3737.18730	1.02376
3735.25893	1.00549
3733.33056	1.01178
3731.40218	1.03706
3729.47381	1.05572
3727.54544	1.05756
3725.61706	1.05072
3723.68869	1.04757
3721.76032	1.05087
3719.83194	1.05823
3717.90357	1.06560
3715.97520	1.06594
3714.04682	1.05309
3712.11845	1.03194
3710.19008	1.02693
3708.26170	1.04479
3706.33333	1.06200
3704.40496	1.06461
3702.47658	1.05746
3700.54821	1.05660
3698.61984	1.06359
3696.69146	1.06672
3694.76309	1.06146
3692.83472	1.04613
3690.90635	1.02376
3688.97797	1.01346
3687.04960	1.02747
3685.12123	1.04518
3683.19285	1.05144
3681.26448	1.04503
3679.33611	1.02855
3677.40773	1.00386
3675.47936	0.98305
3673.55099	0.98592
3671.62261	0.99193
3669.69424	0.99197
3667.76587	1.00506
3665.83749	1.02244
3663.90912	1.02915
3661.98075	1.02733
3660.05237	1.02089
3658.12400	1.00908
3656.19563	0.99670
3654.26725	0.98890
3652.33888	0.97248
3650.41051	0.94095
3648.48213	0.92297
3646.55376	0.94059
3644.62539	0.96508
3642.69701	0.97657
3640.76864	0.97713
3638.84027	0.97397
3636.91189	0.96861
3634.98352	0.95987
3633.05515	0.94826
3631.12678	0.93115
3629.19840	0.91117
3627.27003	0.91119
3625.34166	0.92606
3623.41328	0.93016
3621.48491	0.91788
3619.55654	0.89902
3617.62816	0.89059
3615.69979	0.88996
3613.77142	0.88630
3611.84304	0.88254
3609.91467	0.87924
3607.98630	0.87625
3606.05792	0.87945
3604.12955	0.88310
3602.20118	0.87830
3600.27280	0.86934
3598.34443	0.86264
3596.41606	0.85614
3594.48768	0.85043
3592.55931	0.84842
3590.63094	0.84297
3588.70256	0.82810
3586.77419	0.81708
3584.84582	0.82113
3582.91744	0.82704
3580.98907	0.82591
3579.06070	0.82054
3577.13233	0.81477
3575.20395	0.80950
3573.27558	0.80420
3571.34721	0.79568
3569.41883	0.77922
3567.49046	0.76002
3565.56209	0.75460
3563.63371	0.76147
3561.70534	0.76548
3559.77697	0.76403
3557.84859	0.76092
3555.92022	0.75605
3553.99185	0.74833
3552.06347	0.74066
3550.13510	0.73529
3548.20673	0.72843
3546.27835	0.71985
3544.34998	0.71564
3542.42161	0.71613
3540.49323	0.71572
3538.56486	0.71160
3536.63649	0.70581
3534.70811	0.70112
3532.77974	0.69669
3530.85137	0.69009
3528.92299	0.68204
3526.99462	0.67554
3525.06625	0.67113
3523.13787	0.66813
3521.20950	0.66652
3519.28113	0.66500
3517.35276	0.66223
3515.42438	0.65851
3513.49601	0.65374
3511.56764	0.64762
3509.63926	0.64194
3507.71089	0.63822
3505.78252	0.63415
3503.85414	0.62852
3501.92577	0.62468
3499.99740	0.62330
3498.06902	0.62128
3496.14065	0.61827
3494.21228	0.61556
3492.28390	0.61292
3490.35553	0.60950
3488.42716	0.60558
3486.49878	0.60190
3484.57041	0.59825
3482.64204	0.59448
3480.71366	0.59181
3478.78529	0.59043
3476.85692	0.58862
3474.92854	0.58609
3473.00017	0.58372
3471.07180	0.58121
3469.14342	0.57815
3467.21505	0.57497
3465.28668	0.57190
3463.35831	0.56875
3461.42993	0.56605
3459.50156	0.56418
3457.57319	0.56236
3455.64481	0.56012
3453.71644	0.55751
3451.78807	0.55436
3449.85969	0.55011
3447.93132	0.54543
3446.00295	0.54244
3444.07457	0.54099
3442.14620	0.53919
3440.21783	0.53692
3438.28945	0.53460
3436.36108	0.53210
3434.43271	0.52947
3432.50433	0.52669
3430.57596	0.52376
3428.64759	0.52075
3426.71921	0.51764
3424.79084	0.51442
3422.86247	0.51082
3420.93409	0.50727
3419.00572	0.50476
3417.07735	0.50295
3415.14897	0.50071
3413.22060	0.49782
3411.29223	0.49479
3409.36385	0.49198
3407.43548	0.48942
3405.50711	0.48695
3403.57874	0.48444
3401.65036	0.48186
3399.72199	0.47912
3397.79362	0.47604
3395.86524	0.47287
3393.93687	0.46995
3392.00850	0.46746
3390.08012	0.46519
3388.15175	0.46223
3386.22338	0.45831
3384.29500	0.45441
3382.36663	0.45122
3380.43826	0.44811
3378.50988	0.44439
3376.58151	0.44032
3374.65314	0.43620
3372.72476	0.43170
3370.79639	0.42675
3368.86802	0.42161
3366.93964	0.41644
3365.01127	0.41130
3363.08290	0.40617
3361.15452	0.40088
3359.22615	0.39555
3357.29778	0.39008
3355.36940	0.38427
3353.44103	0.37841
3351.51266	0.37270
3349.58428	0.36691
3347.65591	0.36080
3345.72754	0.35446
3343.79917	0.34796
3341.87079	0.34143
3339.94242	0.33498
3338.01405	0.32828
3336.08567	0.32116
3334.15730	0.31424
3332.22893	0.30769
3330.30055	0.30097
3328.37218	0.29410
3326.44381	0.28753
3324.51543	0.28118
3322.58706	0.27486
3320.65869	0.26863
3318.73031	0.26256
3316.80194	0.25651
3314.87357	0.25052
3312.94519	0.24494
3311.01682	0.23988
3309.08845	0.23526
3307.16007	0.23115
3305.23170	0.22747
3303.30333	0.22399
3301.37495	0.22079
3299.44658	0.21792
3297.51821	0.21525
3295.58983	0.21296
3293.66146	0.21130
3291.73309	0.21038
3289.80472	0.21022
3287.87634	0.21065
3285.94797	0.21152
3284.01960	0.21290
3282.09122	0.21488
3280.16285	0.21733
3278.23448	0.22029
3276.30610	0.22397
3274.37773	0.22842
3272.44936	0.23373
3270.52098	0.23982
3268.59261	0.24637
3266.66424	0.25348
3264.73586	0.26142
3262.80749	0.27009
3260.87912	0.27923
3258.95074	0.28873
3257.02237	0.29849
3255.09400	0.30864
3253.16562	0.31930
3251.23725	0.33016
3249.30888	0.34077
3247.38050	0.35092
3245.45213	0.36078
3243.52376	0.37073
3241.59538	0.38048
3239.66701	0.38935
3237.73864	0.39740
3235.81026	0.40500
3233.88189	0.41224
3231.95352	0.41908
3230.02515	0.42554
3228.09677	0.43160
3226.16840	0.43724
3224.24003	0.44249
3222.31165	0.44737
3220.38328	0.45202
3218.45491	0.45668
3216.52653	0.46143
3214.59816	0.46627
3212.66979	0.47110
3210.74141	0.47597
3208.81304	0.48114
3206.88467	0.48663
3204.95629	0.49203
3203.02792	0.49707
3201.09955	0.50198
3199.17117	0.50710
3197.24280	0.51256
3195.31443	0.51849
3193.38605	0.52475
3191.45768	0.53095
3189.52931	0.53696
3187.60093	0.54288
3185.67256	0.54890
3183.74419	0.55502
3181.81581	0.56100
3179.88744	0.56686
3177.95907	0.57301
3176.03070	0.57950
3174.10232	0.58590
3172.17395	0.59211
3170.24558	0.59817
3168.31720	0.60409
3166.38883	0.60997
3164.46046	0.61572
3162.53208	0.62129
3160.60371	0.62669
3158.67534	0.63176
3156.74696	0.63663
3154.81859	0.64147
3152.89022	0.64612
3150.96184	0.65055
3149.03347	0.65502
3147.10510	0.65936
3145.17672	0.66329
3143.24835	0.66683
3141.31998	0.67019
3139.39160	0.67349
3137.46323	0.67653
3135.53486	0.67907
3133.60648	0.68145
3131.67811	0.68423
3129.74974	0.68692
3127.82136	0.68876
3125.89299	0.68993
3123.96462	0.69088
3122.03624	0.69169
3120.10787	0.69226
3118.17950	0.69247
3116.25113	0.69258
3114.32275	0.69287
3112.39438	0.69294
3110.46601	0.69230
3108.53763	0.69126
3106.60926	0.69028
3104.68089	0.68901
3102.75251	0.68692
3100.82414	0.68444
3098.89577	0.68227
3096.96739	0.68027
3095.03902	0.67815
3093.11065	0.67595
3091.18227	0.67355
3089.25390	0.67106
3087.32553	0.66859
3085.39715	0.66616
3083.46878	0.66401
3081.54041	0.66226
3079.61203	0.66090
3077.68366	0.66014
3075.75529	0.65993
3073.82691	0.65994
3071.89854	0.66018
3069.97017	0.66067
3068.04179	0.66124
3066.11342	0.66233
3064.18505	0.66472
3062.25668	0.66824
3060.32830	0.67215
3058.39993	0.67606
3056.47156	0.68015
3054.54318	0.68491
3052.61481	0.69025
3050.68644	0.69557
3048.75806	0.70073
3046.82969	0.70591
3044.90132	0.71119
3042.97294	0.71654
3041.04457	0.72193
3039.11620	0.72737
3037.18782	0.73243
3035.25945	0.73679
3033.33108	0.74074
3031.40270	0.74502
3029.47433	0.75013
3027.54596	0.75555
3025.61758	0.76046
3023.68921	0.76483
3021.76084	0.76903
3019.83246	0.77302
3017.90409	0.77659
3015.97572	0.77962
3014.04734	0.78208
3012.11897	0.78429
3010.19060	0.78641
3008.26222	0.78789
3006.33385	0.78823
3004.40548	0.78759
3002.47711	0.78625
3000.54873	0.78405
2998.62036	0.78054
2996.69199	0.77544
2994.76361	0.76883
2992.83524	0.76113
2990.90687	0.75262
2988.97849	0.74306
2987.05012	0.73245
2985.12175	0.72131
2983.19337	0.71007
2981.26500	0.69890
2979.33663	0.68798
2977.40825	0.67742
2975.47988	0.66700
2973.55151	0.65663
2971.62313	0.64664
2969.69476	0.63763
2967.76639	0.63023
2965.83801	0.62485
2963.90964	0.62185
2961.98127	0.62193
2960.05289	0.62569
2958.12452	0.63296
2956.19615	0.64283
2954.26777	0.65397
2952.33940	0.66490
2950.41103	0.67390
2948.48266	0.67957
2946.55428	0.68159
2944.62591	0.68030
2942.69754	0.67639
2940.76916	0.67118
2938.84079	0.66637
2936.91242	0.66304
2934.98404	0.66111
2933.05567	0.66042
2931.12730	0.66106
2929.19892	0.66224
2927.27055	0.66259
2925.34218	0.66122
2923.41380	0.65761
2921.48543	0.65178
2919.55706	0.64624
2917.62868	0.64707
2915.70031	0.65981
2913.77194	0.68295
2911.84356	0.70845
2909.91519	0.72957
2907.98682	0.74482
2906.05844	0.75550
2904.13007	0.76324
2902.20170	0.76924
2900.27332	0.77414
2898.34495	0.77815
2896.41658	0.78123
2894.48820	0.78347
2892.55983	0.78497
2890.63146	0.78567
2888.70309	0.78550
2886.77471	0.78417
2884.84634	0.78117
2882.91797	0.77652
2880.98959	0.77116
2879.06122	0.76647
2877.13285	0.76376
2875.20447	0.76429
2873.27610	0.76924
2871.34773	0.77864
2869.41935	0.79086
2867.49098	0.80399
2865.56261	0.81654
2863.63423	0.82698
2861.70586	0.83433
2859.77749	0.83870
2857.84911	0.84034
2855.92074	0.83842
2853.99237	0.83097
2852.06399	0.81778
2850.13562	0.80653
2848.20725	0.81038
2846.27887	0.83144
2844.35050	0.85685
2842.42213	0.87548
2840.49375	0.88636
2838.56538	0.89268
2836.63701	0.89693
2834.70863	0.90013
2832.78026	0.90263
2830.85189	0.90474
2828.92352	0.90659
2826.99514	0.90810
2825.06677	0.90938
2823.13840	0.91053
2821.21002	0.91157
2819.28165	0.91270
2817.35328	0.91410
2815.42490	0.91560
2813.49653	0.91701
2811.56816	0.91838
2809.63978	0.91981
2807.71141	0.92143
2805.78304	0.92334
2803.85466	0.92523
2801.92629	0.92674
2799.99792	0.92805
2798.06954	0.92963
2796.14117	0.93140
2794.21280	0.93295
2792.28442	0.93431
2790.35605	0.93586
2788.42768	0.93764
2786.49930	0.93936
2784.57093	0.94087
2782.64256	0.94222
2780.71418	0.94352
2778.78581	0.94464
2776.85744	0.94569
2774.92907	0.94707
2773.00069	0.94875
2771.07232	0.95028
2769.14395	0.95152
2767.21557	0.95277
2765.28720	0.95420
2763.35883	0.95558
2761.43045	0.95675
2759.50208	0.95789
2757.57371	0.95910
2755.64533	0.96026
2753.71696	0.96134
2751.78859	0.96240
2749.86021	0.96353
2747.93184	0.96472
2746.00347	0.96565
2744.07509	0.96624
2742.14672	0.96679
2740.21835	0.96765
2738.28997	0.96882
2736.36160	0.97006
2734.43323	0.97116
2732.50485	0.97218
2730.57648	0.97314
2728.64811	0.97405
2726.71973	0.97501
2724.79136	0.97608
2722.86299	0.97719
2720.93461	0.97828
2719.00624	0.97933
2717.07787	0.98045
2715.14950	0.98155
2713.22112	0.98237
2711.29275	0.98299
2709.36438	0.98366
2707.43600	0.98437
2705.50763	0.98502
2703.57926	0.98561
2701.65088	0.98622
2699.72251	0.98677
2697.79414	0.98713
2695.86576	0.98740
2693.93739	0.98778
2692.00902	0.98827
2690.08064	0.98875
2688.15227	0.98915
2686.22390	0.98951
2684.29552	0.98989
2682.36715	0.99038
2680.43878	0.99089
2678.51040	0.99125
2676.58203	0.99166
2674.65366	0.99231
2672.72528	0.99300
2670.79691	0.99343
2668.86854	0.99367
2666.94016	0.99392
2665.01179	0.99418
2663.08342	0.99451
2661.15505	0.99503
2659.22667	0.99549
2657.29830	0.99561
2655.36993	0.99567
2653.44155	0.99596
2651.51318	0.99627
2649.58481	0.99644
2647.65643	0.99659
2645.72806	0.99666
2643.79969	0.99664
2641.87131	0.99674
2639.94294	0.99692
2638.01457	0.99703
2636.08619	0.99706
2634.15782	0.99710
2632.22945	0.99729
2630.30107	0.99759
2628.37270	0.99779
2626.44433	0.99785
2624.51595	0.99796
2622.58758	0.99818
2620.65921	0.99830
2618.73083	0.99831
2616.80246	0.99841
2614.87409	0.99874
2612.94571	0.99915
2611.01734	0.99949
2609.08897	0.99973
2607.16059	0.99994
2605.23222	1.00020
2603.30385	1.00056
2601.37548	1.00096
2599.44710	1.00137
2597.51873	1.00180
2595.59036	1.00216
2593.66198	1.00246
2591.73361	1.00272
2589.80524	1.00288
2587.87686	1.00311
2585.94849	1.00361
2584.02012	1.00413
2582.09174	1.00443
2580.16337	1.00470
2578.23500	1.00508
2576.30662	1.00542
2574.37825	1.00571
2572.44988	1.00612
2570.52150	1.00666
2568.59313	1.00716
2566.66476	1.00737
2564.73638	1.00745
2562.80801	1.00772
2560.87964	1.00816
2558.95126	1.00858
2557.02289	1.00894
2555.09452	1.00924
2553.16614	1.00943
2551.23777	1.00958
2549.30940	1.00980
2547.38103	1.01007
2545.45265	1.01026
2543.52428	1.01042
2541.59591	1.01070
2539.66753	1.01113
2537.73916	1.01164
2535.81079	1.01200
2533.88241	1.01199
2531.95404	1.01179
2530.02567	1.01181
2528.09729	1.01209
2526.16892	1.01231
2524.24055	1.01240
2522.31217	1.01256
2520.38380	1.01278
2518.45543	1.01289
2516.52705	1.01294
2514.59868	1.01310
2512.67031	1.01324
2510.74193	1.01315
2508.81356	1.01306
2506.88519	1.01319
2504.95681	1.01335
2503.02844	1.01336
2501.10007	1.01331
2499.17169	1.01329
2497.24332	1.01329
2495.31495	1.01341
2493.38657	1.01369
2491.45820	1.01396
2489.52983	1.01414
2487.60146	1.01428
2485.67308	1.01441
2483.74471	1.01451
2481.81634	1.01469
2479.88796	1.01498
2477.95959	1.01532
2476.03122	1.01560
2474.10284	1.01584
2472.17447	1.01602
2470.24610	1.01614
2468.31772	1.01634
2466.38935	1.01654
2464.46098	1.01662
2462.53260	1.01671
2460.60423	1.01695
2458.67586	1.01718
2456.74748	1.01733
2454.81911	1.01748
2452.89074	1.01770
2450.96236	1.01800
2449.03399	1.01822
2447.10562	1.01821
2445.17724	1.01817
2443.24887	1.01832
2441.32050	1.01870
2439.39212	1.01919
2437.46375	1.01946
2435.53538	1.01957
2433.60700	1.01975
2431.67863	1.01998
2429.75026	1.02010
2427.82189	1.02014
2425.89351	1.02032
2423.96514	1.02063
2422.03677	1.02093
2420.10839	1.02120
2418.18002	1.02142
2416.25165	1.02156
2414.32327	1.02183
2412.39490	1.02230
2410.46653	1.02273
2408.53815	1.02297
2406.60978	1.02317
2404.68141	1.02348
2402.75303	1.02371
2400.82466	1.02370
2398.89629	1.02363
2396.96791	1.02372
2395.03954	1.02406
2393.11117	1.02450
2391.18279	1.02472
2389.25442	1.02457
2387.32605	1.02408
2385.39767	1.02322
2383.46930	1.02182
2381.54093	1.01972
2379.61255	1.01715
2377.68418	1.01460
2375.75581	1.01247
2373.82744	1.01076
2371.89906	1.00918
2369.97069	1.00755
2368.04232	1.00621
2366.11394	1.00555
2364.18557	1.00530
2362.25720	1.00523
2360.32882	1.00567
2358.40045	1.00654
2356.47208	1.00696
2354.54370	1.00702
2352.61533	1.00776
2350.68696	1.00908
2348.75858	1.00984
2346.83021	1.00931
2344.90184	1.00790
2342.97346	1.00717
2341.04509	1.00751
2339.11672	1.00835
2337.18834	1.00937
2335.25997	1.01007
2333.33160	1.01030
2331.40322	1.01052
2329.47485	1.01087
2327.54648	1.01101
2325.61810	1.01114
2323.68973	1.01176
2321.76136	1.01295
2319.83298	1.01445
2317.90461	1.01596
2315.97624	1.01735
2314.04787	1.01855
2312.11949	1.01963
2310.19112	1.02078
2308.26275	1.02206
2306.33437	1.02340
2304.40600	1.02479
2302.47763	1.02609
2300.54925	1.02722
2298.62088	1.02827
2296.69251	1.02926
2294.76413	1.03018
2292.83576	1.03107
2290.90739	1.03191
2288.97901	1.03267
2287.05064	1.03341
2285.12227	1.03415
2283.19389	1.03475
2281.26552	1.03516
2279.33715	1.03532
2277.40877	1.03531
2275.48040	1.03536
2273.55203	1.03561
2271.62365	1.03593
2269.69528	1.03624
2267.76691	1.03660
2265.83853	1.03701
2263.91016	1.03734
2261.98179	1.03758
2260.05342	1.03787
2258.12504	1.03825
2256.19667	1.03861
2254.26830	1.03893
2252.33992	1.03928
2250.41155	1.03952
2248.48318	1.03958
2246.55480	1.03974
2244.62643	1.04019
2242.69806	1.04063
2240.76968	1.04083
2238.84131	1.04096
2236.91294	1.04122
2234.98456	1.04157
2233.05619	1.04192
2231.12782	1.04221
2229.19944	1.04236
2227.27107	1.04249
2225.34270	1.04280
2223.41432	1.04308
2221.48595	1.04318
2219.55758	1.04335
2217.62920	1.04357
2215.70083	1.04374
2213.77246	1.04399
2211.84408	1.04436
2209.91571	1.04469
2207.98734	1.04490
2206.05896	1.04508
2204.13059	1.04527
2202.20222	1.04544
2200.27385	1.04563
2198.34547	1.04587
2196.41710	1.04614
2194.48873	1.04647
2192.56035	1.04691
2190.63198	1.04728
2188.70361	1.04743
2186.77523	1.04756
2184.84686	1.04792
2182.91849	1.04836
2180.99011	1.04873
2179.06174	1.04908
2177.13337	1.04948
2175.20499	1.04979
2173.27662	1.04994
2171.34825	1.05016
2169.41987	1.05060
2167.49150	1.05103
2165.56313	1.05127
2163.63475	1.05135
2161.70638	1.05145
2159.77801	1.05168
2157.84963	1.05194
2155.92126	1.05226
2153.99289	1.05269
2152.06451	1.05308
2150.13614	1.05334
2148.20777	1.05351
2146.27940	1.05374
2144.35102	1.05412
2142.42265	1.05450
2140.49428	1.05470
2138.56590	1.05483
2136.63753	1.05509
2134.70916	1.05553
2132.78078	1.05612
2130.85241	1.05673
2128.92404	1.05711
2126.99566	1.05730
2125.06729	1.05753
2123.13892	1.05787
2121.21054	1.05828
2119.28217	1.05867
2117.35380	1.05897
2115.42542	1.05914
2113.49705	1.05930
2111.56868	1.05964
2109.64030	1.06013
2107.71193	1.06063
2105.78356	1.06112
2103.85518	1.06161
2101.92681	1.06206
2099.99844	1.06248
2098.07006	1.06290
2096.14169	1.06335
2094.21332	1.06375
2092.28494	1.06381
2090.35657	1.06372
2088.42820	1.06410
2086.49983	1.06488
2084.57145	1.06551
2082.64308	1.06598
2080.71471	1.06637
2078.78633	1.06663
2076.85796	1.06688
2074.92959	1.06729
2073.00121	1.06783
2071.07284	1.06840
2069.14447	1.06870
2067.21609	1.06833
2065.28772	1.06788
2063.35935	1.06844
2061.43097	1.06966
2059.50260	1.07067
2057.57423	1.07140
2055.64585	1.07194
2053.71748	1.07241
2051.78911	1.07288
2049.86073	1.07328
2047.93236	1.07360
2046.00399	1.07367
2044.07561	1.07328
2042.14724	1.07288
2040.21887	1.07339
2038.29049	1.07453
2036.36212	1.07536
2034.43375	1.07585
2032.50538	1.07627
2030.57700	1.07662
2028.64863	1.07689
2026.72026	1.07710
2024.79188	1.07725
2022.86351	1.07729
2020.93514	1.07678
2019.00676	1.07534
2017.07839	1.07459
2015.15002	1.07621
2013.22164	1.07848
2011.29327	1.07943
2009.36490	1.07962
2007.43652	1.07989
2005.50815	1.08030
2003.57978	1.08056
2001.65140	1.08056
1999.72303	1.08054
1997.79466	1.08071
1995.86628	1.07999
1993.93791	1.07695
1992.00954	1.07422
1990.08116	1.07527
1988.15279	1.07819
1986.22442	1.08045
1984.29604	1.08189
1982.36767	1.08252
1980.43930	1.08263
1978.51092	1.08263
1976.58255	1.08268
1974.65418	1.08280
1972.72581	1.08279
1970.79743	1.08167
1968.86906	1.07873
1966.94069	1.07690
1965.01231	1.07889
1963.08394	1.08178
1961.15557	1.08281
1959.22719	1.08289
1957.29882	1.08263
1955.37045	1.08225
1953.44207	1.08251
1951.51370	1.08310
1949.58533	1.08292
1947.65695	1.08138
1945.72858	1.07766
1943.80021	1.07255
1941.87183	1.07182
1939.94346	1.07738
1938.01509	1.08230
1936.08671	1.08331
1934.15834	1.08275
1932.22997	1.08244
1930.30159	1.08264
1928.37322	1.08267
1926.44485	1.08075
1924.51647	1.07578
1922.58810	1.07175
1920.65973	1.07046
1918.73135	1.06897
1916.80298	1.07060
1914.87461	1.07611
1912.94624	1.07823
1911.01786	1.07551
1909.08949	1.07335
1907.16112	1.07483
1905.23274	1.07737
1903.30437	1.07842
1901.37600	1.07859
1899.44762	1.07808
1897.51925	1.07566
1895.59088	1.07267
1893.66250	1.07146
1891.73413	1.06893
1889.80576	1.06521
1887.87738	1.06685
1885.94901	1.07151
1884.02064	1.07372
1882.09226	1.07442
1880.16389	1.07469
1878.23552	1.07464
1876.30714	1.07453
1874.37877	1.07346
1872.45040	1.06760
1870.52202	1.05442
1868.59365	1.04420
1866.66528	1.04989
1864.73690	1.06236
1862.80853	1.06885
1860.88016	1.06971
1858.95179	1.06939
1857.02341	1.06959
1855.09504	1.06982
1853.16667	1.06936
1851.23829	1.06734
1849.30992	1.06220
1847.38155	1.05299
1845.45317	1.04177
1843.52480	1.03977
1841.59643	1.05042
1839.66805	1.05863
1837.73968	1.05936
1835.81131	1.05884
1833.88293	1.05680
1831.95456	1.04684
1830.02619	1.03506
1828.09781	1.03400
1826.16944	1.03790
1824.24107	1.04220
1822.31269	1.04962
1820.38432	1.05456
1818.45595	1.05434
1816.52757	1.05322
1814.59920	1.05122
1812.67083	1.04523
1810.74245	1.03944
1808.81408	1.04016
1806.88571	1.04365
1804.95733	1.04245
1803.02896	1.03434
1801.10059	1.02517
1799.17222	1.02331
1797.24384	1.02539
1795.31547	1.02070
1793.38710	1.00831
1791.45872	1.00418
1789.53035	1.01564
1787.60198	1.02482
1785.67360	1.02379
1783.74523	1.01890
1781.81686	1.01386
1779.88848	1.01110
1777.96011	1.01069
1776.03174	1.00433
1774.10336	0.98747
1772.17499	0.97237
1770.24662	0.97530
1768.31824	0.98786
1766.38987	0.99756
1764.46150	0.99775
1762.53312	0.98917
1760.60475	0.98373
1758.67638	0.98280
1756.74800	0.98072
1754.81963	0.97787
1752.89126	0.96684
1750.96288	0.94523
1749.03451	0.93020
1747.10614	0.92951
1745.17777	0.93059
1743.24939	0.92558
1741.32102	0.91579
1739.39265	0.90705
1737.46427	0.89894
1735.53590	0.88129
1733.60753	0.86157
1731.67915	0.86170
1729.75078	0.86969
1727.82241	0.87340
1725.89403	0.87000
1723.96566	0.85927
1722.03729	0.84412
1720.10891	0.81974
1718.18054	0.78422
1716.25217	0.75938
1714.32379	0.75589
1712.39542	0.75302
1710.46705	0.73790
1708.53867	0.70883
1706.61030	0.66798
1704.68193	0.62601
1702.75355	0.58755
1700.82518	0.53697
1698.89681	0.48178
1696.96843	0.44203
1695.04006	0.40629
1693.11169	0.37489
1691.18331	0.34404
1689.25494	0.30811
1687.32657	0.27431
1685.39820	0.23994
1683.46982	0.20557
1681.54145	0.18622
1679.61308	0.17402
1677.68470	0.16006
1675.75633	0.14328
1673.82796	0.12711
1671.89958	0.11400
1669.97121	0.10127
1668.04284	0.08951
1666.11446	0.08078
1664.18609	0.07180
1662.25772	0.06153
1660.32934	0.05274
1658.40097	0.04588
1656.47260	0.04049
1654.54422	0.03640
1652.61585	0.03454
1650.68748	0.03503
1648.75910	0.03735
1646.83073	0.04289
1644.90236	0.05106
1642.97398	0.05854
1641.04561	0.06458
1639.11724	0.06909
1637.18886	0.07238
1635.26049	0.07738
1633.33212	0.08463
1631.40375	0.09159
1629.47537	0.10008
1627.54700	0.11266
1625.61863	0.12991
1623.69025	0.15443
1621.76188	0.18604
1619.83351	0.21526
1617.90513	0.24362
1615.97676	0.28103
1614.04839	0.31909
1612.12001	0.35009
1610.19164	0.37815
1608.26327	0.40556
1606.33489	0.43102
1604.40652	0.45229
1602.47815	0.46944
1600.54977	0.48357
1598.62140	0.49438
1596.69303	0.50169
1594.76465	0.50785
1592.83628	0.51429
1590.90791	0.51976
1588.97953	0.52298
1587.05116	0.52335
1585.12279	0.52069
1583.19441	0.51504
1581.26604	0.50619
1579.33767	0.49212
1577.40929	0.47125
1575.48092	0.45133
1573.55255	0.43957
1571.62418	0.42402
1569.69580	0.39926
1567.76743	0.37611
1565.83906	0.35588
1563.91068	0.33245
1561.98231	0.30621
1560.05394	0.27036
1558.12556	0.23060
1556.19719	0.21421
1554.26882	0.20605
1552.34044	0.19712
1550.41207	0.19002
1548.48370	0.18589
1546.55532	0.18319
1544.62695	0.18011
1542.69858	0.17746
1540.77020	0.17942
1538.84183	0.19243
1536.91346	0.20643
1534.98508	0.21519
1533.05671	0.22498
1531.12834	0.23762
1529.19996	0.24749
1527.27159	0.25452
1525.34322	0.26085
1523.41484	0.26482
1521.48647	0.26820
1519.55810	0.27430
1517.62972	0.28318
1515.70135	0.29874
1513.77298	0.32032
1511.84461	0.34067
1509.91623	0.35391
1507.98786	0.36592
1506.05949	0.40116
1504.13111	0.44719
1502.20274	0.47707
1500.27437	0.49577
1498.34599	0.51256
1496.41762	0.53719
1494.48925	0.56496
1492.56087	0.58060
1490.63250	0.58555
1488.70413	0.59596
1486.77575	0.61668
1484.84738	0.63421
1482.91901	0.64047
1480.99063	0.63772
1479.06226	0.62813
1477.13389	0.60889
1475.20551	0.58094
1473.27714	0.55411
1471.34877	0.54270
1469.42039	0.54213
1467.49202	0.53462
1465.56365	0.51715
1463.63527	0.50122
1461.70690	0.48964
1459.77853	0.47201
1457.85016	0.44781
1455.92178	0.43773
1453.99341	0.44418
1452.06504	0.45037
1450.13666	0.45313
1448.20829	0.45702
1446.27992	0.46711
1444.35154	0.48130
1442.42317	0.49569
1440.49480	0.50754
1438.56642	0.51523
1436.63805	0.52597
1434.70968	0.54517
1432.78130	0.56190
1430.85293	0.57236
1428.92456	0.58183
1426.99618	0.58923
1425.06781	0.59073
1423.13944	0.58868
1421.21106	0.58335
1419.28269	0.57585
1417.35432	0.57748
1415.42594	0.58676
1413.49757	0.59266
1411.56920	0.59426
1409.64082	0.59490
1407.71245	0.59439
1405.78408	0.59258
1403.85570	0.59312
1401.92733	0.59385
1399.99896	0.58954
1398.07059	0.58313
1396.14221	0.57899
1394.21384	0.57873
1392.28547	0.58165
1390.35709	0.58158
1388.42872	0.57746
1386.50035	0.57749
1384.57197	0.58461
1382.64360	0.59226
1380.71523	0.59780
1378.78685	0.60227
1376.85848	0.60459
1374.93011	0.60575
1373.00173	0.61114
1371.07336	0.61993
1369.14499	0.62786
1367.21661	0.63542
1365.28824	0.64071
1363.35987	0.64337
1361.43149	0.64985
1359.50312	0.66000
1357.57475	0.66707
1355.64637	0.66981
1353.71800	0.67091
1351.78963	0.67112
1349.86125	0.66987
1347.93288	0.66763
1346.00451	0.66480
1344.07614	0.66028
1342.14776	0.65227
1340.21939	0.64302
1338.29102	0.63914
1336.36264	0.64129
1334.43427	0.64372
1332.50590	0.64389
1330.57752	0.64313
1328.64915	0.64293
1326.72078	0.64333
1324.79240	0.64360
1322.86403	0.64284
1320.93566	0.64027
1319.00728	0.63683
1317.07891	0.63397
1315.15054	0.63094
1313.22216	0.62715
1311.29379	0.62362
1309.36542	0.62050
1307.43704	0.61775
1305.50867	0.61619
1303.58030	0.61633
1301.65192	0.61797
1299.72355	0.62028
1297.79518	0.62236
1295.86680	0.62362
1293.93843	0.62359
1292.01006	0.62184
1290.08168	0.61843
1288.15331	0.61439
1286.22494	0.61105
1284.29657	0.60877
1282.36819	0.60716
1280.43982	0.60602
1278.51145	0.60538
1276.58307	0.60500
1274.65470	0.60426
1272.72633	0.60293
1270.79795	0.60171
1268.86958	0.60132
1266.94121	0.60159
1265.01283	0.60195
1263.08446	0.60215
1261.15609	0.60212
1259.22771	0.60182
1257.29934	0.60084
1255.37097	0.59870
1253.44259	0.59548
1251.51422	0.59153
1249.58585	0.58719
1247.65747	0.58269
1245.72910	0.57813
1243.80073	0.57389
1241.87235	0.57049
1239.94398	0.56817
1238.01561	0.56736
1236.08723	0.56850
1234.15886	0.57144
1232.23049	0.57594
1230.30212	0.58224
1228.37374	0.59039
1226.44537	0.60004
1224.51700	0.61084
1222.58862	0.62231
1220.66025	0.63404
1218.73188	0.64567
1216.80350	0.65640
1214.87513	0.66511
1212.94676	0.67140
1211.01838	0.67616
1209.09001	0.68028
1207.16164	0.68385
1205.23326	0.68713
1203.30489	0.69075
1201.37652	0.69533
1199.44814	0.70114
1197.51977	0.70804
1195.59140	0.71601
1193.66302	0.72471
1191.73465	0.73307
1189.80628	0.74022
1187.87790	0.74598
1185.94953	0.75058
1184.02116	0.75425
1182.09278	0.75687
1180.16441	0.75815
1178.23604	0.75755
1176.30766	0.75478
1174.37929	0.75089
1172.45092	0.74752
1170.52255	0.74575
1168.59417	0.74573
1166.66580	0.74695
1164.73743	0.74947
1162.80905	0.75381
1160.88068	0.75966
1158.95231	0.76630
1157.02393	0.77331
1155.09556	0.78046
1153.16719	0.78776
1151.23881	0.79547
1149.31044	0.80367
1147.38207	0.81206
1145.45369	0.82001
1143.52532	0.82656
1141.59695	0.83113
1139.66857	0.83392
1137.74020	0.83484
1135.81183	0.83388
1133.88345	0.83160
1131.95508	0.82862
1130.02671	0.82548
1128.09833	0.82264
1126.16996	0.82038
1124.24159	0.81898
1122.31321	0.81864
1120.38484	0.81939
1118.45647	0.82081
1116.52809	0.82257
1114.59972	0.82470
1112.67135	0.82681
1110.74298	0.82841
1108.81460	0.82950
1106.88623	0.83025
1104.95786	0.83092
1103.02948	0.83200
1101.10111	0.83384
1099.17274	0.83603
1097.24436	0.83789
1095.31599	0.83905
1093.38762	0.83964
1091.45924	0.83990
1089.53087	0.83942
1087.60250	0.83797
1085.67412	0.83630
1083.74575	0.83492
1081.81738	0.83391
1079.88900	0.83405
1077.96063	0.83582
1076.03226	0.83868
1074.10388	0.84227
1072.17551	0.84652
1070.24714	0.85102
1068.31876	0.85522
1066.39039	0.85866
1064.46202	0.86107
1062.53364	0.86296
1060.60527	0.86472
1058.67690	0.86572
1056.74853	0.86599
1054.82015	0.86650
1052.89178	0.86756
1050.96341	0.86888
1049.03503	0.87033
1047.10666	0.87151
1045.17829	0.87196
1043.24991	0.87200
1041.32154	0.87227
1039.39317	0.87260
1037.46479	0.87219
1035.53642	0.87100
1033.60805	0.86983
1031.67967	0.86936
1029.75130	0.87033
1027.82293	0.87354
1025.89455	0.87849
1023.96618	0.88408
1022.03781	0.88992
1020.10943	0.89589
1018.18106	0.90194
1016.25269	0.90785
1014.32431	0.91347
1012.39594	0.91929
1010.46757	0.92538
1008.53919	0.93096
1006.61082	0.93571
1004.68245	0.94013
1002.75407	0.94433
1000.82570	0.94777
998.89733	0.95025
996.96896	0.95232
995.04058	0.95457
993.11221	0.95717
991.18384	0.96000
989.25546	0.96272
987.32709	0.96508
985.39872	0.96709
983.47034	0.96916
981.54197	0.97169
979.61360	0.97457
977.68522	0.97740
975.75685	0.98014
973.82848	0.98314
971.90010	0.98634
969.97173	0.98918
968.04336	0.99153
966.11498	0.99335
964.18661	0.99425
962.25824	0.99425
960.32986	0.99385
958.40149	0.99348
956.47312	0.99327
954.54474	0.99339
952.61637	0.99379
950.68800	0.99420
948.75962	0.99459
946.83125	0.99492
944.90288	0.99481
942.97451	0.99431
941.04613	0.99361
939.11776	0.99262
937.18939	0.99145
935.26101	0.99026
933.33264	0.98901
931.40427	0.98794
929.47589	0.98746
927.54752	0.98745
925.61915	0.98771
923.69077	0.98812
921.76240	0.98870
919.83403	0.98947
917.90565	0.99022
915.97728	0.99085
914.04891	0.99104
912.12053	0.99048
910.19216	0.98937
908.26379	0.98805
906.33541	0.98659
904.40704	0.98555
902.47867	0.98565
900.55029	0.98655
898.62192	0.98739
896.69355	0.98785
894.76517	0.98782
892.83680	0.98722
890.90843	0.98614
888.98005	0.98500
887.05168	0.98423
885.12331	0.98367
883.19494	0.98292
881.26656	0.98175
879.33819	0.98002
877.40982	0.97833
875.48144	0.97755
873.55307	0.97742
871.62470	0.97717
869.69632	0.97687
867.76795	0.97716
865.83958	0.97774
863.91120	0.97743
861.98283	0.97593
860.05446	0.97403
858.12608	0.97229
856.19771	0.97018
854.26934	0.96729
852.34096	0.96424
850.41259	0.96147
848.48422	0.95890
846.55584	0.95644
844.62747	0.95383
842.69910	0.95043
840.77072	0.94640
838.84235	0.94265
836.91398	0.93901
834.98560	0.93497
833.05723	0.93122
831.12886	0.92834
829.20049	0.92594
827.27211	0.92413
825.34374	0.92349
823.41537	0.92354
821.48699	0.92313
819.55862	0.92174
817.63025	0.91966
815.70187	0.91738
813.77350	0.91506
811.84513	0.91244
809.91675	0.90958
807.98838	0.90697
806.06001	0.90464
804.13163	0.90201
802.20326	0.89896
800.27489	0.89588
798.34651	0.89264
796.41814	0.88910
794.48977	0.88539
792.56139	0.88147
790.63302	0.87770
788.70465	0.87441
786.77627	0.87152
784.84790	0.86904
782.91953	0.86664
780.99115	0.86382
779.06278	0.86077
777.13441	0.85797
775.20603	0.85549
773.27766	0.85286
771.34929	0.84993
769.42092	0.84695
767.49254	0.84408
765.56417	0.84115
763.63580	0.83793
761.70742	0.83461
759.77905	0.83134
757.85068	0.82792
755.92230	0.82473
753.99393	0.82225
752.06556	0.82009
750.13718	0.81783
748.20881	0.81536
746.28044	0.81260
744.35206	0.80989
742.42369	0.80768
740.49532	0.80568
738.56694	0.80357
736.63857	0.80138
734.71020	0.79846
732.78182	0.79392
730.85345	0.78882
728.92508	0.78512
726.99670	0.78219
725.06833	0.77817
723.13996	0.77279
721.21158	0.76709
719.28321	0.76305
717.35484	0.76121
715.42647	0.75913
713.49809	0.75525
711.56972	0.75041
709.64135	0.74504
707.71297	0.73921
705.78460	0.73418
703.85623	0.73060
701.92785	0.72759
699.99948	0.72454
698.07111	0.72208
696.14273	0.72071
694.21436	0.71919
692.28599	0.71644
690.35761	0.71318
688.42924	0.71012
686.50087	0.70737
684.57249	0.70505
682.64412	0.70250
680.71575	0.69926
678.78737	0.69668
676.85900	0.69540
674.93063	0.69398
673.00225	0.69184
671.07388	0.68976
669.14551	0.68813
667.21713	0.68723
665.28876	0.68699
663.36039	0.68699
661.43201	0.68735
659.50364	0.68827
657.57527	0.68954
655.64690	0.69090
653.71852	0.69185
651.79015	0.69194
649.86178	0.69183
647.93340	0.69247
646.00503	0.69346
644.07666	0.69380
642.14828	0.69347
640.21991	0.69309
638.29154	0.69305
636.36316	0.69310
634.43479	0.69345
632.50642	0.69472
630.57804	0.69559
628.64967	0.69556
626.72130	0.69638
624.79292	0.69843
622.86455	0.70127
620.93618	0.70491
619.00780	0.70861
617.07943	0.71049
615.15106	0.70966
613.22268	0.70824
611.29431	0.70899
609.36594	0.71209
607.43756	0.71465
605.50919	0.71446
603.58082	0.71331
601.65244	0.71464
599.72407	0.71819
