3997.51769	1.11618
3995.58931	1.11516
3993.66094	1.11430
3991.73257	1.11367
3989.80419	1.11345
3987.87582	1.11381
3985.94745	1.11410
3984.01907	1.11376
3982.09070	1.11316
3980.16233	1.11254
3978.23396	1.11162
3976.30558	1.11032
3974.37721	1.10940
3972.44884	1.10932
3970.52046	1.10963
3968.59209	1.11045
3966.66372	1.11169
3964.73534	1.11154
3962.80697	1.10923
3960.87860	1.10743
3958.95022	1.10754
3957.02185	1.10801
3955.09348	1.10788
3953.16510	1.10599
3951.23673	1.10127
3949.30836	1.09669
3947.37998	1.09674
3945.45161	1.09788
3943.52324	1.09554
3941.59486	1.09570
3939.66649	1.10102
3937.73812	1.10477
3935.80974	1.10273
3933.88137	1.09513
3931.95300	1.08795
3930.02462	1.08854
3928.09625	1.09225
3926.16788	1.09056
3924.23950	1.08717
3922.31113	1.08800
3920.38276	1.08766
3918.45439	1.08368
3916.52601	1.08436
3914.59764	1.09282
3912.66927	1.10081
3910.74089	1.10285
3908.81252	1.09836
3906.88415	1.08487
3904.95577	1.06465
3903.02740	1.05032
3901.09903	1.04924
3899.17065	1.05907
3897.24228	1.07506
3895.31391	1.08421
3893.38553	1.07886
3891.45716	1.07150
3889.52879	1.07488
3887.60041	1.07518
3885.67204	1.06677
3883.74367	1.06229
3881.81529	1.06018
3879.88692	1.06219
3877.95855	1.07308
3876.03017	1.07496
3874.10180	1.06356
3872.17343	1.05137
3870.24505	1.04465
3868.31668	1.04842
3866.38831	1.05295
3864.45994	1.04992
3862.53156	1.05340
3860.60319	1.06535
3858.67482	1.06900
3856.74644	1.05700
3854.81807	1.03132
3852.88970	1.01514
3850.96132	1.03612
3849.03295	1.06330
3847.10458	1.07494
3845.17620	1.06984
3843.24783	1.05513
3841.31946	1.03886
3839.39108	1.02613
3837.46271	1.02494
3835.53434	1.03536
3833.60596	1.04565
3831.67759	1.05366
3829.74922	1.06005
3827.82084	1.06070
3825.89247	1.05719
3823.96410	1.04870
3822.03572	1.03067
3820.10735	1.02164
3818.17898	1.03018
3816.25060	1.03920
3814.32223	1.05319
3812.39386	1.06870
3810.46548	1.07123
3808.53711	1.05914
3806.60874	1.04573
3804.68037	1.03941
3802.75199	1.02937
3800.82362	1.02376
3798.89525	1.03319
3796.96687	1.04335
3795.03850	1.05461
3793.11013	1.06742
3791.18175	1.07355
3789.25338	1.07287
3787.32501	1.06790
3785.39663	1.06164
3783.46826	1.05899
3781.53989	1.05559
3779.61151	1.04995
3777.68314	1.05346
3775.75477	1.06311
3773.82639	1.06481
3771.89802	1.05491
3769.96965	1.04248
3768.04127	1.03889
3766.11290	1.04162
3764.18453	1.04606
3762.25615	1.04614
3760.32778	1.03623
3758.39941	1.02735
3756.47103	1.02735
3754.54266	1.02234
3752.61429	1.00267
3750.68591	0.98335
3748.75754	0.98596
3746.82917	0.99174
3744.90080	0.99027
3742.97242	0.99896
3741.04405	1.01255
3739.11568	1.01170
3737.18730	0.99347
3735.25893	0.97448
3733.33056	0.98028
3731.40218	1.00555
3729.47381	1.02455
3727.54544	1.02657
3725.61706	1.01963
3723.68869	1.01613
3721.76032	1.01882
3719.83194	1.02570
3717.90357	1.03294
3715.97520	1.03312
3714.04682	1.01988
3712.11845	0.99824
3710.19008	0.99312
3708.26170	1.01133
3706.33333	1.02882
3704.40496	1.03141
3702.47658	1.02388
3700.54821	1.02243
3698.61984	1.02883
3696.69146	1.03147
3694.76309	1.02599
3692.83472	1.01044
3690.90635	0.98784
3688.97797	0.97812
3687.04960	0.99351
3685.12123	1.01215
3683.19285	1.01876
3681.26448	1.01251
3679.33611	0.99605
3677.40773	0.97142
3675.47936	0.95127
3673.55099	0.95503
3671.62261	0.96150
3669.69424	0.96214
3667.76587	0.97633
3665.83749	0.99485
3663.90912	1.00260
3661.98075	1.00170
3660.05237	0.99594
3658.12400	0.98464
3656.19563	0.97321
3654.26725	0.96681
3652.33888	0.95113
3650.41051	0.91956
3648.48213	0.90234
3646.55376	0.92194
3644.62539	0.94834
3642.69701	0.96136
3640.76864	0.96322
3638.84027	0.96132
3636.91189	0.95718
3634.98352	0.94948
3633.05515	0.93879
3631.12678	0.92239
3629.19840	0.90321
3627.27003	0.90511
3625.34166	0.92226
3623.41328	0.92801
3621.48491	0.91663
3619.55654	0.89843
3617.62816	0.89105
3615.69979	0.89181
3613.77142	0.88974
3611.84304	0.88785
3609.91467	0.88636
3607.98630	0.88491
3606.05792	0.88966
3604.12955	0.89488
3602.20118	0.89154
3600.27280	0.88397
3598.34443	0.87838
3596.41606	0.87281
3594.48768	0.86835
3592.55931	0.86804
3590.63094	0.86414
3588.70256	0.85049
3586.77419	0.84114
3584.84582	0.84752
3582.91744	0.85564
3580.98907	0.85619
3579.06070	0.85228
3577.13233	0.84807
3575.20395	0.84458
3573.27558	0.84107
3571.34721	0.83375
3569.41883	0.81755
3567.49046	0.79830
3565.56209	0.79387
3563.63371	0.80275
3561.70534	0.80894
3559.77697	0.80968
3557.84859	0.80882
3555.92022	0.80573
3553.99185	0.79892
3552.06347	0.79206
3550.13510	0.78799
3548.20673	0.78235
3546.27835	0.77481
3544.34998	0.77204
3542.42161	0.77428
3540.49323	0.77542
3538.56486	0.77247
3536.63649	0.76774
3534.70811	0.76440
3532.77974	0.76111
3530.85137	0.75504
3528.92299	0.74750
3526.99462	0.74192
3525.06625	0.73856
3523.13787	0.73667
3521.20950	0.73634
3519.28113	0.73597
3517.35276	0.73415
3515.42438	0.73137
3513.49601	0.72768
3511.56764	0.72256
3509.63926	0.71750
3507.71089	0.71424
3505.78252	0.71062
3503.85414	0.70539
3501.92577	0.70221
3499.99740	0.70180
3498.06902	0.70052
3496.14065	0.69775
3494.21228	0.69534
3492.28390	0.69341
3490.35553	0.69069
3488.42716	0.68726
3486.49878	0.68410
3484.57041	0.68099
3482.64204	0.67774
3480.71366	0.67572
3478.78529	0.67502
3476.85692	0.67368
3474.92854	0.67149
3473.00017	0.66956
3471.07180	0.66777
3469.14342	0.66541
3467.21505	0.66242
3465.28668	0.65942
3463.35831	0.65674
3461.42993	0.65455
3459.50156	0.65293
3457.57319	0.65141
3455.64481	0.64964
3453.71644	0.64750
3451.78807	0.64464
3449.85969	0.64059
3447.93132	0.63605
3446.00295	0.63318
3444.07457	0.63210
3442.14620	0.63089
3440.21783	0.62911
3438.28945	0.62714
3436.36108	0.62517
3434.43271	0.62324
3432.50433	0.62099
3430.57596	0.61848
3428.64759	0.61595
3426.71921	0.61334
3424.79084	0.61055
3422.86247	0.60740
3420.93409	0.60434
3419.00572	0.60224
3417.07735	0.60093
3415.14897	0.59948
3413.22060	0.59750
3411.29223	0.59524
3409.36385	0.59283
3407.43548	0.59033
3405.50711	0.58785
3403.57874	0.58544
3401.65036	0.58315
3399.72199	0.58083
3397.79362	0.57827
3395.86524	0.57552
3393.93687	0.57268
3392.00850	0.57020
3390.08012	0.56838
3388.15175	0.56630
3386.22338	0.56337
3384.29500	0.56021
3382.36663	0.55726
3380.43826	0.55435
3378.50988	0.55125
3376.58151	0.54786
3374.65314	0.54419
3372.72476	0.54017
3370.79639	0.53563
3368.86802	0.53078
3366.93964	0.52611
3365.01127	0.52165
3363.08290	0.51702
3361.15452	0.51215
3359.22615	0.50739
3357.29778	0.50254
3355.36940	0.49720
3353.44103	0.49154
3351.51266	0.48582
3349.58428	0.48012
3347.65591	0.47441
3345.72754	0.46852
3343.79917	0.46224
3341.87079	0.45560
3339.94242	0.44877
3338.01405	0.44173
3336.08567	0.43463
3334.15730	0.42786
3332.22893	0.42141
3330.30055	0.41481
3328.37218	0.40787
3326.44381	0.40098
3324.51543	0.39439
3322.58706	0.38783
3320.65869	0.38118
3318.73031	0.37452
3316.80194	0.36802
3314.87357	0.36179
3312.94519	0.35584
3311.01682	0.35023
3309.08845	0.34499
3307.16007	0.34011
3305.23170	0.33574
3303.30333	0.33194
3301.37495	0.32848
3299.44658	0.32510
3297.51821	0.32205
3295.58983	0.31967
3293.66146	0.31792
3291.73309	0.31679
3289.80472	0.31638
3287.87634	0.31655
3285.94797	0.31725
3284.01960	0.31868
3282.09122	0.32081
3280.16285	0.32355
3278.23448	0.32688
3276.30610	0.33077
3274.37773	0.33537
3272.44936	0.34086
3270.52098	0.34720
3268.59261	0.35424
3266.66424	0.36176
3264.73586	0.36973
3262.80749	0.37840
3260.87912	0.38773
3258.95074	0.39739
3257.02237	0.40718
3255.09400	0.41691
3253.16562	0.42675
3251.23725	0.43696
3249.30888	0.44713
3247.38050	0.45668
3245.45213	0.46574
3243.52376	0.47479
3241.59538	0.48355
3239.66701	0.49162
3237.73864	0.49904
3235.81026	0.50590
3233.88189	0.51228
3231.95352	0.51826
3230.02515	0.52375
3228.09677	0.52883
3226.16840	0.53366
3224.24003	0.53829
3222.31165	0.54261
3220.38328	0.54658
3218.45491	0.55047
3216.52653	0.55449
3214.59816	0.55852
3212.66979	0.56259
3210.74141	0.56674
3208.81304	0.57106
3206.88467	0.57570
3204.95629	0.58032
3203.02792	0.58463
3201.09955	0.58872
3199.17117	0.59284
3197.24280	0.59729
3195.31443	0.60226
3193.38605	0.60744
3191.45768	0.61251
3189.52931	0.61750
3187.60093	0.62226
3185.67256	0.62678
3183.74419	0.63151
3181.81581	0.63651
3179.88744	0.64147
3177.95907	0.64647
3176.03070	0.65162
3174.10232	0.65675
3172.17395	0.66168
3170.24558	0.66645
3168.31720	0.67106
3166.38883	0.67551
3164.46046	0.67995
3162.53208	0.68444
3160.60371	0.68875
3158.67534	0.69279
3156.74696	0.69675
3154.81859	0.70077
3152.89022	0.70471
3150.96184	0.70846
3149.03347	0.71207
3147.10510	0.71545
3145.17672	0.71853
3143.24835	0.72146
3141.31998	0.72436
3139.39160	0.72727
3137.46323	0.73006
3135.53486	0.73228
3133.60648	0.73406
3131.67811	0.73615
3129.74974	0.73822
3127.82136	0.73956
3125.89299	0.74052
3123.96462	0.74143
3122.03624	0.74226
3120.10787	0.74306
3118.17950	0.74367
3116.25113	0.74408
3114.32275	0.74454
3112.39438	0.74484
3110.46601	0.74469
3108.53763	0.74428
3106.60926	0.74391
3104.68089	0.74323
3102.75251	0.74171
3100.82414	0.73992
3098.89577	0.73863
3096.96739	0.73751
3095.03902	0.73616
3093.11065	0.73472
3091.18227	0.73315
3089.25390	0.73143
3087.32553	0.72975
3085.39715	0.72810
3083.46878	0.72639
3081.54041	0.72489
3079.61203	0.72390
3077.68366	0.72358
3075.75529	0.72377
3073.82691	0.72410
3071.89854	0.72451
3069.97017	0.72512
3068.04179	0.72572
3066.11342	0.72663
3064.18505	0.72868
3062.25668	0.73178
3060.32830	0.73503
3058.39993	0.73805
3056.47156	0.74132
3054.54318	0.74526
3052.61481	0.74954
3050.68644	0.75366
3048.75806	0.75781
3046.82969	0.76227
3044.90132	0.76692
3042.97294	0.77159
3041.04457	0.77630
3039.11620	0.78085
3037.18782	0.78470
3035.25945	0.78792
3033.33108	0.79117
3031.40270	0.79500
3029.47433	0.79964
3027.54596	0.80439
3025.61758	0.80856
3023.68921	0.81234
3021.76084	0.81602
3019.83246	0.81947
3017.90409	0.82262
3015.97572	0.82550
3014.04734	0.82798
3012.11897	0.83018
3010.19060	0.83243
3008.26222	0.83444
3006.33385	0.83563
3004.40548	0.83599
3002.47711	0.83561
3000.54873	0.83437
2998.62036	0.83222
2996.69199	0.82911
2994.76361	0.82489
2992.83524	0.81959
2990.90687	0.81329
2988.97849	0.80601
2987.05012	0.79792
2985.12175	0.78933
2983.19337	0.78046
2981.26500	0.77150
2979.33663	0.76253
2977.40825	0.75360
2975.47988	0.74482
2973.55151	0.73631
2971.62313	0.72818
2969.69476	0.72054
2967.76639	0.71385
2965.83801	0.70877
2963.90964	0.70566
2961.98127	0.70502
2960.05289	0.70751
2958.12452	0.71303
2956.19615	0.72093
2954.26777	0.73033
2952.33940	0.73987
2950.41103	0.74778
2948.48266	0.75295
2946.55428	0.75516
2944.62591	0.75444
2942.69754	0.75131
2940.76916	0.74680
2938.84079	0.74202
2936.91242	0.73800
2934.98404	0.73518
2933.05567	0.73341
2931.12730	0.73230
2929.19892	0.73140
2927.27055	0.72982
2925.34218	0.72637
2923.41380	0.71987
2921.48543	0.71021
2919.55706	0.69985
2917.62868	0.69492
2915.70031	0.70236
2913.77194	0.72249
2911.84356	0.74747
2909.91519	0.76939
2907.98682	0.78590
2906.05844	0.79789
2904.13007	0.80653
2902.20170	0.81283
2900.27332	0.81792
2898.34495	0.82239
2896.41658	0.82615
2894.48820	0.82929
2892.55983	0.83218
2890.63146	0.83458
2888.70309	0.83580
2886.77471	0.83569
2884.84634	0.83449
2882.91797	0.83223
2880.98959	0.82910
2879.06122	0.82588
2877.13285	0.82386
2875.20447	0.82444
2873.27610	0.82865
2871.34773	0.83644
2869.41935	0.84668
2867.49098	0.85782
2865.56261	0.86829
2863.63423	0.87685
2861.70586	0.88282
2859.77749	0.88599
2857.84911	0.88623
2855.92074	0.88273
2853.99237	0.87324
2852.06399	0.85655
2850.13562	0.83990
2848.20725	0.83859
2846.27887	0.85802
2844.35050	0.88555
2842.42213	0.90769
2840.49375	0.92186
2838.56538	0.93082
2836.63701	0.93700
2834.70863	0.94160
2832.78026	0.94525
2830.85189	0.94846
2828.92352	0.95139
2826.99514	0.95401
2825.06677	0.95640
2823.13840	0.95855
2821.21002	0.96027
2819.28165	0.96182
2817.35328	0.96360
2815.42490	0.96555
2813.49653	0.96748
2811.56816	0.96954
2809.63978	0.97174
2807.71141	0.97389
2805.78304	0.97596
2803.85466	0.97796
2801.92629	0.97979
2799.99792	0.98154
2798.06954	0.98349
2796.14117	0.98565
2794.21280	0.98763
2792.28442	0.98936
2790.35605	0.99114
2788.42768	0.99304
2786.49930	0.99499
2784.57093	0.99693
2782.64256	0.99875
2780.71418	1.00038
2778.78581	1.00185
2776.85744	1.00340
2774.92907	1.00521
2773.00069	1.00705
2771.07232	1.00875
2769.14395	1.01042
2767.21557	1.01203
2765.28720	1.01349
2763.35883	1.01503
2761.43045	1.01672
2759.50208	1.01825
2757.57371	1.01953
2755.64533	1.02093
2753.71696	1.02255
2751.78859	1.02408
2749.86021	1.02542
2747.93184	1.02672
2746.00347	1.02797
2744.07509	1.02905
2742.14672	1.03001
2740.21835	1.03113
2738.28997	1.03256
2736.36160	1.03401
2734.43323	1.03529
2732.50485	1.03641
2730.57648	1.03750
2728.64811	1.03863
2726.71973	1.03974
2724.79136	1.04085
2722.86299	1.04210
2720.93461	1.04351
2719.00624	1.04486
2717.07787	1.04595
2715.14950	1.04680
2713.22112	1.04765
2711.29275	1.04863
2709.36438	1.04968
2707.43600	1.05072
2705.50763	1.05171
2703.57926	1.05257
2701.65088	1.05334
2699.72251	1.05409
2697.79414	1.05470
2695.86576	1.05515
2693.93739	1.05567
2692.00902	1.05630
2690.08064	1.05687
2688.15227	1.05726
2686.22390	1.05756
2684.29552	1.05796
2682.36715	1.05850
2680.43878	1.05906
2678.51040	1.05958
2676.58203	1.06016
2674.65366	1.06081
2672.72528	1.06139
2670.79691	1.06184
2668.86854	1.06226
2666.94016	1.06270
2665.01179	1.06304
2663.08342	1.06334
2661.15505	1.06376
2659.22667	1.06419
2657.29830	1.06446
2655.36993	1.06459
2653.44155	1.06475
2651.51318	1.06502
2649.58481	1.06524
2647.65643	1.06541
2645.72806	1.06562
2643.79969	1.06586
2641.87131	1.06604
2639.94294	1.06608
2638.01457	1.06613
2636.08619	1.06634
2634.15782	1.06660
2632.22945	1.06683
2630.30107	1.06693
2628.37270	1.06690
2626.44433	1.06685
2624.51595	1.06687
2622.58758	1.06698
2620.65921	1.06719
2618.73083	1.06742
2616.80246	1.06766
2614.87409	1.06792
2612.94571	1.06810
2611.01734	1.06813
2609.08897	1.06812
2607.16059	1.06821
2605.23222	1.06835
2603.30385	1.06859
2601.37548	1.06897
2599.44710	1.06930
2597.51873	1.06950
2595.59036	1.06964
2593.66198	1.06986
2591.73361	1.07015
2589.80524	1.07030
2587.87686	1.07030
2585.94849	1.07036
2584.02012	1.07040
2582.09174	1.07033
2580.16337	1.07040
2578.23500	1.07066
2576.30662	1.07081
2574.37825	1.07083
2572.44988	1.07095
2570.52150	1.07123
2568.59313	1.07143
2566.66476	1.07133
2564.73638	1.07108
2562.80801	1.07094
2560.87964	1.07103
2558.95126	1.07116
2557.02289	1.07112
2555.09452	1.07100
2553.16614	1.07098
2551.23777	1.07103
2549.30940	1.07101
2547.38103	1.07095
2545.45265	1.07089
2543.52428	1.07070
2541.59591	1.07051
2539.66753	1.07054
2537.73916	1.07073
2535.81079	1.07075
2533.88241	1.07041
2531.95404	1.06987
2530.02567	1.06943
2528.09729	1.06914
2526.16892	1.06883
2524.24055	1.06845
2522.31217	1.06818
2520.38380	1.06802
2518.45543	1.06784
2516.52705	1.06762
2514.59868	1.06724
2512.67031	1.06651
2510.74193	1.06574
2508.81356	1.06534
2506.88519	1.06516
2504.95681	1.06481
2503.02844	1.06423
2501.10007	1.06369
2499.17169	1.06331
2497.24332	1.06304
2495.31495	1.06285
2493.38657	1.06260
2491.45820	1.06223
2489.52983	1.06181
2487.60146	1.06135
2485.67308	1.06088
2483.74471	1.06049
2481.81634	1.06018
2479.88796	1.05990
2477.95959	1.05961
2476.03122	1.05931
2474.10284	1.05902
2472.17447	1.05873
2470.24610	1.05837
2468.31772	1.05790
2466.38935	1.05739
2464.46098	1.05686
2462.53260	1.05636
2460.60423	1.05600
2458.67586	1.05565
2456.74748	1.05517
2454.81911	1.05471
2452.89074	1.05430
2450.96236	1.05389
2449.03399	1.05342
2447.10562	1.05289
2445.17724	1.05230
2443.24887	1.05169
2441.32050	1.05120
2439.39212	1.05081
2437.46375	1.05032
2435.53538	1.04980
2433.60700	1.04936
2431.67863	1.04891
2429.75026	1.04845
2427.82189	1.04799
2425.89351	1.04744
2423.96514	1.04683
2422.03677	1.04631
2420.10839	1.04591
2418.18002	1.04559
2416.25165	1.04523
2414.32327	1.04479
2412.39490	1.04429
2410.46653	1.04370
2408.53815	1.04299
2406.60978	1.04239
2404.68141	1.04207
2402.75303	1.04169
2400.82466	1.04099
2398.89629	1.04019
2396.96791	1.03956
2395.03954	1.03907
2393.11117	1.03857
2391.18279	1.03791
2389.25442	1.03698
2387.32605	1.03570
2385.39767	1.03395
2383.46930	1.03161
2381.54093	1.02863
2379.61255	1.02522
2377.68418	1.02189
2375.75581	1.01892
2373.82744	1.01610
2371.89906	1.01315
2369.97069	1.01029
2368.04232	1.00817
2366.11394	1.00669
2364.18557	1.00514
2362.25720	1.00368
2360.32882	1.00276
2358.40045	1.00244
2356.47208	1.00237
2354.54370	1.00230
2352.61533	1.00284
2350.68696	1.00411
2348.75858	1.00467
2346.83021	1.00339
2344.90184	1.00081
2342.97346	0.99903
2341.04509	0.99852
2339.11672	0.99852
2337.18834	0.99876
2335.25997	0.99872
2333.33160	0.99838
2331.40322	0.99795
2329.47485	0.99726
2327.54648	0.99638
2325.61810	0.99575
2323.68973	0.99546
2321.76136	0.99569
2319.83298	0.99659
2317.90461	0.99764
2315.97624	0.99832
2314.04787	0.99881
2312.11949	0.99931
2310.19112	0.99979
2308.26275	1.00024
2306.33437	1.00077
2304.40600	1.00137
2302.47763	1.00177
2300.54925	1.00194
2298.62088	1.00206
2296.69251	1.00217
2294.76413	1.00235
2292.83576	1.00258
2290.90739	1.00264
2288.97901	1.00240
2287.05064	1.00210
2285.12227	1.00195
2283.19389	1.00176
2281.26552	1.00126
2279.33715	1.00051
2277.40877	0.99975
2275.48040	0.99910
2273.55203	0.99856
2271.62365	0.99804
2269.69528	0.99757
2267.76691	0.99714
2265.83853	0.99656
2263.91016	0.99587
2261.98179	0.99527
2260.05342	0.99477
2258.12504	0.99427
2256.19667	0.99375
2254.26830	0.99334
2252.33992	0.99300
2250.41155	0.99249
2248.48318	0.99178
2246.55480	0.99113
2244.62643	0.99066
2242.69806	0.99018
2240.76968	0.98960
2238.84131	0.98897
2236.91294	0.98837
2234.98456	0.98777
2233.05619	0.98717
2231.12782	0.98664
2229.19944	0.98621
2227.27107	0.98575
2225.34270	0.98515
2223.41432	0.98445
2221.48595	0.98386
2219.55758	0.98347
2217.62920	0.98312
2215.70083	0.98258
2213.77246	0.98192
2211.84408	0.98140
2209.91571	0.98097
2207.98734	0.98050
2206.05896	0.98002
2204.13059	0.97947
2202.20222	0.97887
2200.27385	0.97835
2198.34547	0.97792
2196.41710	0.97746
2194.48873	0.97696
2192.56035	0.97648
2190.63198	0.97602
2188.70361	0.97557
2186.77523	0.97519
2184.84686	0.97487
2182.91849	0.97454
2180.99011	0.97421
2179.06174	0.97397
2177.13337	0.97372
2175.20499	0.97316
2173.27662	0.97240
2171.34825	0.97191
2169.41987	0.97171
2167.49150	0.97154
2165.56313	0.97122
2163.63475	0.97071
2161.70638	0.97013
2159.77801	0.96970
2157.84963	0.96946
2155.92126	0.96933
2153.99289	0.96915
2152.06451	0.96880
2150.13614	0.96832
2148.20777	0.96786
2146.27940	0.96751
2144.35102	0.96723
2142.42265	0.96700
2140.49428	0.96670
2138.56590	0.96629
2136.63753	0.96591
2134.70916	0.96574
2132.78078	0.96568
2130.85241	0.96559
2128.92404	0.96542
2126.99566	0.96517
2125.06729	0.96487
2123.13892	0.96459
2121.21054	0.96445
2119.28217	0.96436
2117.35380	0.96415
2115.42542	0.96377
2113.49705	0.96345
2111.56868	0.96337
2109.64030	0.96341
2107.71193	0.96341
2105.78356	0.96332
2103.85518	0.96315
2101.92681	0.96304
2099.99844	0.96305
2098.07006	0.96309
2096.14169	0.96311
2094.21332	0.96302
2092.28494	0.96263
2090.35657	0.96213
2088.42820	0.96210
2086.49983	0.96254
2084.57145	0.96292
2082.64308	0.96304
2080.71471	0.96296
2078.78633	0.96278
2076.85796	0.96268
2074.92959	0.96273
2073.00121	0.96278
2071.07284	0.96287
2069.14447	0.96288
2067.21609	0.96229
2065.28772	0.96150
2063.35935	0.96163
2061.43097	0.96248
2059.50260	0.96320
2057.57423	0.96359
2055.64585	0.96373
2053.71748	0.96387
2051.78911	0.96410
2049.86073	0.96420
2047.93236	0.96415
2046.00399	0.96403
2044.07561	0.96367
2042.14724	0.96329
2040.21887	0.96369
2038.29049	0.96470
2036.36212	0.96534
2034.43375	0.96555
2032.50538	0.96577
2030.57700	0.96609
2028.64863	0.96630
2026.72026	0.96632
2024.79188	0.96627
2022.86351	0.96623
2020.93514	0.96572
2019.00676	0.96438
2017.07839	0.96375
2015.15002	0.96533
2013.22164	0.96751
2011.29327	0.96851
2009.36490	0.96880
2007.43652	0.96908
2005.50815	0.96946
2003.57978	0.96982
2001.65140	0.97008
1999.72303	0.97022
1997.79466	0.97037
1995.86628	0.96970
1993.93791	0.96702
1992.00954	0.96469
1990.08116	0.96586
1988.15279	0.96884
1986.22442	0.97132
1984.29604	0.97303
1982.36767	0.97383
1980.43930	0.97411
1978.51092	0.97431
1976.58255	0.97462
1974.65418	0.97511
1972.72581	0.97555
1970.79743	0.97492
1968.86906	0.97249
1966.94069	0.97107
1965.01231	0.97321
1963.08394	0.97622
1961.15557	0.97763
1959.22719	0.97828
1957.29882	0.97859
1955.37045	0.97875
1953.44207	0.97950
1951.51370	0.98050
1949.58533	0.98073
1947.65695	0.97962
1945.72858	0.97651
1943.80021	0.97234
1941.87183	0.97243
1939.94346	0.97824
1938.01509	0.98333
1936.08671	0.98498
1934.15834	0.98531
1932.22997	0.98583
1930.30159	0.98674
1928.37322	0.98747
1926.44485	0.98625
1924.51647	0.98213
1922.58810	0.97904
1920.65973	0.97866
1918.73135	0.97815
1916.80298	0.98065
1914.87461	0.98673
1912.94624	0.98946
1911.01786	0.98764
1909.08949	0.98644
1907.16112	0.98868
1905.23274	0.99191
1903.30437	0.99389
1901.37600	0.99511
1899.44762	0.99558
1897.51925	0.99415
1895.59088	0.99231
1893.66250	0.99221
1891.73413	0.99070
1889.80576	0.98810
1887.87738	0.99080
1885.94901	0.99639
1884.02064	0.99969
1882.09226	1.00165
1880.16389	1.00313
1878.23552	1.00411
1876.30714	1.00490
1874.37877	1.00491
1872.45040	1.00042
1870.52202	0.98879
1868.59365	0.98003
1866.66528	0.98677
1864.73690	1.00011
1862.80853	1.00766
1860.88016	1.00978
1858.95179	1.01077
1857.02341	1.01225
1855.09504	1.01374
1853.16667	1.01461
1851.23829	1.01404
1849.30992	1.01042
1847.38155	1.00269
1845.45317	0.99300
1843.52480	0.99262
1841.59643	1.00462
1839.66805	1.01405
1837.73968	1.01619
1835.81131	1.01724
1833.88293	1.01674
1831.95456	1.00830
1830.02619	0.99807
1828.09781	0.99845
1826.16944	1.00382
1824.24107	1.00989
1822.31269	1.01914
1820.38432	1.02583
1818.45595	1.02740
1816.52757	1.02796
1814.59920	1.02735
1812.67083	1.02272
1810.74245	1.01875
1808.81408	1.02168
1806.88571	1.02731
1804.95733	1.02796
1803.02896	1.02149
1801.10059	1.01402
1799.17222	1.01417
1797.24384	1.01833
1795.31547	1.01536
1793.38710	1.00469
1791.45872	1.00314
1789.53035	1.01767
1787.60198	1.02940
1785.67360	1.03049
1783.74523	1.02764
1781.81686	1.02456
1779.88848	1.02392
1777.96011	1.02582
1776.03174	1.02136
1774.10336	1.00571
1772.17499	0.99207
1770.24662	0.99746
1768.31824	1.01284
1766.38987	1.02521
1764.46150	1.02746
1762.53312	1.02072
1760.60475	1.01769
1758.67638	1.01932
1756.74800	1.01987
1754.81963	1.01981
1752.89126	1.01104
1750.96288	0.99153
1749.03451	0.97992
1747.10614	0.98382
1745.17777	0.98947
1743.24939	0.98867
1741.32102	0.98308
1739.39265	0.97898
1737.46427	0.97464
1735.53590	0.95900
1733.60753	0.94237
1731.67915	0.94833
1729.75078	0.96221
1727.82241	0.97106
1725.89403	0.97160
1723.96566	0.96374
1722.03729	0.95076
1720.10891	0.92688
1718.18054	0.89084
1716.25217	0.86840
1714.32379	0.87060
1712.39542	0.87329
1710.46705	0.86203
1708.53867	0.83471
1706.61030	0.79446
1704.68193	0.75380
1702.75355	0.71632
1700.82518	0.66518
1698.89681	0.61056
1696.96843	0.57316
1695.04006	0.54074
1693.11169	0.51225
1691.18331	0.48128
1689.25494	0.44257
1687.32657	0.40468
1685.39820	0.36394
1683.46982	0.32348
1681.54145	0.30289
1679.61308	0.28985
1677.68470	0.27264
1675.75633	0.25056
1673.82796	0.22896
1671.89958	0.21096
1669.97121	0.19257
1668.04284	0.17609
1666.11446	0.16396
1664.18609	0.14988
1662.25772	0.13266
1660.32934	0.11788
1658.40097	0.10609
1656.47260	0.09548
1654.54422	0.08557
1652.61585	0.08023
1650.68748	0.08236
1648.75910	0.08700
1646.83073	0.09613
1644.90236	0.11007
1642.97398	0.12245
1641.04561	0.13147
1639.11724	0.13714
1637.18886	0.14022
1635.26049	0.14621
1633.33212	0.15676
1631.40375	0.16650
1629.47537	0.17687
1627.54700	0.19181
1625.61863	0.21190
1623.69025	0.23930
1621.76188	0.27422
1619.83351	0.30570
1617.90513	0.33416
1615.97676	0.37143
1614.04839	0.41059
1612.12001	0.44213
1610.19164	0.46962
1608.26327	0.49650
1606.33489	0.52218
1604.40652	0.54426
1602.47815	0.56276
1600.54977	0.57875
1598.62140	0.59152
1596.69303	0.60055
1594.76465	0.60852
1592.83628	0.61717
1590.90791	0.62518
1588.97953	0.63129
1587.05116	0.63474
1585.12279	0.63493
1583.19441	0.63190
1581.26604	0.62526
1579.33767	0.61201
1577.40929	0.59063
1575.48092	0.57203
1573.55255	0.56339
1571.62418	0.54863
1569.69580	0.52298
1567.76743	0.50050
1565.83906	0.48137
1563.91068	0.45747
1561.98231	0.42817
1560.05394	0.38477
1558.12556	0.33821
1556.19719	0.32273
1554.26882	0.31567
1552.34044	0.30576
1550.41207	0.29689
1548.48370	0.29123
1546.55532	0.28675
1544.62695	0.28069
1542.69858	0.27438
1540.77020	0.27398
1538.84183	0.28960
1536.91346	0.30768
1534.98508	0.31763
1533.05671	0.32770
1531.12834	0.34193
1529.19996	0.35268
1527.27159	0.35893
1525.34322	0.36407
1523.41484	0.36658
1521.48647	0.36882
1519.55810	0.37522
1517.62972	0.38472
1515.70135	0.40122
1513.77298	0.42405
1511.84461	0.44425
1509.91623	0.45499
1507.98786	0.46298
1506.05949	0.49778
1504.13111	0.54795
1502.20274	0.57998
1500.27437	0.59770
1498.34599	0.61238
1496.41762	0.63672
1494.48925	0.66607
1492.56087	0.68206
1490.63250	0.68583
1488.70413	0.69713
1486.77575	0.72244
1484.84738	0.74504
1482.91901	0.75508
1480.99063	0.75541
1479.06226	0.74819
1477.13389	0.72971
1475.20551	0.70107
1473.27714	0.67399
1471.34877	0.66553
1469.42039	0.66913
1467.49202	0.66325
1465.56365	0.64537
1463.63527	0.62980
1461.70690	0.61849
1459.77853	0.59831
1457.85016	0.57005
1455.92178	0.56021
1453.99341	0.57019
1452.06504	0.57873
1450.13666	0.58231
1448.20829	0.58651
1446.27992	0.59754
1444.35154	0.61299
1442.42317	0.62805
1440.49480	0.63976
1438.56642	0.64629
1436.63805	0.65651
1434.70968	0.67801
1432.78130	0.69740
1430.85293	0.70938
1428.92456	0.72076
1426.99618	0.73032
1425.06781	0.73272
1423.13944	0.73049
1421.21106	0.72412
1419.28269	0.71533
1417.35432	0.71827
1415.42594	0.73055
1413.49757	0.73819
1411.56920	0.74031
1409.64082	0.74136
1407.71245	0.74088
1405.78408	0.73866
1403.85570	0.73965
1401.92733	0.74119
1399.99896	0.73649
1398.07059	0.72902
1396.14221	0.72464
1394.21384	0.72596
1392.28547	0.73169
1390.35709	0.73305
1388.42872	0.72856
1386.50035	0.72891
1384.57197	0.73782
1382.64360	0.74700
1380.71523	0.75315
1378.78685	0.75768
1376.85848	0.75932
1374.93011	0.75957
1373.00173	0.76556
1371.07336	0.77596
1369.14499	0.78482
1367.21661	0.79280
1365.28824	0.79789
1363.35987	0.79968
1361.43149	0.80656
1359.50312	0.81861
1357.57475	0.82702
1355.64637	0.83024
1353.71800	0.83169
1351.78963	0.83218
1349.86125	0.83097
1347.93288	0.82870
1346.00451	0.82576
1344.07614	0.82081
1342.14776	0.81173
1340.21939	0.80107
1338.29102	0.79684
1336.36264	0.79999
1334.43427	0.80351
1332.50590	0.80417
1330.57752	0.80363
1328.64915	0.80377
1326.72078	0.80456
1324.79240	0.80504
1322.86403	0.80420
1320.93566	0.80128
1319.00728	0.79771
1317.07891	0.79531
1315.15054	0.79284
1313.22216	0.78936
1311.29379	0.78613
1309.36542	0.78330
1307.43704	0.78073
1305.50867	0.77936
1303.58030	0.77978
1301.65192	0.78178
1299.72355	0.78455
1297.79518	0.78711
1295.86680	0.78875
1293.93843	0.78892
1292.01006	0.78728
1290.08168	0.78399
1288.15331	0.78017
1286.22494	0.77732
1284.29657	0.77575
1282.36819	0.77471
1280.43982	0.77384
1278.51145	0.77318
1276.58307	0.77264
1274.65470	0.77185
1272.72633	0.77056
1270.79795	0.76933
1268.86958	0.76889
1266.94121	0.76911
1265.01283	0.76936
1263.08446	0.76910
1261.15609	0.76830
1259.22771	0.76747
1257.29934	0.76634
1255.37097	0.76394
1253.44259	0.76000
1251.51422	0.75518
1249.58585	0.75012
1247.65747	0.74508
1245.72910	0.74015
1243.80073	0.73576
1241.87235	0.73238
1239.94398	0.73019
1238.01561	0.72958
1236.08723	0.73104
1234.15886	0.73440
1232.23049	0.73933
1230.30212	0.74627
1228.37374	0.75558
1226.44537	0.76653
1224.51700	0.77835
1222.58862	0.79065
1220.66025	0.80306
1218.73188	0.81484
1216.80350	0.82507
1214.87513	0.83335
1212.94676	0.83962
1211.01838	0.84379
1209.09001	0.84643
1207.16164	0.84875
1205.23326	0.85131
1203.30489	0.85402
1201.37652	0.85739
1199.44814	0.86224
1197.51977	0.86872
1195.59140	0.87635
1193.66302	0.88449
1191.73465	0.89221
1189.80628	0.89850
1187.87790	0.90305
1185.94953	0.90609
1184.02116	0.90783
1182.09278	0.90864
1180.16441	0.90860
1178.23604	0.90701
1176.30766	0.90362
1174.37929	0.89959
1172.45092	0.89636
1170.52255	0.89460
1168.59417	0.89401
1166.66580	0.89412
1164.73743	0.89517
1162.80905	0.89759
1160.88068	0.90112
1158.95231	0.90536
1157.02393	0.91016
1155.09556	0.91539
1153.16719	0.92071
1151.23881	0.92611
1149.31044	0.93199
1147.38207	0.93831
1145.45369	0.94435
1143.52532	0.94898
1141.59695	0.95158
1139.66857	0.95246
1137.74020	0.95186
1135.81183	0.94971
1133.88345	0.94640
1131.95508	0.94258
1130.02671	0.93872
1128.09833	0.93508
1126.16996	0.93197
1124.24159	0.92943
1122.31321	0.92746
1120.38484	0.92648
1118.45647	0.92627
1116.52809	0.92617
1114.59972	0.92620
1112.67135	0.92647
1110.74298	0.92654
1108.81460	0.92632
1106.88623	0.92626
1104.95786	0.92640
1103.02948	0.92674
1101.10111	0.92770
1099.17274	0.92905
1097.24436	0.92978
1095.31599	0.92949
1093.38762	0.92866
1091.45924	0.92761
1089.53087	0.92612
1087.60250	0.92397
1085.67412	0.92127
1083.74575	0.91842
1081.81738	0.91590
1079.88900	0.91420
1077.96063	0.91360
1076.03226	0.91392
1074.10388	0.91497
1072.17551	0.91679
1070.24714	0.91890
1068.31876	0.92059
1066.39039	0.92164
1064.46202	0.92200
1062.53364	0.92202
1060.60527	0.92198
1058.67690	0.92149
1056.74853	0.92049
1054.82015	0.91962
1052.89178	0.91915
1050.96341	0.91888
1049.03503	0.91860
1047.10666	0.91803
1045.17829	0.91679
1043.24991	0.91513
1041.32154	0.91362
1039.39317	0.91199
1037.46479	0.90966
1035.53642	0.90702
1033.60805	0.90494
1031.67967	0.90407
1029.75130	0.90472
1027.82293	0.90680
1025.89455	0.90974
1023.96618	0.91303
1022.03781	0.91626
1020.10943	0.91930
1018.18106	0.92231
1016.25269	0.92533
1014.32431	0.92809
1012.39594	0.93073
1010.46757	0.93350
1008.53919	0.93606
1006.61082	0.93812
1004.68245	0.93988
1002.75407	0.94171
1000.82570	0.94363
998.89733	0.94522
996.96896	0.94638
995.04058	0.94736
993.11221	0.94827
991.18384	0.94905
989.25546	0.94967
987.32709	0.95027
985.39872	0.95093
983.47034	0.95148
981.54197	0.95186
979.61360	0.95229
977.68522	0.95307
975.75685	0.95416
973.82848	0.95531
971.90010	0.95625
969.97173	0.95697
968.04336	0.95777
966.11498	0.95844
964.18661	0.95821
962.25824	0.95706
960.32986	0.95567
958.40149	0.95441
956.47312	0.95321
954.54474	0.95197
952.61637	0.95093
950.68800	0.95022
948.75962	0.94951
946.83125	0.94844
944.90288	0.94714
942.97451	0.94598
941.04613	0.94501
939.11776	0.94374
937.18939	0.94202
935.26101	0.94055
933.33264	0.93967
931.40427	0.93894
929.47589	0.93800
927.54752	0.93701
925.61915	0.93623
923.69077	0.93569
921.76240	0.93528
919.83403	0.93486
917.90565	0.93456
915.97728	0.93451
914.04891	0.93430
912.12053	0.93361
910.19216	0.93274
908.26379	0.93208
906.33541	0.93130
904.40704	0.93025
902.47867	0.92969
900.55029	0.92977
898.62192	0.92968
896.69355	0.92926
894.76517	0.92887
892.83680	0.92834
890.90843	0.92760
888.98005	0.92684
887.05168	0.92596
885.12331	0.92525
883.19494	0.92472
881.26656	0.92375
879.33819	0.92253
877.40982	0.92148
875.48144	0.92066
873.55307	0.92013
871.62470	0.91981
869.69632	0.91972
867.76795	0.92003
865.83958	0.92016
863.91120	0.91910
861.98283	0.91718
860.05446	0.91574
858.12608	0.91491
856.19771	0.91348
854.26934	0.91118
852.34096	0.90902
850.41259	0.90740
848.48422	0.90601
846.55584	0.90476
844.62747	0.90324
842.69910	0.90097
840.77072	0.89836
838.84235	0.89587
836.91398	0.89326
834.98560	0.89045
833.05723	0.88803
831.12886	0.88617
829.20049	0.88448
827.27211	0.88334
825.34374	0.88304
823.41537	0.88301
821.48699	0.88275
819.55862	0.88214
817.63025	0.88134
815.70187	0.88045
813.77350	0.87922
811.84513	0.87775
809.91675	0.87632
807.98838	0.87500
806.06001	0.87369
804.13163	0.87222
802.20326	0.87037
800.27489	0.86805
798.34651	0.86557
796.41814	0.86315
794.48977	0.86040
792.56139	0.85746
790.63302	0.85507
788.70465	0.85330
786.77627	0.85162
784.84790	0.84996
782.91953	0.84864
780.99115	0.84740
779.06278	0.84581
777.13441	0.84424
775.20603	0.84295
773.27766	0.84131
771.34929	0.83900
769.42092	0.83656
767.49254	0.83450
765.56417	0.83240
763.63580	0.82991
761.70742	0.82772
759.77905	0.82600
757.85068	0.82393
755.92230	0.82160
753.99393	0.81955
752.06556	0.81774
750.13718	0.81629
748.20881	0.81523
746.28044	0.81405
744.35206	0.81242
742.42369	0.81065
740.49532	0.80916
738.56694	0.80777
736.63857	0.80618
734.71020	0.80431
732.78182	0.80172
730.85345	0.79853
728.92508	0.79576
726.99670	0.79351
725.06833	0.79117
723.13996	0.78830
721.21158	0.78462
719.28321	0.78139
717.35484	0.77999
715.42647	0.77856
713.49809	0.77538
711.56972	0.77166
709.64135	0.76803
707.71297	0.76407
705.78460	0.76054
703.85623	0.75767
701.92785	0.75463
699.99948	0.75197
698.07111	0.75062
696.14273	0.74946
694.21436	0.74739
692.28599	0.74510
690.35761	0.74312
688.42924	0.74128
686.50087	0.73940
684.57249	0.73764
682.64412	0.73654
680.71575	0.73560
678.78737	0.73399
676.85900	0.73211
674.93063	0.73049
673.00225	0.72904
671.07388	0.72742
669.14551	0.72517
667.21713	0.72326
665.28876	0.72323
663.36039	0.72395
661.43201	0.72501
659.50364	0.72645
657.57527	0.72767
655.64690	0.72854
653.71852	0.72939
651.79015	0.73021
649.86178	0.73088
647.93340	0.73095
646.00503	0.73043
644.07666	0.73026
642.14828	0.73090
640.21991	0.73120
638.29154	0.72989
636.36316	0.72835
634.43479	0.72846
632.50642	0.73011
630.57804	0.73176
628.64967	0.73239
626.72130	0.73290
624.79292	0.73502
622.86455	0.73872
620.93618	0.74150
619.00780	0.74189
617.07943	0.74194
615.15106	0.74447
613.22268	0.74951
611.29431	0.75438
609.36594	0.75644
607.43756	0.75570
605.50919	0.75382
603.58082	0.75256
601.65244	0.75370
599.72407	0.75553
