3997.51769	0.40229
3995.58931	0.40344
3993.66094	0.40491
3991.73257	0.40655
3989.80419	0.40840
3987.87582	0.41046
3985.94745	0.41289
3984.01907	0.41551
3982.09070	0.41767
3980.16233	0.41921
3978.23396	0.42065
3976.30558	0.42227
3974.37721	0.42380
3972.44884	0.42503
3970.52046	0.42627
3968.59209	0.42770
3966.66372	0.42923
3964.73534	0.43086
3962.80697	0.43249
3960.87860	0.43393
3958.95022	0.43538
3957.02185	0.43697
3955.09348	0.43852
3953.16510	0.44004
3951.23673	0.44169
3949.30836	0.44327
3947.37998	0.44449
3945.45161	0.44573
3943.52324	0.44727
3941.59486	0.44840
3939.66649	0.44881
3937.73812	0.44919
3935.80974	0.45010
3933.88137	0.45165
3931.95300	0.45344
3930.02462	0.45474
3928.09625	0.45568
3926.16788	0.45690
3924.23950	0.45816
3922.31113	0.45921
3920.38276	0.46055
3918.45439	0.46213
3916.52601	0.46321
3914.59764	0.46387
3912.66927	0.46477
3910.74089	0.46600
3908.81252	0.46767
3906.88415	0.47044
3904.95577	0.47422
3903.02740	0.47751
3901.09903	0.47906
3899.17065	0.47883
3897.24228	0.47803
3895.31391	0.47838
3893.38553	0.48031
3891.45716	0.48254
3889.52879	0.48384
3887.60041	0.48562
3885.67204	0.48819
3883.74367	0.48958
3881.81529	0.49065
3879.88692	0.49192
3877.95855	0.49239
3876.03017	0.49350
3874.10180	0.49591
3872.17343	0.49881
3870.24505	0.50134
3868.31668	0.50214
3866.38831	0.50264
3864.45994	0.50405
3862.53156	0.50442
3860.60319	0.50385
3858.67482	0.50463
3856.74644	0.50826
3854.81807	0.51482
3852.88970	0.51780
3850.96132	0.51276
3849.03295	0.50851
3847.10458	0.50791
3845.17620	0.50968
3843.24783	0.51207
3841.31946	0.51430
3839.39108	0.51673
3837.46271	0.51790
3835.53434	0.51659
3833.60596	0.51505
3831.67759	0.51438
3829.74922	0.51411
3827.82084	0.51441
3825.89247	0.51536
3823.96410	0.51729
3822.03572	0.52015
3820.10735	0.52130
3818.17898	0.52094
3816.25060	0.52091
3814.32223	0.51923
3812.39386	0.51692
3810.46548	0.51689
3808.53711	0.51910
3806.60874	0.52095
3804.68037	0.52132
3802.75199	0.52231
3800.82362	0.52245
3798.89525	0.52043
3796.96687	0.51895
3795.03850	0.51794
3793.11013	0.51687
3791.18175	0.51624
3789.25338	0.51604
3787.32501	0.51627
3785.39663	0.51663
3783.46826	0.51668
3781.53989	0.51686
3779.61151	0.51703
3777.68314	0.51601
3775.75477	0.51445
3773.82639	0.51395
3771.89802	0.51469
3769.96965	0.51549
3768.04127	0.51518
3766.11290	0.51413
3764.18453	0.51278
3762.25615	0.51196
3760.32778	0.51234
3758.39941	0.51234
3756.47103	0.51144
3754.54266	0.51176
3752.61429	0.51421
3750.68591	0.51575
3748.75754	0.51362
3746.82917	0.51247
3744.90080	0.51273
3742.97242	0.50904
3741.04405	0.50395
3739.11568	0.50234
3737.18730	0.50336
3735.25893	0.50368
3733.33056	0.50088
3731.40218	0.49611
3729.47381	0.49226
3727.54544	0.49023
3725.61706	0.48886
3723.68869	0.48679
3721.76032	0.48394
3719.83194	0.48065
3717.90357	0.47725
3715.97520	0.47475
3714.04682	0.47378
3712.11845	0.47272
3710.19008	0.46841
3708.26170	0.46187
3706.33333	0.45597
3704.40496	0.45122
3702.47658	0.44650
3700.54821	0.44021
3698.61984	0.43312
3696.69146	0.42605
3694.76309	0.41877
3692.83472	0.41170
3690.90635	0.40424
3688.97797	0.39336
3687.04960	0.37895
3685.12123	0.36543
3683.19285	0.35311
3681.26448	0.34028
3679.33611	0.32748
3677.40773	0.31510
3675.47936	0.29906
3673.55099	0.28086
3671.62261	0.26630
3669.69424	0.25034
3667.76587	0.23217
3665.83749	0.21662
3663.90912	0.20253
3661.98075	0.18871
3660.05237	0.17568
3658.12400	0.16335
3656.19563	0.15022
3654.26725	0.13772
3652.33888	0.12798
3650.41051	0.11827
3648.48213	0.10632
3646.55376	0.09505
3644.62539	0.08634
3642.69701	0.07891
3640.76864	0.07168
3638.84027	0.06475
3636.91189	0.05859
3634.98352	0.05309
3633.05515	0.04801
3631.12678	0.04341
3629.19840	0.03844
3627.27003	0.03339
3625.34166	0.02984
3623.41328	0.02709
3621.48491	0.02447
3619.55654	0.02178
3617.62816	0.01917
3615.69979	0.01698
3613.77142	0.01492
3611.84304	0.01285
3609.91467	0.01108
3607.98630	0.00968
3606.05792	0.00853
3604.12955	0.00753
3602.20118	0.00658
3600.27280	0.00578
3598.34443	0.00506
3596.41606	0.00431
3594.48768	0.00366
3592.55931	0.00314
3590.63094	0.00274
3588.70256	0.00242
3586.77419	0.00213
3584.84582	0.00180
3582.91744	0.00156
3580.98907	0.00144
3579.06070	0.00126
3577.13233	0.00100
3575.20395	0.00089
3573.27558	0.00084
3571.34721	0.00087
3569.41883	0.00078
3567.49046	0.00055
3565.56209	0.00068
3563.63371	0.00087
3561.70534	0.00092
3559.77697	0.00085
3557.84859	0.00062
3555.92022	0.00063
3553.99185	0.00061
3552.06347	0.00052
3550.13510	0.00059
3548.20673	0.00060
3546.27835	0.00042
3544.34998	0.00051
3542.42161	0.00061
3540.49323	0.00048
3538.56486	0.00034
3536.63649	0.00021
3534.70811	0.00005
3532.77974	0.00031
3530.85137	0.00052
3528.92299	0.00065
3526.99462	0.00089
3525.06625	0.00099
3523.13787	0.00078
3521.20950	0.00050
3519.28113	0.00052
3517.35276	0.00068
3515.42438	0.00087
3513.49601	0.00099
3511.56764	0.00093
3509.63926	0.00068
3507.71089	0.00036
3505.78252	0.00039
3503.85414	0.00048
3501.92577	0.00045
3499.99740	0.00036
3498.06902	0.00012
3496.14065	0.00011
3494.21228	0.00033
3492.28390	0.00057
3490.35553	0.00059
3488.42716	0.00040
3486.49878	0.00044
3484.57041	0.00079
3482.64204	0.00099
3480.71366	0.00085
3478.78529	0.00067
3476.85692	0.00059
3474.92854	0.00059
3473.00017	0.00043
3471.07180	0.00044
3469.14342	0.00060
3467.21505	0.00074
3465.28668	0.00073
3463.35831	0.00052
3461.42993	0.00031
3459.50156	0.00031
3457.57319	0.00025
3455.64481	0.00027
3453.71644	0.00033
3451.78807	0.00023
3449.85969	0.00048
3447.93132	0.00068
3446.00295	0.00072
3444.07457	0.00073
3442.14620	0.00081
3440.21783	0.00080
3438.28945	0.00059
3436.36108	0.00041
3434.43271	0.00041
3432.50433	0.00049
3430.57596	0.00062
3428.64759	0.00054
3426.71921	0.00054
3424.79084	0.00049
3422.86247	0.00056
3420.93409	0.00047
3419.00572	0.00020
3417.07735	0.00011
3415.14897	0.00026
3413.22060	0.00045
3411.29223	0.00052
3409.36385	0.00040
3407.43548	0.00024
3405.50711	0.00047
3403.57874	0.00070
3401.65036	0.00074
3399.72199	0.00076
3397.79362	0.00072
3395.86524	0.00045
3393.93687	0.00036
3392.00850	0.00045
3390.08012	0.00043
3388.15175	0.00053
3386.22338	0.00062
3384.29500	0.00053
3382.36663	0.00028
3380.43826	0.00036
3378.50988	0.00052
3376.58151	0.00053
3374.65314	0.00049
3372.72476	0.00047
3370.79639	0.00041
3368.86802	0.00029
3366.93964	0.00031
3365.01127	0.00032
3363.08290	0.00039
3361.15452	0.00043
3359.22615	0.00046
3357.29778	0.00062
3355.36940	0.00062
3353.44103	0.00046
3351.51266	0.00033
3349.58428	0.00021
3347.65591	0.00037
3345.72754	0.00061
3343.79917	0.00071
3341.87079	0.00077
3339.94242	0.00060
3338.01405	0.00033
3336.08567	0.00039
3334.15730	0.00060
3332.22893	0.00058
3330.30055	0.00047
3328.37218	0.00041
3326.44381	0.00027
3324.51543	0.00025
3322.58706	0.00023
3320.65869	0.00040
3318.73031	0.00062
3316.80194	0.00068
3314.87357	0.00061
3312.94519	0.00041
3311.01682	0.00027
3309.08845	0.00026
3307.16007	0.00042
3305.23170	0.00057
3303.30333	0.00058
3301.37495	0.00045
3299.44658	0.00047
3297.51821	0.00061
3295.58983	0.00062
3293.66146	0.00051
3291.73309	0.00035
3289.80472	0.00037
3287.87634	0.00051
3285.94797	0.00066
3284.01960	0.00056
3282.09122	0.00035
3280.16285	0.00033
3278.23448	0.00031
3276.30610	0.00031
3274.37773	0.00037
3272.44936	0.00038
3270.52098	0.00033
3268.59261	0.00029
3266.66424	0.00045
3264.73586	0.00056
3262.80749	0.00047
3260.87912	0.00032
3258.95074	0.00029
3257.02237	0.00037
3255.09400	0.00046
3253.16562	0.00052
3251.23725	0.00061
3249.30888	0.00065
3247.38050	0.00061
3245.45213	0.00050
3243.52376	0.00045
3241.59538	0.00043
3239.66701	0.00050
3237.73864	0.00057
3235.81026	0.00062
3233.88189	0.00048
3231.95352	0.00037
3230.02515	0.00045
3228.09677	0.00055
3226.16840	0.00056
3224.24003	0.00060
3222.31165	0.00057
3220.38328	0.00029
3218.45491	0.00025
3216.52653	0.00039
3214.59816	0.00042
3212.66979	0.00038
3210.74141	0.00055
3208.81304	0.00044
3206.88467	0.00017
3204.95629	0.00028
3203.02792	0.00033
3201.09955	0.00027
3199.17117	0.00028
3197.24280	0.00050
3195.31443	0.00064
3193.38605	0.00066
3191.45768	0.00056
3189.52931	0.00026
3187.60093	0.00015
3185.67256	0.00018
3183.74419	0.00013
3181.81581	0.00008
3179.88744	0.00018
3177.95907	0.00033
3176.03070	0.00036
3174.10232	0.00029
3172.17395	0.00037
3170.24558	0.00055
3168.31720	0.00067
3166.38883	0.00054
3164.46046	0.00043
3162.53208	0.00048
3160.60371	0.00035
3158.67534	0.00031
3156.74696	0.00056
3154.81859	0.00063
3152.89022	0.00047
3150.96184	0.00037
3149.03347	0.00029
3147.10510	0.00020
3145.17672	0.00036
3143.24835	0.00047
3141.31998	0.00041
3139.39160	0.00026
3137.46323	0.00036
3135.53486	0.00045
3133.60648	0.00048
3131.67811	0.00031
3129.74974	0.00029
3127.82136	0.00015
3125.89299	0.00033
3123.96462	0.00038
3122.03624	0.00020
3120.10787	0.00034
3118.17950	0.00053
3116.25113	0.00056
3114.32275	0.00040
3112.39438	0.00027
3110.46601	0.00026
3108.53763	0.00036
3106.60926	0.00051
3104.68089	0.00040
3102.75251	0.00032
3100.82414	0.00038
3098.89577	0.00044
3096.96739	0.00044
3095.03902	0.00024
3093.11065	0.00021
3091.18227	0.00022
3089.25390	0.00016
3087.32553	0.00023
3085.39715	0.00026
3083.46878	0.00025
3081.54041	0.00035
3079.61203	0.00042
3077.68366	0.00035
3075.75529	0.00026
3073.82691	0.00035
3071.89854	0.00042
3069.97017	0.00055
3068.04179	0.00052
3066.11342	0.00035
3064.18505	0.00029
3062.25668	0.00026
3060.32830	0.00024
3058.39993	0.00039
3056.47156	0.00051
3054.54318	0.00046
3052.61481	0.00063
3050.68644	0.00082
3048.75806	0.00074
3046.82969	0.00049
3044.90132	0.00038
3042.97294	0.00033
3041.04457	0.00029
3039.11620	0.00032
3037.18782	0.00036
3035.25945	0.00029
3033.33108	0.00023
3031.40270	0.00035
3029.47433	0.00038
3027.54596	0.00044
3025.61758	0.00042
3023.68921	0.00033
3021.76084	0.00031
3019.83246	0.00035
3017.90409	0.00031
3015.97572	0.00044
3014.04734	0.00051
3012.11897	0.00058
3010.19060	0.00062
3008.26222	0.00050
3006.33385	0.00041
3004.40548	0.00040
3002.47711	0.00042
3000.54873	0.00036
2998.62036	0.00027
2996.69199	0.00032
2994.76361	0.00038
2992.83524	0.00041
2990.90687	0.00031
2988.97849	0.00025
2987.05012	0.00040
2985.12175	0.00059
2983.19337	0.00069
2981.26500	0.00052
2979.33663	0.00041
2977.40825	0.00038
2975.47988	0.00030
2973.55151	0.00029
2971.62313	0.00036
2969.69476	0.00032
2967.76639	0.00031
2965.83801	0.00045
2963.90964	0.00061
2961.98127	0.00055
2960.05289	0.00054
2958.12452	0.00065
2956.19615	0.00064
2954.26777	0.00064
2952.33940	0.00048
2950.41103	0.00025
2948.48266	0.00029
2946.55428	0.00030
2944.62591	0.00047
2942.69754	0.00058
2940.76916	0.00063
2938.84079	0.00052
2936.91242	0.00031
2934.98404	0.00017
2933.05567	0.00029
2931.12730	0.00066
2929.19892	0.00077
2927.27055	0.00060
2925.34218	0.00039
2923.41380	0.00045
2921.48543	0.00047
2919.55706	0.00041
2917.62868	0.00068
2915.70031	0.00093
2913.77194	0.00086
2911.84356	0.00057
2909.91519	0.00021
2907.98682	0.00016
2906.05844	0.00028
2904.13007	0.00027
2902.20170	0.00023
2900.27332	0.00045
2898.34495	0.00043
2896.41658	0.00036
2894.48820	0.00044
2892.55983	0.00047
2890.63146	0.00042
2888.70309	0.00045
2886.77471	0.00046
2884.84634	0.00048
2882.91797	0.00044
2880.98959	0.00037
2879.06122	0.00046
2877.13285	0.00061
2875.20447	0.00060
2873.27610	0.00046
2871.34773	0.00031
2869.41935	0.00047
2867.49098	0.00046
2865.56261	0.00051
2863.63423	0.00049
2861.70586	0.00048
2859.77749	0.00042
2857.84911	0.00024
2855.92074	0.00011
2853.99237	0.00021
2852.06399	0.00011
2850.13562	0.00028
2848.20725	0.00049
2846.27887	0.00062
2844.35050	0.00076
2842.42213	0.00086
2840.49375	0.00094
2838.56538	0.00108
2836.63701	0.00122
2834.70863	0.00131
2832.78026	0.00136
2830.85189	0.00149
2828.92352	0.00183
2826.99514	0.00218
2825.06677	0.00234
2823.13840	0.00243
2821.21002	0.00267
2819.28165	0.00300
2817.35328	0.00320
2815.42490	0.00331
2813.49653	0.00353
2811.56816	0.00390
2809.63978	0.00430
2807.71141	0.00466
2805.78304	0.00502
2803.85466	0.00538
2801.92629	0.00571
2799.99792	0.00601
2798.06954	0.00636
2796.14117	0.00676
2794.21280	0.00708
2792.28442	0.00741
2790.35605	0.00788
2788.42768	0.00830
2786.49930	0.00855
2784.57093	0.00880
2782.64256	0.00912
2780.71418	0.00951
2778.78581	0.00997
2776.85744	0.01040
2774.92907	0.01074
2773.00069	0.01105
2771.07232	0.01145
2769.14395	0.01193
2767.21557	0.01237
2765.28720	0.01263
2763.35883	0.01277
2761.43045	0.01304
2759.50208	0.01353
2757.57371	0.01414
2755.64533	0.01476
2753.71696	0.01529
2751.78859	0.01571
2749.86021	0.01607
2747.93184	0.01636
2746.00347	0.01670
2744.07509	0.01710
2742.14672	0.01743
2740.21835	0.01770
2738.28997	0.01805
2736.36160	0.01848
2734.43323	0.01891
2732.50485	0.01932
2730.57648	0.01971
2728.64811	0.02003
2726.71973	0.02033
2724.79136	0.02060
2722.86299	0.02085
2720.93461	0.02129
2719.00624	0.02193
2717.07787	0.02250
2715.14950	0.02297
2713.22112	0.02349
2711.29275	0.02400
2709.36438	0.02454
2707.43600	0.02526
2705.50763	0.02606
2703.57926	0.02673
2701.65088	0.02731
2699.72251	0.02798
2697.79414	0.02866
2695.86576	0.02933
2693.93739	0.03000
2692.00902	0.03058
2690.08064	0.03115
2688.15227	0.03185
2686.22390	0.03256
2684.29552	0.03320
2682.36715	0.03378
2680.43878	0.03438
2678.51040	0.03507
2676.58203	0.03592
2674.65366	0.03683
2672.72528	0.03758
2670.79691	0.03822
2668.86854	0.03896
2666.94016	0.03976
2665.01179	0.04046
2663.08342	0.04105
2661.15505	0.04164
2659.22667	0.04222
2657.29830	0.04267
2655.36993	0.04302
2653.44155	0.04346
2651.51318	0.04399
2649.58481	0.04443
2647.65643	0.04473
2645.72806	0.04504
2643.79969	0.04538
2641.87131	0.04571
2639.94294	0.04603
2638.01457	0.04635
2636.08619	0.04671
2634.15782	0.04713
2632.22945	0.04755
2630.30107	0.04795
2628.37270	0.04836
2626.44433	0.04883
2624.51595	0.04938
2622.58758	0.04995
2620.65921	0.05049
2618.73083	0.05102
2616.80246	0.05160
2614.87409	0.05221
2612.94571	0.05285
2611.01734	0.05361
2609.08897	0.05446
2607.16059	0.05519
2605.23222	0.05576
2603.30385	0.05633
2601.37548	0.05699
2599.44710	0.05765
2597.51873	0.05826
2595.59036	0.05878
2593.66198	0.05912
2591.73361	0.05937
2589.80524	0.05973
2587.87686	0.06020
2585.94849	0.06070
2584.02012	0.06128
2582.09174	0.06195
2580.16337	0.06265
2578.23500	0.06335
2576.30662	0.06399
2574.37825	0.06469
2572.44988	0.06561
2570.52150	0.06674
2568.59313	0.06794
2566.66476	0.06910
2564.73638	0.07030
2562.80801	0.07176
2560.87964	0.07345
2558.95126	0.07512
2557.02289	0.07665
2555.09452	0.07805
2553.16614	0.07939
2551.23777	0.08074
2549.30940	0.08205
2547.38103	0.08330
2545.45265	0.08435
2543.52428	0.08516
2541.59591	0.08579
2539.66753	0.08637
2537.73916	0.08702
2535.81079	0.08768
2533.88241	0.08822
2531.95404	0.08861
2530.02567	0.08902
2528.09729	0.08954
2526.16892	0.09018
2524.24055	0.09098
2522.31217	0.09191
2520.38380	0.09281
2518.45543	0.09364
2516.52705	0.09450
2514.59868	0.09555
2512.67031	0.09679
2510.74193	0.09798
2508.81356	0.09900
2506.88519	0.09994
2504.95681	0.10089
2503.02844	0.10190
2501.10007	0.10304
2499.17169	0.10424
2497.24332	0.10542
2495.31495	0.10666
2493.38657	0.10804
2491.45820	0.10946
2489.52983	0.11086
2487.60146	0.11226
2485.67308	0.11367
2483.74471	0.11507
2481.81634	0.11647
2479.88796	0.11782
2477.95959	0.11911
2476.03122	0.12034
2474.10284	0.12161
2472.17447	0.12305
2470.24610	0.12465
2468.31772	0.12619
2466.38935	0.12763
2464.46098	0.12911
2462.53260	0.13064
2460.60423	0.13219
2458.67586	0.13373
2456.74748	0.13519
2454.81911	0.13654
2452.89074	0.13784
2450.96236	0.13916
2449.03399	0.14051
2447.10562	0.14180
2445.17724	0.14310
2443.24887	0.14450
2441.32050	0.14595
2439.39212	0.14737
2437.46375	0.14881
2435.53538	0.15028
2433.60700	0.15181
2431.67863	0.15339
2429.75026	0.15496
2427.82189	0.15640
2425.89351	0.15765
2423.96514	0.15880
2422.03677	0.15989
2420.10839	0.16090
2418.18002	0.16192
2416.25165	0.16291
2414.32327	0.16391
2412.39490	0.16507
2410.46653	0.16643
2408.53815	0.16787
2406.60978	0.16939
2404.68141	0.17103
2402.75303	0.17273
2400.82466	0.17449
2398.89629	0.17636
2396.96791	0.17821
2395.03954	0.17996
2393.11117	0.18169
2391.18279	0.18340
2389.25442	0.18499
2387.32605	0.18636
2385.39767	0.18747
2383.46930	0.18833
2381.54093	0.18912
2379.61255	0.18992
2377.68418	0.19062
2375.75581	0.19113
2373.82744	0.19158
2371.89906	0.19200
2369.97069	0.19240
2368.04232	0.19315
2366.11394	0.19438
2364.18557	0.19544
2362.25720	0.19591
2360.32882	0.19620
2358.40045	0.19686
2356.47208	0.19795
2354.54370	0.19939
2352.61533	0.20095
2350.68696	0.20227
2348.75858	0.20326
2346.83021	0.20388
2344.90184	0.20391
2342.97346	0.20366
2341.04509	0.20374
2339.11672	0.20405
2337.18834	0.20455
2335.25997	0.20546
2333.33160	0.20649
2331.40322	0.20712
2329.47485	0.20732
2327.54648	0.20738
2325.61810	0.20773
2323.68973	0.20864
2321.76136	0.21002
2319.83298	0.21162
2317.90461	0.21332
2315.97624	0.21513
2314.04787	0.21717
2312.11949	0.21944
2310.19112	0.22177
2308.26275	0.22406
2306.33437	0.22637
2304.40600	0.22867
2302.47763	0.23076
2300.54925	0.23253
2298.62088	0.23406
2296.69251	0.23548
2294.76413	0.23684
2292.83576	0.23812
2290.90739	0.23923
2288.97901	0.24014
2287.05064	0.24090
2285.12227	0.24156
2283.19389	0.24215
2281.26552	0.24262
2279.33715	0.24289
2277.40877	0.24294
2275.48040	0.24296
2273.55203	0.24308
2271.62365	0.24313
2269.69528	0.24303
2267.76691	0.24294
2265.83853	0.24296
2263.91016	0.24305
2261.98179	0.24322
2260.05342	0.24357
2258.12504	0.24414
2256.19667	0.24488
2254.26830	0.24580
2252.33992	0.24692
2250.41155	0.24814
2248.48318	0.24934
2246.55480	0.25055
2244.62643	0.25185
2242.69806	0.25314
2240.76968	0.25419
2238.84131	0.25497
2236.91294	0.25562
2234.98456	0.25617
2233.05619	0.25655
2231.12782	0.25678
2229.19944	0.25697
2227.27107	0.25715
2225.34270	0.25728
2223.41432	0.25741
2221.48595	0.25743
2219.55758	0.25720
2217.62920	0.25669
2215.70083	0.25605
2213.77246	0.25540
2211.84408	0.25483
2209.91571	0.25431
2207.98734	0.25381
2206.05896	0.25329
2204.13059	0.25264
2202.20222	0.25184
2200.27385	0.25092
2198.34547	0.25000
2196.41710	0.24914
2194.48873	0.24827
2192.56035	0.24741
2190.63198	0.24662
2188.70361	0.24582
2186.77523	0.24502
2184.84686	0.24439
2182.91849	0.24391
2180.99011	0.24349
2179.06174	0.24304
2177.13337	0.24244
2175.20499	0.24168
2173.27662	0.24090
2171.34825	0.24023
2169.41987	0.23968
2167.49150	0.23918
2165.56313	0.23865
2163.63475	0.23815
2161.70638	0.23777
2159.77801	0.23748
2157.84963	0.23726
2155.92126	0.23718
2153.99289	0.23715
2152.06451	0.23710
2150.13614	0.23716
2148.20777	0.23741
2146.27940	0.23769
2144.35102	0.23792
2142.42265	0.23818
2140.49428	0.23848
2138.56590	0.23875
2136.63753	0.23894
2134.70916	0.23903
2132.78078	0.23907
2130.85241	0.23923
2128.92404	0.23960
2126.99566	0.24014
2125.06729	0.24085
2123.13892	0.24171
2121.21054	0.24271
2119.28217	0.24379
2117.35380	0.24494
2115.42542	0.24612
2113.49705	0.24727
2111.56868	0.24840
2109.64030	0.24948
2107.71193	0.25040
2105.78356	0.25120
2103.85518	0.25199
2101.92681	0.25274
2099.99844	0.25339
2098.07006	0.25388
2096.14169	0.25417
2094.21332	0.25438
2092.28494	0.25460
2090.35657	0.25474
2088.42820	0.25474
2086.49983	0.25466
2084.57145	0.25457
2082.64308	0.25448
2080.71471	0.25435
2078.78633	0.25420
2076.85796	0.25419
2074.92959	0.25427
2073.00121	0.25438
2071.07284	0.25458
2069.14447	0.25491
2067.21609	0.25534
2065.28772	0.25606
2063.35935	0.25715
2061.43097	0.25844
2059.50260	0.25990
2057.57423	0.26155
2055.64585	0.26331
2053.71748	0.26517
2051.78911	0.26716
2049.86073	0.26911
2047.93236	0.27085
2046.00399	0.27254
2044.07561	0.27428
2042.14724	0.27589
2040.21887	0.27728
2038.29049	0.27848
2036.36212	0.27954
2034.43375	0.28046
2032.50538	0.28122
2030.57700	0.28186
2028.64863	0.28245
2026.72026	0.28297
2024.79188	0.28344
2022.86351	0.28391
2020.93514	0.28433
2019.00676	0.28475
2017.07839	0.28536
2015.15002	0.28620
2013.22164	0.28710
2011.29327	0.28804
2009.36490	0.28913
2007.43652	0.29040
2005.50815	0.29175
2003.57978	0.29305
2001.65140	0.29427
1999.72303	0.29542
1997.79466	0.29646
1995.86628	0.29732
1993.93791	0.29805
1992.00954	0.29863
1990.08116	0.29902
1988.15279	0.29927
1986.22442	0.29945
1984.29604	0.29966
1982.36767	0.29990
1980.43930	0.30007
1978.51092	0.30019
1976.58255	0.30035
1974.65418	0.30053
1972.72581	0.30076
1970.79743	0.30118
1968.86906	0.30178
1966.94069	0.30243
1965.01231	0.30304
1963.08394	0.30365
1961.15557	0.30434
1959.22719	0.30514
1957.29882	0.30613
1955.37045	0.30736
1953.44207	0.30882
1951.51370	0.31044
1949.58533	0.31207
1947.65695	0.31373
1945.72858	0.31548
1943.80021	0.31727
1941.87183	0.31888
1939.94346	0.32019
1938.01509	0.32133
1936.08671	0.32240
1934.15834	0.32337
1932.22997	0.32424
1930.30159	0.32501
1928.37322	0.32568
1926.44485	0.32629
1924.51647	0.32691
1922.58810	0.32743
1920.65973	0.32780
1918.73135	0.32812
1916.80298	0.32832
1914.87461	0.32837
1912.94624	0.32839
1911.01786	0.32826
1909.08949	0.32778
1907.16112	0.32705
1905.23274	0.32625
1903.30437	0.32528
1901.37600	0.32415
1899.44762	0.32298
1897.51925	0.32189
1895.59088	0.32093
1893.66250	0.32010
1891.73413	0.31935
1889.80576	0.31865
1887.87738	0.31800
1885.94901	0.31757
1884.02064	0.31753
1882.09226	0.31780
1880.16389	0.31820
1878.23552	0.31864
1876.30714	0.31914
1874.37877	0.31961
1872.45040	0.32005
1870.52202	0.32045
1868.59365	0.32045
1866.66528	0.31987
1864.73690	0.31910
1862.80853	0.31835
1860.88016	0.31752
1858.95179	0.31648
1857.02341	0.31528
1855.09504	0.31398
1853.16667	0.31266
1851.23829	0.31128
1849.30992	0.30978
1847.38155	0.30836
1845.45317	0.30702
1843.52480	0.30531
1841.59643	0.30334
1839.66805	0.30155
1837.73968	0.29982
1835.81131	0.29801
1833.88293	0.29622
1831.95456	0.29450
1830.02619	0.29262
1828.09781	0.29042
1826.16944	0.28813
1824.24107	0.28564
1822.31269	0.28305
1820.38432	0.28039
1818.45595	0.27748
1816.52757	0.27429
1814.59920	0.27091
1812.67083	0.26737
1810.74245	0.26350
1808.81408	0.25942
1806.88571	0.25531
1804.95733	0.25118
1803.02896	0.24688
1801.10059	0.24199
1799.17222	0.23654
1797.24384	0.23104
1795.31547	0.22568
1793.38710	0.21972
1791.45872	0.21262
1789.53035	0.20561
1787.60198	0.19927
1785.67360	0.19275
1783.74523	0.18587
1781.81686	0.17900
1779.88848	0.17209
1777.96011	0.16543
1776.03174	0.15937
1774.10336	0.15320
1772.17499	0.14595
1770.24662	0.13840
1768.31824	0.13144
1766.38987	0.12448
1764.46150	0.11752
1762.53312	0.10977
1760.60475	0.10100
1758.67638	0.09230
1756.74800	0.08302
1754.81963	0.07345
1752.89126	0.06425
1750.96288	0.05419
1749.03451	0.04363
1747.10614	0.03429
1745.17777	0.02621
1743.24939	0.01910
1741.32102	0.01305
1739.39265	0.00816
1737.46427	0.00492
1735.53590	0.00287
1733.60753	0.00131
1731.67915	0.00044
1729.75078	0.00024
1727.82241	0.00024
1725.89403	0.00034
1723.96566	0.00036
1722.03729	0.00045
1720.10891	0.00052
1718.18054	0.00049
1716.25217	0.00045
1714.32379	0.00048
1712.39542	0.00057
1710.46705	0.00054
1708.53867	0.00044
1706.61030	0.00036
1704.68193	0.00038
1702.75355	0.00045
1700.82518	0.00050
1698.89681	0.00066
1696.96843	0.00074
1695.04006	0.00072
1693.11169	0.00066
1691.18331	0.00067
1689.25494	0.00061
1687.32657	0.00053
1685.39820	0.00059
1683.46982	0.00063
1681.54145	0.00057
1679.61308	0.00047
1677.68470	0.00052
1675.75633	0.00062
1673.82796	0.00062
1671.89958	0.00055
1669.97121	0.00051
1668.04284	0.00050
1666.11446	0.00049
1664.18609	0.00050
1662.25772	0.00054
1660.32934	0.00056
1658.40097	0.00054
1656.47260	0.00056
1654.54422	0.00050
1652.61585	0.00048
1650.68748	0.00058
1648.75910	0.00053
1646.83073	0.00057
1644.90236	0.00059
1642.97398	0.00054
1641.04561	0.00050
1639.11724	0.00048
1637.18886	0.00039
1635.26049	0.00040
1633.33212	0.00045
1631.40375	0.00042
1629.47537	0.00045
1627.54700	0.00048
1625.61863	0.00055
1623.69025	0.00061
1621.76188	0.00060
1619.83351	0.00063
1617.90513	0.00063
1615.97676	0.00045
1614.04839	0.00035
1612.12001	0.00028
1610.19164	0.00018
1608.26327	0.00016
1606.33489	0.00022
1604.40652	0.00032
1602.47815	0.00032
1600.54977	0.00030
1598.62140	0.00033
1596.69303	0.00021
1594.76465	0.00015
1592.83628	0.00021
1590.90791	0.00029
1588.97953	0.00026
1587.05116	0.00016
1585.12279	0.00017
1583.19441	0.00032
1581.26604	0.00041
1579.33767	0.00049
1577.40929	0.00055
1575.48092	0.00050
1573.55255	0.00038
1571.62418	0.00032
1569.69580	0.00031
1567.76743	0.00028
1565.83906	0.00039
1563.91068	0.00054
1561.98231	0.00055
1560.05394	0.00061
1558.12556	0.00072
1556.19719	0.00071
1554.26882	0.00067
1552.34044	0.00063
1550.41207	0.00050
1548.48370	0.00044
1546.55532	0.00048
1544.62695	0.00051
1542.69858	0.00047
1540.77020	0.00048
1538.84183	0.00049
1536.91346	0.00043
1534.98508	0.00055
1533.05671	0.00071
1531.12834	0.00065
1529.19996	0.00058
1527.27159	0.00065
1525.34322	0.00068
1523.41484	0.00070
1521.48647	0.00075
1519.55810	0.00075
1517.62972	0.00066
1515.70135	0.00056
1513.77298	0.00049
1511.84461	0.00044
1509.91623	0.00057
1507.98786	0.00083
1506.05949	0.00082
1504.13111	0.00056
1502.20274	0.00046
1500.27437	0.00049
1498.34599	0.00050
1496.41762	0.00037
1494.48925	0.00022
1492.56087	0.00014
1490.63250	0.00035
1488.70413	0.00057
1486.77575	0.00060
1484.84738	0.00052
1482.91901	0.00043
1480.99063	0.00039
1479.06226	0.00042
1477.13389	0.00056
1475.20551	0.00070
1473.27714	0.00078
1471.34877	0.00063
1469.42039	0.00038
1467.49202	0.00035
1465.56365	0.00056
1463.63527	0.00068
1461.70690	0.00064
1459.77853	0.00058
1457.85016	0.00060
1455.92178	0.00074
1453.99341	0.00080
1452.06504	0.00073
1450.13666	0.00055
1448.20829	0.00037
1446.27992	0.00037
1444.35154	0.00045
1442.42317	0.00049
1440.49480	0.00045
1438.56642	0.00054
1436.63805	0.00073
1434.70968	0.00089
1432.78130	0.00090
1430.85293	0.00077
1428.92456	0.00063
1426.99618	0.00057
1425.06781	0.00060
1423.13944	0.00061
1421.21106	0.00060
1419.28269	0.00060
1417.35432	0.00057
1415.42594	0.00056
1413.49757	0.00062
1411.56920	0.00060
1409.64082	0.00049
1407.71245	0.00048
1405.78408	0.00066
1403.85570	0.00090
1401.92733	0.00100
1399.99896	0.00099
1398.07059	0.00103
1396.14221	0.00107
1394.21384	0.00095
1392.28547	0.00074
1390.35709	0.00068
1388.42872	0.00074
1386.50035	0.00073
1384.57197	0.00067
1382.64360	0.00072
1380.71523	0.00091
1378.78685	0.00106
1376.85848	0.00103
1374.93011	0.00093
1373.00173	0.00078
1371.07336	0.00060
1369.14499	0.00058
1367.21661	0.00061
1365.28824	0.00071
1363.35987	0.00081
1361.43149	0.00087
1359.50312	0.00090
1357.57475	0.00083
1355.64637	0.00070
1353.71800	0.00069
1351.78963	0.00086
1349.86125	0.00088
1347.93288	0.00069
1346.00451	0.00055
1344.07614	0.00052
1342.14776	0.00052
1340.21939	0.00054
1338.29102	0.00061
1336.36264	0.00070
1334.43427	0.00082
1332.50590	0.00087
1330.57752	0.00080
1328.64915	0.00069
1326.72078	0.00060
1324.79240	0.00057
1322.86403	0.00070
1320.93566	0.00076
1319.00728	0.00063
1317.07891	0.00053
1315.15054	0.00056
1313.22216	0.00058
1311.29379	0.00060
1309.36542	0.00063
1307.43704	0.00071
1305.50867	0.00081
1303.58030	0.00080
1301.65192	0.00072
1299.72355	0.00060
1297.79518	0.00055
1295.86680	0.00066
1293.93843	0.00077
1292.01006	0.00081
1290.08168	0.00081
1288.15331	0.00073
1286.22494	0.00070
1284.29657	0.00087
1282.36819	0.00108
1280.43982	0.00114
1278.51145	0.00103
1276.58307	0.00084
1274.65470	0.00081
1272.72633	0.00088
1270.79795	0.00083
1268.86958	0.00078
1266.94121	0.00086
1265.01283	0.00100
1263.08446	0.00105
1261.15609	0.00100
1259.22771	0.00091
1257.29934	0.00084
1255.37097	0.00096
1253.44259	0.00110
1251.51422	0.00099
1249.58585	0.00081
1247.65747	0.00079
1245.72910	0.00090
1243.80073	0.00111
1241.87235	0.00115
1239.94398	0.00101
1238.01561	0.00086
1236.08723	0.00082
1234.15886	0.00092
1232.23049	0.00106
1230.30212	0.00110
1228.37374	0.00109
1226.44537	0.00104
1224.51700	0.00109
1222.58862	0.00126
1220.66025	0.00148
1218.73188	0.00163
1216.80350	0.00142
1214.87513	0.00111
1212.94676	0.00105
1211.01838	0.00107
1209.09001	0.00106
1207.16164	0.00121
1205.23326	0.00152
1203.30489	0.00172
1201.37652	0.00182
1199.44814	0.00182
1197.51977	0.00172
1195.59140	0.00172
1193.66302	0.00168
1191.73465	0.00139
1189.80628	0.00114
1187.87790	0.00097
1185.94953	0.00080
1184.02116	0.00098
1182.09278	0.00136
1180.16441	0.00151
1178.23604	0.00147
1176.30766	0.00146
1174.37929	0.00134
1172.45092	0.00113
1170.52255	0.00124
1168.59417	0.00154
1166.66580	0.00160
1164.73743	0.00136
1162.80905	0.00110
1160.88068	0.00119
1158.95231	0.00151
1157.02393	0.00170
1155.09556	0.00179
1153.16719	0.00188
1151.23881	0.00178
1149.31044	0.00148
1147.38207	0.00120
1145.45369	0.00119
1143.52532	0.00133
1141.59695	0.00142
1139.66857	0.00146
1137.74020	0.00146
1135.81183	0.00167
1133.88345	0.00181
1131.95508	0.00165
1130.02671	0.00145
1128.09833	0.00156
1126.16996	0.00169
1124.24159	0.00173
1122.31321	0.00175
1120.38484	0.00180
1118.45647	0.00205
1116.52809	0.00217
1114.59972	0.00195
1112.67135	0.00174
1110.74298	0.00175
1108.81460	0.00177
1106.88623	0.00172
1104.95786	0.00166
1103.02948	0.00161
1101.10111	0.00162
1099.17274	0.00169
1097.24436	0.00180
1095.31599	0.00175
1093.38762	0.00177
1091.45924	0.00188
1089.53087	0.00187
1087.60250	0.00181
1085.67412	0.00176
1083.74575	0.00171
1081.81738	0.00165
1079.88900	0.00153
1077.96063	0.00136
1076.03226	0.00130
1074.10388	0.00147
1072.17551	0.00161
1070.24714	0.00156
1068.31876	0.00145
1066.39039	0.00132
1064.46202	0.00114
1062.53364	0.00111
1060.60527	0.00119
1058.67690	0.00146
1056.74853	0.00177
1054.82015	0.00190
1052.89178	0.00175
1050.96341	0.00164
1049.03503	0.00171
1047.10666	0.00173
1045.17829	0.00174
1043.24991	0.00185
1041.32154	0.00179
1039.39317	0.00169
1037.46479	0.00186
1035.53642	0.00205
1033.60805	0.00185
1031.67967	0.00147
1029.75130	0.00134
1027.82293	0.00149
1025.89455	0.00169
1023.96618	0.00181
1022.03781	0.00190
1020.10943	0.00194
1018.18106	0.00189
1016.25269	0.00183
1014.32431	0.00165
1012.39594	0.00136
1010.46757	0.00130
1008.53919	0.00137
1006.61082	0.00146
1004.68245	0.00167
1002.75407	0.00180
1000.82570	0.00172
998.89733	0.00162
996.96896	0.00157
995.04058	0.00150
993.11221	0.00143
991.18384	0.00131
989.25546	0.00116
987.32709	0.00116
985.39872	0.00132
983.47034	0.00144
981.54197	0.00142
979.61360	0.00141
977.68522	0.00136
975.75685	0.00119
973.82848	0.00103
971.90010	0.00099
969.97173	0.00118
968.04336	0.00167
966.11498	0.00231
964.18661	0.00259
962.25824	0.00232
960.32986	0.00183
958.40149	0.00154
956.47312	0.00151
954.54474	0.00149
952.61637	0.00134
950.68800	0.00116
948.75962	0.00112
946.83125	0.00138
944.90288	0.00191
942.97451	0.00237
941.04613	0.00281
939.11776	0.00368
937.18939	0.00496
935.26101	0.00652
933.33264	0.00818
931.40427	0.00963
929.47589	0.01074
927.54752	0.01123
925.61915	0.01090
923.69077	0.01025
921.76240	0.01002
919.83403	0.01062
917.90565	0.01211
915.97728	0.01399
914.04891	0.01548
912.12053	0.01603
910.19216	0.01539
908.26379	0.01363
906.33541	0.01115
904.40704	0.00868
902.47867	0.00691
900.55029	0.00581
898.62192	0.00516
896.69355	0.00505
894.76517	0.00541
892.83680	0.00619
890.90843	0.00751
888.98005	0.00895
887.05168	0.00976
885.12331	0.01018
883.19494	0.01135
881.26656	0.01414
879.33819	0.01788
877.40982	0.02091
875.48144	0.02251
873.55307	0.02324
871.62470	0.02374
869.69632	0.02409
867.76795	0.02410
865.83958	0.02347
863.91120	0.02218
861.98283	0.02078
860.05446	0.01968
858.12608	0.01878
856.19771	0.01783
854.26934	0.01671
852.34096	0.01560
850.41259	0.01462
848.48422	0.01390
846.55584	0.01351
844.62747	0.01310
842.69910	0.01238
840.77072	0.01152
838.84235	0.01083
836.91398	0.01058
834.98560	0.01080
833.05723	0.01134
831.12886	0.01182
829.20049	0.01178
827.27211	0.01128
825.34374	0.01078
823.41537	0.01037
821.48699	0.00983
819.55862	0.00942
817.63025	0.00932
815.70187	0.00939
813.77350	0.00951
811.84513	0.00948
809.91675	0.00892
807.98838	0.00795
806.06001	0.00717
804.13163	0.00674
802.20326	0.00625
800.27489	0.00548
798.34651	0.00493
796.41814	0.00491
794.48977	0.00478
792.56139	0.00391
790.63302	0.00281
788.70465	0.00244
786.77627	0.00277
784.84790	0.00303
782.91953	0.00296
780.99115	0.00275
779.06278	0.00245
777.13441	0.00232
775.20603	0.00256
773.27766	0.00279
771.34929	0.00276
769.42092	0.00274
767.49254	0.00281
765.56417	0.00271
763.63580	0.00252
761.70742	0.00243
759.77905	0.00244
757.85068	0.00277
755.92230	0.00298
753.99393	0.00273
752.06556	0.00260
750.13718	0.00270
748.20881	0.00275
746.28044	0.00289
744.35206	0.00300
742.42369	0.00291
740.49532	0.00274
738.56694	0.00269
736.63857	0.00295
734.71020	0.00319
732.78182	0.00286
730.85345	0.00224
728.92508	0.00213
726.99670	0.00242
725.06833	0.00254
723.13996	0.00255
721.21158	0.00259
719.28321	0.00243
717.35484	0.00225
715.42647	0.00244
713.49809	0.00285
711.56972	0.00331
709.64135	0.00354
707.71297	0.00347
705.78460	0.00358
703.85623	0.00381
701.92785	0.00380
699.99948	0.00392
698.07111	0.00409
696.14273	0.00413
694.21436	0.00431
692.28599	0.00470
690.35761	0.00482
688.42924	0.00459
686.50087	0.00411
684.57249	0.00347
682.64412	0.00291
680.71575	0.00271
678.78737	0.00315
676.85900	0.00341
674.93063	0.00354
673.00225	0.00438
671.07388	0.00551
669.14551	0.00694
667.21713	0.00741
665.28876	0.00685
663.36039	0.00664
661.43201	0.00635
659.50364	0.00548
657.57527	0.00484
655.64690	0.00488
653.71852	0.00522
651.79015	0.00473
649.86178	0.00379
647.93340	0.00399
646.00503	0.00538
644.07666	0.00656
642.14828	0.00693
640.21991	0.00637
638.29154	0.00552
636.36316	0.00538
634.43479	0.00565
632.50642	0.00567
630.57804	0.00541
628.64967	0.00431
626.72130	0.00323
624.79292	0.00448
622.86455	0.00707
620.93618	0.00838
619.00780	0.00943
617.07943	0.01038
615.15106	0.01041
613.22268	0.01023
611.29431	0.00920
609.36594	0.00826
607.43756	0.00898
605.50919	0.00995
603.58082	0.01135
601.65244	0.01437
599.72407	0.01708
