3997.51769	0.85440
3995.58931	0.85359
3993.66094	0.85293
3991.73257	0.85262
3989.80419	0.85275
3987.87582	0.85291
3985.94745	0.85269
3984.01907	0.85229
3982.09070	0.85182
3980.16233	0.85123
3978.23396	0.85077
3976.30558	0.85061
3974.37721	0.85049
3972.44884	0.85024
3970.52046	0.85020
3968.59209	0.85052
3966.66372	0.85059
3964.73534	0.84989
3962.80697	0.84883
3960.87860	0.84810
3958.95022	0.84769
3957.02185	0.84742
3955.09348	0.84727
3953.16510	0.84650
3951.23673	0.84499
3949.30836	0.84421
3947.37998	0.84489
3945.45161	0.84502
3943.52324	0.84400
3941.59486	0.84401
3939.66649	0.84504
3937.73812	0.84537
3935.80974	0.84419
3933.88137	0.84211
3931.95300	0.84141
3930.02462	0.84244
3928.09625	0.84257
3926.16788	0.84127
3924.23950	0.84055
3922.31113	0.84046
3920.38276	0.83943
3918.45439	0.83863
3916.52601	0.84007
3914.59764	0.84243
3912.66927	0.84325
3910.74089	0.84258
3908.81252	0.84046
3906.88415	0.83608
3904.95577	0.83189
3903.02740	0.83147
3901.09903	0.83361
3899.17065	0.83670
3897.24228	0.83962
3895.31391	0.83904
3893.38553	0.83579
3891.45716	0.83558
3889.52879	0.83756
3887.60041	0.83592
3885.67204	0.83417
3883.74367	0.83461
3881.81529	0.83369
3879.88692	0.83528
3877.95855	0.83826
3876.03017	0.83648
3874.10180	0.83285
3872.17343	0.83009
3870.24505	0.82962
3868.31668	0.83213
3866.38831	0.83232
3864.45994	0.83141
3862.53156	0.83376
3860.60319	0.83607
3858.67482	0.83416
3856.74644	0.82804
3854.81807	0.82289
3852.88970	0.82825
3850.96132	0.83690
3849.03295	0.83831
3847.10458	0.83595
3845.17620	0.83264
3843.24783	0.82947
3841.31946	0.82643
3839.39108	0.82496
3837.46271	0.82801
3835.53434	0.83193
3833.60596	0.83292
3831.67759	0.83361
3829.74922	0.83411
3827.82084	0.83283
3825.89247	0.83084
3823.96410	0.82697
3822.03572	0.82309
3820.10735	0.82536
3818.17898	0.82842
3816.25060	0.83034
3814.32223	0.83487
3812.39386	0.83661
3810.46548	0.83361
3808.53711	0.82959
3806.60874	0.82886
3804.68037	0.82825
3802.75199	0.82527
3800.82362	0.82708
3798.89525	0.83074
3796.96687	0.83128
3795.03850	0.83325
3793.11013	0.83552
3791.18175	0.83571
3789.25338	0.83502
3787.32501	0.83359
3785.39663	0.83241
3783.46826	0.83229
3781.53989	0.83136
3779.61151	0.83087
3777.68314	0.83302
3775.75477	0.83447
3773.82639	0.83276
3771.89802	0.82953
3769.96965	0.82850
3768.04127	0.82998
3766.11290	0.83087
3764.18453	0.83119
3762.25615	0.82976
3760.32778	0.82697
3758.39941	0.82681
3756.47103	0.82735
3754.54266	0.82415
3752.61429	0.81926
3750.68591	0.81983
3748.75754	0.82399
3746.82917	0.82290
3744.90080	0.82261
3742.97242	0.82803
3741.04405	0.82853
3739.11568	0.82268
3737.18730	0.81644
3735.25893	0.81523
3733.33056	0.82055
3731.40218	0.82689
3729.47381	0.82879
3727.54544	0.82696
3725.61706	0.82553
3723.68869	0.82599
3721.76032	0.82734
3719.83194	0.82940
3717.90357	0.83086
3715.97520	0.82962
3714.04682	0.82518
3712.11845	0.82173
3710.19008	0.82445
3708.26170	0.82950
3706.33333	0.83136
3704.40496	0.82957
3702.47658	0.82775
3700.54821	0.82911
3698.61984	0.83083
3696.69146	0.83049
3694.76309	0.82811
3692.83472	0.82347
3690.90635	0.81917
3688.97797	0.82136
3687.04960	0.82768
3685.12123	0.82976
3683.19285	0.82777
3681.26448	0.82409
3679.33611	0.81877
3677.40773	0.81279
3675.47936	0.81231
3673.55099	0.81606
3671.62261	0.81531
3669.69424	0.81568
3667.76587	0.82034
3665.83749	0.82210
3663.90912	0.82072
3661.98075	0.81884
3660.05237	0.81621
3658.12400	0.81276
3656.19563	0.81118
3654.26725	0.80957
3652.33888	0.80279
3650.41051	0.79478
3648.48213	0.79488
3646.55376	0.80089
3644.62539	0.80403
3642.69701	0.80363
3640.76864	0.80207
3638.84027	0.80026
3636.91189	0.79763
3634.98352	0.79427
3633.05515	0.78998
3631.12678	0.78410
3629.19840	0.78094
3627.27003	0.78450
3625.34166	0.78636
3623.41328	0.78315
3621.48491	0.77778
3619.55654	0.77380
3617.62816	0.77305
3615.69979	0.77184
3613.77142	0.76952
3611.84304	0.76808
3609.91467	0.76657
3607.98630	0.76537
3606.05792	0.76535
3604.12955	0.76403
3602.20118	0.76065
3600.27280	0.75750
3598.34443	0.75520
3596.41606	0.75279
3594.48768	0.75093
3592.55931	0.74945
3590.63094	0.74611
3588.70256	0.74148
3586.77419	0.73982
3584.84582	0.74086
3582.91744	0.74042
3580.98907	0.73809
3579.06070	0.73514
3577.13233	0.73237
3575.20395	0.72991
3573.27558	0.72730
3571.34721	0.72312
3569.41883	0.71673
3567.49046	0.71150
3565.56209	0.71107
3563.63371	0.71176
3561.70534	0.71014
3559.77697	0.70767
3557.84859	0.70554
3555.92022	0.70294
3553.99185	0.69965
3552.06347	0.69679
3550.13510	0.69426
3548.20673	0.69066
3546.27835	0.68695
3544.34998	0.68501
3542.42161	0.68410
3540.49323	0.68253
3538.56486	0.67991
3536.63649	0.67711
3534.70811	0.67455
3532.77974	0.67170
3530.85137	0.66840
3528.92299	0.66521
3526.99462	0.66243
3525.06625	0.66005
3523.13787	0.65833
3521.20950	0.65689
3519.28113	0.65503
3517.35276	0.65291
3515.42438	0.65065
3513.49601	0.64793
3511.56764	0.64487
3509.63926	0.64222
3507.71089	0.64002
3505.78252	0.63750
3503.85414	0.63497
3501.92577	0.63318
3499.99740	0.63136
3498.06902	0.62899
3496.14065	0.62674
3494.21228	0.62489
3492.28390	0.62329
3490.35553	0.62149
3488.42716	0.61929
3486.49878	0.61711
3484.57041	0.61513
3482.64204	0.61326
3480.71366	0.61164
3478.78529	0.61019
3476.85692	0.60865
3474.92854	0.60722
3473.00017	0.60597
3471.07180	0.60456
3469.14342	0.60284
3467.21505	0.60092
3465.28668	0.59900
3463.35831	0.59728
3461.42993	0.59571
3459.50156	0.59417
3457.57319	0.59276
3455.64481	0.59136
3453.71644	0.58975
3451.78807	0.58784
3449.85969	0.58538
3447.93132	0.58282
3446.00295	0.58100
3444.07457	0.57966
3442.14620	0.57821
3440.21783	0.57674
3438.28945	0.57525
3436.36108	0.57353
3434.43271	0.57166
3432.50433	0.56995
3430.57596	0.56848
3428.64759	0.56681
3426.71921	0.56469
3424.79084	0.56239
3422.86247	0.56018
3420.93409	0.55820
3419.00572	0.55651
3417.07735	0.55510
3415.14897	0.55357
3413.22060	0.55158
3411.29223	0.54943
3409.36385	0.54741
3407.43548	0.54548
3405.50711	0.54377
3403.57874	0.54215
3401.65036	0.54045
3399.72199	0.53889
3397.79362	0.53733
3395.86524	0.53531
3393.93687	0.53297
3392.00850	0.53094
3390.08012	0.52930
3388.15175	0.52744
3386.22338	0.52514
3384.29500	0.52276
3382.36663	0.52037
3380.43826	0.51782
3378.50988	0.51504
3376.58151	0.51201
3374.65314	0.50890
3372.72476	0.50574
3370.79639	0.50217
3368.86802	0.49835
3366.93964	0.49470
3365.01127	0.49102
3363.08290	0.48701
3361.15452	0.48297
3359.22615	0.47902
3357.29778	0.47474
3355.36940	0.47013
3353.44103	0.46554
3351.51266	0.46101
3349.58428	0.45635
3347.65591	0.45140
3345.72754	0.44618
3343.79917	0.44087
3341.87079	0.43563
3339.94242	0.43037
3338.01405	0.42488
3336.08567	0.41912
3334.15730	0.41324
3332.22893	0.40749
3330.30055	0.40187
3328.37218	0.39625
3326.44381	0.39072
3324.51543	0.38515
3322.58706	0.37935
3320.65869	0.37354
3318.73031	0.36796
3316.80194	0.36256
3314.87357	0.35732
3312.94519	0.35227
3311.01682	0.34737
3309.08845	0.34263
3307.16007	0.33823
3305.23170	0.33427
3303.30333	0.33075
3301.37495	0.32763
3299.44658	0.32481
3297.51821	0.32234
3295.58983	0.32042
3293.66146	0.31901
3291.73309	0.31803
3289.80472	0.31746
3287.87634	0.31741
3285.94797	0.31788
3284.01960	0.31880
3282.09122	0.32020
3280.16285	0.32231
3278.23448	0.32516
3276.30610	0.32864
3274.37773	0.33273
3272.44936	0.33733
3270.52098	0.34244
3268.59261	0.34825
3266.66424	0.35467
3264.73586	0.36158
3262.80749	0.36903
3260.87912	0.37688
3258.95074	0.38489
3257.02237	0.39300
3255.09400	0.40123
3253.16562	0.40967
3251.23725	0.41824
3249.30888	0.42675
3247.38050	0.43515
3245.45213	0.44334
3243.52376	0.45115
3241.59538	0.45852
3239.66701	0.46567
3237.73864	0.47248
3235.81026	0.47856
3233.88189	0.48395
3231.95352	0.48904
3230.02515	0.49399
3228.09677	0.49869
3226.16840	0.50290
3224.24003	0.50676
3222.31165	0.51052
3220.38328	0.51416
3218.45491	0.51761
3216.52653	0.52094
3214.59816	0.52427
3212.66979	0.52772
3210.74141	0.53137
3208.81304	0.53532
3206.88467	0.53939
3204.95629	0.54317
3203.02792	0.54665
3201.09955	0.55018
3199.17117	0.55399
3197.24280	0.55810
3195.31443	0.56236
3193.38605	0.56654
3191.45768	0.57057
3189.52931	0.57456
3187.60093	0.57868
3185.67256	0.58313
3183.74419	0.58783
3181.81581	0.59231
3179.88744	0.59630
3177.95907	0.60027
3176.03070	0.60465
3174.10232	0.60915
3172.17395	0.61335
3170.24558	0.61739
3168.31720	0.62144
3166.38883	0.62536
3164.46046	0.62910
3162.53208	0.63274
3160.60371	0.63632
3158.67534	0.63986
3156.74696	0.64328
3154.81859	0.64657
3152.89022	0.64985
3150.96184	0.65315
3149.03347	0.65630
3147.10510	0.65899
3145.17672	0.66130
3143.24835	0.66365
3141.31998	0.66605
3139.39160	0.66836
3137.46323	0.67068
3135.53486	0.67282
3133.60648	0.67469
3131.67811	0.67662
3129.74974	0.67838
3127.82136	0.67954
3125.89299	0.68039
3123.96462	0.68128
3122.03624	0.68211
3120.10787	0.68269
3118.17950	0.68301
3116.25113	0.68331
3114.32275	0.68372
3112.39438	0.68383
3110.46601	0.68335
3108.53763	0.68259
3106.60926	0.68199
3104.68089	0.68153
3102.75251	0.68076
3100.82414	0.67961
3098.89577	0.67847
3096.96739	0.67729
3095.03902	0.67590
3093.11065	0.67434
3091.18227	0.67268
3089.25390	0.67120
3087.32553	0.67004
3085.39715	0.66889
3083.46878	0.66772
3081.54041	0.66678
3079.61203	0.66597
3077.68366	0.66528
3075.75529	0.66512
3073.82691	0.66551
3071.89854	0.66594
3069.97017	0.66622
3068.04179	0.66666
3066.11342	0.66763
3064.18505	0.66934
3062.25668	0.67165
3060.32830	0.67410
3058.39993	0.67642
3056.47156	0.67903
3054.54318	0.68227
3052.61481	0.68564
3050.68644	0.68876
3048.75806	0.69195
3046.82969	0.69544
3044.90132	0.69893
3042.97294	0.70223
3041.04457	0.70552
3039.11620	0.70878
3037.18782	0.71178
3035.25945	0.71465
3033.33108	0.71767
3031.40270	0.72085
3029.47433	0.72416
3027.54596	0.72737
3025.61758	0.73018
3023.68921	0.73275
3021.76084	0.73529
3019.83246	0.73765
3017.90409	0.73971
3015.97572	0.74154
3014.04734	0.74305
3012.11897	0.74428
3010.19060	0.74538
3008.26222	0.74609
3006.33385	0.74613
3004.40548	0.74559
3002.47711	0.74459
3000.54873	0.74301
2998.62036	0.74050
2996.69199	0.73693
2994.76361	0.73242
2992.83524	0.72711
2990.90687	0.72114
2988.97849	0.71465
2987.05012	0.70761
2985.12175	0.69993
2983.19337	0.69181
2981.26500	0.68362
2979.33663	0.67566
2977.40825	0.66792
2975.47988	0.66026
2973.55151	0.65278
2971.62313	0.64572
2969.69476	0.63926
2967.76639	0.63376
2965.83801	0.62952
2963.90964	0.62670
2961.98127	0.62601
2960.05289	0.62798
2958.12452	0.63212
2956.19615	0.63795
2954.26777	0.64518
2952.33940	0.65278
2950.41103	0.65911
2948.48266	0.66307
2946.55428	0.66455
2944.62591	0.66367
2942.69754	0.66066
2940.76916	0.65629
2938.84079	0.65161
2936.91242	0.64749
2934.98404	0.64441
2933.05567	0.64205
2931.12730	0.63980
2929.19892	0.63731
2927.27055	0.63410
2925.34218	0.62926
2923.41380	0.62176
2921.48543	0.61178
2919.55706	0.60261
2917.62868	0.60073
2915.70031	0.61165
2913.77194	0.63370
2911.84356	0.65842
2909.91519	0.67865
2907.98682	0.69277
2906.05844	0.70231
2904.13007	0.70914
2902.20170	0.71437
2900.27332	0.71855
2898.34495	0.72209
2896.41658	0.72511
2894.48820	0.72754
2892.55983	0.72940
2890.63146	0.73071
2888.70309	0.73129
2886.77471	0.73107
2884.84634	0.72997
2882.91797	0.72785
2880.98959	0.72502
2879.06122	0.72233
2877.13285	0.72073
2875.20447	0.72108
2873.27610	0.72408
2871.34773	0.72987
2869.41935	0.73755
2867.49098	0.74559
2865.56261	0.75255
2863.63423	0.75763
2861.70586	0.76065
2859.77749	0.76155
2857.84911	0.75995
2855.92074	0.75473
2853.99237	0.74403
2852.06399	0.72799
2850.13562	0.71506
2848.20725	0.71907
2846.27887	0.74169
2844.35050	0.76855
2842.42213	0.78771
2840.49375	0.79852
2838.56538	0.80455
2836.63701	0.80843
2834.70863	0.81140
2832.78026	0.81367
2830.85189	0.81526
2828.92352	0.81641
2826.99514	0.81729
2825.06677	0.81794
2823.13840	0.81861
2821.21002	0.81938
2819.28165	0.82010
2817.35328	0.82087
2815.42490	0.82164
2813.49653	0.82230
2811.56816	0.82302
2809.63978	0.82399
2807.71141	0.82507
2805.78304	0.82604
2803.85466	0.82678
2801.92629	0.82741
2799.99792	0.82800
2798.06954	0.82866
2796.14117	0.82947
2794.21280	0.83030
2792.28442	0.83111
2790.35605	0.83198
2788.42768	0.83292
2786.49930	0.83381
2784.57093	0.83448
2782.64256	0.83489
2780.71418	0.83520
2778.78581	0.83555
2776.85744	0.83599
2774.92907	0.83653
2773.00069	0.83717
2771.07232	0.83785
2769.14395	0.83840
2767.21557	0.83876
2765.28720	0.83915
2763.35883	0.83972
2761.43045	0.84034
2759.50208	0.84082
2757.57371	0.84113
2755.64533	0.84141
2753.71696	0.84174
2751.78859	0.84203
2749.86021	0.84228
2747.93184	0.84247
2746.00347	0.84255
2744.07509	0.84268
2742.14672	0.84291
2740.21835	0.84313
2738.28997	0.84336
2736.36160	0.84365
2734.43323	0.84398
2732.50485	0.84432
2730.57648	0.84450
2728.64811	0.84443
2726.71973	0.84439
2724.79136	0.84469
2722.86299	0.84519
2720.93461	0.84576
2719.00624	0.84626
2717.07787	0.84642
2715.14950	0.84622
2713.22112	0.84603
2711.29275	0.84607
2709.36438	0.84635
2707.43600	0.84661
2705.50763	0.84666
2703.57926	0.84660
2701.65088	0.84653
2699.72251	0.84639
2697.79414	0.84610
2695.86576	0.84578
2693.93739	0.84561
2692.00902	0.84554
2690.08064	0.84540
2688.15227	0.84519
2686.22390	0.84502
2684.29552	0.84487
2682.36715	0.84476
2680.43878	0.84465
2678.51040	0.84444
2676.58203	0.84423
2674.65366	0.84410
2672.72528	0.84397
2670.79691	0.84372
2668.86854	0.84347
2666.94016	0.84325
2665.01179	0.84288
2663.08342	0.84250
2661.15505	0.84242
2659.22667	0.84249
2657.29830	0.84233
2655.36993	0.84187
2653.44155	0.84147
2651.51318	0.84126
2649.58481	0.84098
2647.65643	0.84053
2645.72806	0.84007
2643.79969	0.83985
2641.87131	0.83983
2639.94294	0.83963
2638.01457	0.83909
2636.08619	0.83843
2634.15782	0.83794
2632.22945	0.83770
2630.30107	0.83753
2628.37270	0.83726
2626.44433	0.83689
2624.51595	0.83646
2622.58758	0.83605
2620.65921	0.83569
2618.73083	0.83538
2616.80246	0.83515
2614.87409	0.83492
2612.94571	0.83474
2611.01734	0.83463
2609.08897	0.83440
2607.16059	0.83400
2605.23222	0.83360
2603.30385	0.83335
2601.37548	0.83315
2599.44710	0.83299
2597.51873	0.83289
2595.59036	0.83276
2593.66198	0.83259
2591.73361	0.83238
2589.80524	0.83201
2587.87686	0.83162
2585.94849	0.83136
2584.02012	0.83107
2582.09174	0.83076
2580.16337	0.83056
2578.23500	0.83037
2576.30662	0.83008
2574.37825	0.82982
2572.44988	0.82967
2570.52150	0.82960
2568.59313	0.82952
2566.66476	0.82933
2564.73638	0.82893
2562.80801	0.82851
2560.87964	0.82824
2558.95126	0.82808
2557.02289	0.82785
2555.09452	0.82749
2553.16614	0.82708
2551.23777	0.82680
2549.30940	0.82656
2547.38103	0.82633
2545.45265	0.82619
2543.52428	0.82602
2541.59591	0.82569
2539.66753	0.82538
2537.73916	0.82520
2535.81079	0.82501
2533.88241	0.82469
2531.95404	0.82428
2530.02567	0.82392
2528.09729	0.82363
2526.16892	0.82324
2524.24055	0.82272
2522.31217	0.82233
2520.38380	0.82209
2518.45543	0.82179
2516.52705	0.82144
2514.59868	0.82105
2512.67031	0.82054
2510.74193	0.81997
2508.81356	0.81958
2506.88519	0.81936
2504.95681	0.81913
2503.02844	0.81873
2501.10007	0.81824
2499.17169	0.81779
2497.24332	0.81741
2495.31495	0.81717
2493.38657	0.81704
2491.45820	0.81683
2489.52983	0.81652
2487.60146	0.81615
2485.67308	0.81579
2483.74471	0.81550
2481.81634	0.81529
2479.88796	0.81505
2477.95959	0.81474
2476.03122	0.81440
2474.10284	0.81400
2472.17447	0.81358
2470.24610	0.81326
2468.31772	0.81304
2466.38935	0.81283
2464.46098	0.81260
2462.53260	0.81234
2460.60423	0.81209
2458.67586	0.81177
2456.74748	0.81132
2454.81911	0.81095
2452.89074	0.81069
2450.96236	0.81039
2449.03399	0.80997
2447.10562	0.80954
2445.17724	0.80925
2443.24887	0.80912
2441.32050	0.80898
2439.39212	0.80869
2437.46375	0.80830
2435.53538	0.80799
2433.60700	0.80769
2431.67863	0.80727
2429.75026	0.80676
2427.82189	0.80633
2425.89351	0.80602
2423.96514	0.80580
2422.03677	0.80565
2420.10839	0.80554
2418.18002	0.80537
2416.25165	0.80503
2414.32327	0.80461
2412.39490	0.80424
2410.46653	0.80392
2408.53815	0.80362
2406.60978	0.80341
2404.68141	0.80329
2402.75303	0.80310
2400.82466	0.80279
2398.89629	0.80252
2396.96791	0.80236
2395.03954	0.80213
2393.11117	0.80181
2391.18279	0.80145
2389.25442	0.80080
2387.32605	0.79958
2385.39767	0.79763
2383.46930	0.79484
2381.54093	0.79124
2379.61255	0.78717
2377.68418	0.78310
2375.75581	0.77930
2373.82744	0.77556
2371.89906	0.77164
2369.97069	0.76814
2368.04232	0.76565
2366.11394	0.76374
2364.18557	0.76207
2362.25720	0.76114
2360.32882	0.76177
2358.40045	0.76384
2356.47208	0.76597
2354.54370	0.76796
2352.61533	0.77065
2350.68696	0.77227
2348.75858	0.77067
2346.83021	0.76658
2344.90184	0.76287
2342.97346	0.76197
2341.04509	0.76296
2339.11672	0.76414
2337.18834	0.76494
2335.25997	0.76557
2333.33160	0.76582
2331.40322	0.76578
2329.47485	0.76624
2327.54648	0.76706
2325.61810	0.76768
2323.68973	0.76859
2321.76136	0.77048
2319.83298	0.77294
2317.90461	0.77506
2315.97624	0.77641
2314.04787	0.77725
2312.11949	0.77807
2310.19112	0.77903
2308.26275	0.78018
2306.33437	0.78157
2304.40600	0.78297
2302.47763	0.78404
2300.54925	0.78482
2298.62088	0.78556
2296.69251	0.78627
2294.76413	0.78696
2292.83576	0.78766
2290.90739	0.78834
2288.97901	0.78895
2287.05064	0.78949
2285.12227	0.78991
2283.19389	0.79004
2281.26552	0.78984
2279.33715	0.78949
2277.40877	0.78917
2275.48040	0.78895
2273.55203	0.78880
2271.62365	0.78880
2269.69528	0.78897
2267.76691	0.78903
2265.83853	0.78895
2263.91016	0.78896
2261.98179	0.78905
2260.05342	0.78919
2258.12504	0.78931
2256.19667	0.78933
2254.26830	0.78932
2252.33992	0.78939
2250.41155	0.78947
2248.48318	0.78949
2246.55480	0.78950
2244.62643	0.78953
2242.69806	0.78948
2240.76968	0.78940
2238.84131	0.78941
2236.91294	0.78949
2234.98456	0.78952
2233.05619	0.78951
2231.12782	0.78955
2229.19944	0.78964
2227.27107	0.78973
2225.34270	0.78975
2223.41432	0.78969
2221.48595	0.78967
2219.55758	0.78975
2217.62920	0.78978
2215.70083	0.78969
2213.77246	0.78957
2211.84408	0.78952
2209.91571	0.78950
2207.98734	0.78950
2206.05896	0.78965
2204.13059	0.78980
2202.20222	0.78979
2200.27385	0.78980
2198.34547	0.78987
2196.41710	0.78993
2194.48873	0.78999
2192.56035	0.79012
2190.63198	0.79023
2188.70361	0.79023
2186.77523	0.79029
2184.84686	0.79044
2182.91849	0.79059
2180.99011	0.79079
2179.06174	0.79114
2177.13337	0.79144
2175.20499	0.79146
2173.27662	0.79129
2171.34825	0.79125
2169.41987	0.79145
2167.49150	0.79167
2165.56313	0.79181
2163.63475	0.79188
2161.70638	0.79195
2159.77801	0.79210
2157.84963	0.79231
2155.92126	0.79255
2153.99289	0.79281
2152.06451	0.79303
2150.13614	0.79321
2148.20777	0.79336
2146.27940	0.79344
2144.35102	0.79348
2142.42265	0.79360
2140.49428	0.79390
2138.56590	0.79424
2136.63753	0.79448
2134.70916	0.79466
2132.78078	0.79486
2130.85241	0.79511
2128.92404	0.79537
2126.99566	0.79565
2125.06729	0.79595
2123.13892	0.79626
2121.21054	0.79665
2119.28217	0.79705
2117.35380	0.79730
2115.42542	0.79743
2113.49705	0.79758
2111.56868	0.79788
2109.64030	0.79831
2107.71193	0.79872
2105.78356	0.79900
2103.85518	0.79922
2101.92681	0.79947
2099.99844	0.79985
2098.07006	0.80030
2096.14169	0.80072
2094.21332	0.80107
2092.28494	0.80138
2090.35657	0.80168
2088.42820	0.80204
2086.49983	0.80242
2084.57145	0.80276
2082.64308	0.80312
2080.71471	0.80350
2078.78633	0.80387
2076.85796	0.80439
2074.92959	0.80502
2073.00121	0.80551
2071.07284	0.80585
2069.14447	0.80617
2067.21609	0.80642
2065.28772	0.80672
2063.35935	0.80724
2061.43097	0.80784
2059.50260	0.80839
2057.57423	0.80893
2055.64585	0.80940
2053.71748	0.80985
2051.78911	0.81042
2049.86073	0.81105
2047.93236	0.81154
2046.00399	0.81185
2044.07561	0.81210
2042.14724	0.81244
2040.21887	0.81299
2038.29049	0.81364
2036.36212	0.81422
2034.43375	0.81476
2032.50538	0.81535
2030.57700	0.81597
2028.64863	0.81655
2026.72026	0.81710
2024.79188	0.81763
2022.86351	0.81813
2020.93514	0.81846
2019.00676	0.81855
2017.07839	0.81889
2015.15002	0.81980
2013.22164	0.82079
2011.29327	0.82154
2009.36490	0.82219
2007.43652	0.82277
2005.50815	0.82332
2003.57978	0.82379
2001.65140	0.82420
1999.72303	0.82467
1997.79466	0.82527
1995.86628	0.82561
1993.93791	0.82537
1992.00954	0.82533
1990.08116	0.82617
1988.15279	0.82733
1986.22442	0.82838
1984.29604	0.82928
1982.36767	0.82987
1980.43930	0.83025
1978.51092	0.83069
1976.58255	0.83129
1974.65418	0.83204
1972.72581	0.83274
1970.79743	0.83301
1968.86906	0.83288
1966.94069	0.83326
1965.01231	0.83443
1963.08394	0.83553
1961.15557	0.83628
1959.22719	0.83697
1957.29882	0.83758
1955.37045	0.83813
1953.44207	0.83885
1951.51370	0.83966
1949.58533	0.84023
1947.65695	0.84040
1945.72858	0.84003
1943.80021	0.83955
1941.87183	0.84039
1939.94346	0.84240
1938.01509	0.84388
1936.08671	0.84460
1934.15834	0.84508
1932.22997	0.84563
1930.30159	0.84640
1928.37322	0.84709
1926.44485	0.84724
1924.51647	0.84678
1922.58810	0.84667
1920.65973	0.84688
1918.73135	0.84704
1916.80298	0.84830
1914.87461	0.85015
1912.94624	0.85098
1911.01786	0.85108
1909.08949	0.85156
1907.16112	0.85271
1905.23274	0.85389
1903.30437	0.85468
1901.37600	0.85527
1899.44762	0.85563
1897.51925	0.85558
1895.59088	0.85567
1893.66250	0.85624
1891.73413	0.85616
1889.80576	0.85595
1887.87738	0.85726
1885.94901	0.85906
1884.02064	0.86025
1882.09226	0.86113
1880.16389	0.86184
1878.23552	0.86254
1876.30714	0.86321
1874.37877	0.86349
1872.45040	0.86239
1870.52202	0.85992
1868.59365	0.85911
1866.66528	0.86190
1864.73690	0.86528
1862.80853	0.86700
1860.88016	0.86767
1858.95179	0.86824
1857.02341	0.86897
1855.09504	0.86967
1853.16667	0.87023
1851.23829	0.87039
1849.30992	0.86964
1847.38155	0.86767
1845.45317	0.86575
1843.52480	0.86718
1841.59643	0.87086
1839.66805	0.87267
1837.73968	0.87305
1835.81131	0.87362
1833.88293	0.87343
1831.95456	0.87126
1830.02619	0.86963
1828.09781	0.87063
1826.16944	0.87201
1824.24107	0.87378
1822.31269	0.87630
1820.38432	0.87775
1818.45595	0.87807
1816.52757	0.87835
1814.59920	0.87816
1812.67083	0.87692
1810.74245	0.87621
1808.81408	0.87723
1806.88571	0.87851
1804.95733	0.87823
1803.02896	0.87631
1801.10059	0.87472
1799.17222	0.87518
1797.24384	0.87590
1795.31547	0.87426
1793.38710	0.87151
1791.45872	0.87210
1789.53035	0.87564
1787.60198	0.87725
1785.67360	0.87668
1783.74523	0.87572
1781.81686	0.87461
1779.88848	0.87418
1777.96011	0.87418
1776.03174	0.87204
1774.10336	0.86742
1772.17499	0.86458
1770.24662	0.86618
1768.31824	0.86887
1766.38987	0.87041
1764.46150	0.86932
1762.53312	0.86665
1760.60475	0.86540
1758.67638	0.86456
1756.74800	0.86321
1754.81963	0.86149
1752.89126	0.85729
1750.96288	0.85116
1749.03451	0.84730
1747.10614	0.84591
1745.17777	0.84410
1743.24939	0.84076
1741.32102	0.83643
1739.39265	0.83250
1737.46427	0.82784
1735.53590	0.82073
1733.60753	0.81529
1731.67915	0.81502
1729.75078	0.81492
1727.82241	0.81313
1725.89403	0.80930
1723.96566	0.80321
1722.03729	0.79549
1720.10891	0.78484
1718.18054	0.77152
1716.25217	0.76065
1714.32379	0.75328
1712.39542	0.74439
1710.46705	0.73087
1708.53867	0.71233
1706.61030	0.68867
1704.68193	0.66277
1702.75355	0.63700
1700.82518	0.60447
1698.89681	0.56767
1696.96843	0.53602
1695.04006	0.50392
1693.11169	0.47446
1691.18331	0.44712
1689.25494	0.41740
1687.32657	0.38955
1685.39820	0.36153
1683.46982	0.33145
1681.54145	0.30987
1679.61308	0.29388
1677.68470	0.27769
1675.75633	0.25972
1673.82796	0.24171
1671.89958	0.22591
1669.97121	0.20968
1668.04284	0.19316
1666.11446	0.17931
1664.18609	0.16517
1662.25772	0.14895
1660.32934	0.13394
1658.40097	0.12163
1656.47260	0.11173
1654.54422	0.10407
1652.61585	0.10026
1650.68748	0.10129
1648.75910	0.10548
1646.83073	0.11490
1644.90236	0.12765
1642.97398	0.13817
1641.04561	0.14651
1639.11724	0.15323
1637.18886	0.15899
1635.26049	0.16631
1633.33212	0.17419
1631.40375	0.18123
1629.47537	0.19093
1627.54700	0.20569
1625.61863	0.22495
1623.69025	0.25028
1621.76188	0.28033
1619.83351	0.30711
1617.90513	0.33365
1615.97676	0.36645
1614.04839	0.39623
1612.12001	0.41981
1610.19164	0.44241
1608.26327	0.46482
1606.33489	0.48509
1604.40652	0.50220
1602.47815	0.51666
1600.54977	0.52873
1598.62140	0.53828
1596.69303	0.54570
1594.76465	0.55233
1592.83628	0.55865
1590.90791	0.56410
1588.97953	0.56799
1587.05116	0.56974
1585.12279	0.56934
1583.19441	0.56692
1581.26604	0.56224
1579.33767	0.55461
1577.40929	0.54385
1575.48092	0.53205
1573.55255	0.52148
1571.62418	0.50867
1569.69580	0.49118
1567.76743	0.47298
1565.83906	0.45498
1563.91068	0.43495
1561.98231	0.41403
1560.05394	0.38734
1558.12556	0.35447
1556.19719	0.33442
1554.26882	0.32137
1552.34044	0.30937
1550.41207	0.30012
1548.48370	0.29437
1546.55532	0.29131
1544.62695	0.28981
1542.69858	0.29004
1540.77020	0.29446
1538.84183	0.30504
1536.91346	0.31404
1534.98508	0.32051
1533.05671	0.32935
1531.12834	0.33962
1529.19996	0.34787
1527.27159	0.35545
1525.34322	0.36283
1523.41484	0.36814
1521.48647	0.37263
1519.55810	0.37740
1517.62972	0.38343
1515.70135	0.39439
1513.77298	0.41007
1511.84461	0.42681
1509.91623	0.44151
1507.98786	0.45822
1506.05949	0.48787
1504.13111	0.51655
1502.20274	0.53430
1500.27437	0.54862
1498.34599	0.56457
1496.41762	0.58453
1494.48925	0.60336
1492.56087	0.61536
1490.63250	0.62428
1488.70413	0.63571
1486.77575	0.64803
1484.84738	0.65650
1482.91901	0.65978
1480.99063	0.65884
1479.06226	0.65352
1477.13389	0.64240
1475.20551	0.62625
1473.27714	0.60962
1471.34877	0.59895
1469.42039	0.59283
1467.49202	0.58456
1465.56365	0.57271
1463.63527	0.56106
1461.70690	0.55152
1459.77853	0.54107
1457.85016	0.52913
1455.92178	0.52230
1453.99341	0.52186
1452.06504	0.52285
1450.13666	0.52464
1448.20829	0.52888
1446.27992	0.53661
1444.35154	0.54626
1442.42317	0.55674
1440.49480	0.56692
1438.56642	0.57642
1436.63805	0.58911
1434.70968	0.60410
1432.78130	0.61515
1430.85293	0.62330
1428.92456	0.63097
1426.99618	0.63649
1425.06781	0.63871
1423.13944	0.63872
1421.21106	0.63693
1419.28269	0.63483
1417.35432	0.63571
1415.42594	0.63801
1413.49757	0.63912
1411.56920	0.63957
1409.64082	0.64007
1407.71245	0.64013
1405.78408	0.63995
1403.85570	0.64076
1401.92733	0.64127
1399.99896	0.63972
1398.07059	0.63703
1396.14221	0.63448
1394.21384	0.63300
1392.28547	0.63230
1390.35709	0.63050
1388.42872	0.62832
1386.50035	0.62897
1384.57197	0.63247
1382.64360	0.63644
1380.71523	0.64033
1378.78685	0.64420
1376.85848	0.64721
1374.93011	0.64949
1373.00173	0.65265
1371.07336	0.65655
1369.14499	0.66070
1367.21661	0.66570
1365.28824	0.67037
1363.35987	0.67437
1361.43149	0.67926
1359.50312	0.68409
1357.57475	0.68709
1355.64637	0.68850
1353.71800	0.68897
1351.78963	0.68859
1349.86125	0.68734
1347.93288	0.68538
1346.00451	0.68291
1344.07614	0.67967
1342.14776	0.67527
1340.21939	0.67079
1338.29102	0.66839
1336.36264	0.66791
1334.43427	0.66740
1332.50590	0.66622
1330.57752	0.66509
1328.64915	0.66461
1326.72078	0.66461
1324.79240	0.66457
1322.86403	0.66401
1320.93566	0.66254
1319.00728	0.66041
1317.07891	0.65809
1315.15054	0.65541
1313.22216	0.65230
1311.29379	0.64906
1309.36542	0.64587
1307.43704	0.64314
1305.50867	0.64150
1303.58030	0.64114
1301.65192	0.64185
1299.72355	0.64317
1297.79518	0.64442
1295.86680	0.64497
1293.93843	0.64447
1292.01006	0.64287
1290.08168	0.64025
1288.15331	0.63717
1286.22494	0.63454
1284.29657	0.63280
1282.36819	0.63181
1280.43982	0.63106
1278.51145	0.63028
1276.58307	0.62948
1274.65470	0.62863
1272.72633	0.62760
1270.79795	0.62654
1268.86958	0.62571
1266.94121	0.62524
1265.01283	0.62488
1263.08446	0.62445
1261.15609	0.62399
1259.22771	0.62340
1257.29934	0.62245
1255.37097	0.62069
1253.44259	0.61801
1251.51422	0.61481
1249.58585	0.61128
1247.65747	0.60745
1245.72910	0.60370
1243.80073	0.60044
1241.87235	0.59776
1239.94398	0.59571
1238.01561	0.59468
1236.08723	0.59490
1234.15886	0.59605
1232.23049	0.59803
1230.30212	0.60126
1228.37374	0.60574
1226.44537	0.61093
1224.51700	0.61635
1222.58862	0.62207
1220.66025	0.62821
1218.73188	0.63433
1216.80350	0.63969
1214.87513	0.64404
1212.94676	0.64747
1211.01838	0.64989
1209.09001	0.65145
1207.16164	0.65294
1205.23326	0.65496
1203.30489	0.65738
1201.37652	0.66007
1199.44814	0.66350
1197.51977	0.66785
1195.59140	0.67276
1193.66302	0.67800
1191.73465	0.68323
1189.80628	0.68767
1187.87790	0.69079
1185.94953	0.69272
1184.02116	0.69386
1182.09278	0.69458
1180.16441	0.69471
1178.23604	0.69372
1176.30766	0.69158
1174.37929	0.68912
1172.45092	0.68713
1170.52255	0.68598
1168.59417	0.68563
1166.66580	0.68581
1164.73743	0.68650
1162.80905	0.68786
1160.88068	0.68979
1158.95231	0.69211
1157.02393	0.69485
1155.09556	0.69790
1153.16719	0.70112
1151.23881	0.70453
1149.31044	0.70799
1147.38207	0.71132
1145.45369	0.71454
1143.52532	0.71728
1141.59695	0.71908
1139.66857	0.71986
1137.74020	0.71974
1135.81183	0.71902
1133.88345	0.71782
1131.95508	0.71602
1130.02671	0.71380
1128.09833	0.71160
1126.16996	0.70989
1124.24159	0.70887
1122.31321	0.70847
1120.38484	0.70847
1118.45647	0.70828
1116.52809	0.70785
1114.59972	0.70790
1112.67135	0.70847
1110.74298	0.70903
1108.81460	0.70946
1106.88623	0.70978
1104.95786	0.70992
1103.02948	0.71012
1101.10111	0.71065
1099.17274	0.71133
1097.24436	0.71176
1095.31599	0.71199
1093.38762	0.71223
1091.45924	0.71213
1089.53087	0.71132
1087.60250	0.70993
1085.67412	0.70824
1083.74575	0.70641
1081.81738	0.70461
1079.88900	0.70324
1077.96063	0.70266
1076.03226	0.70279
1074.10388	0.70326
1072.17551	0.70397
1070.24714	0.70481
1068.31876	0.70545
1066.39039	0.70574
1064.46202	0.70589
1062.53364	0.70601
1060.60527	0.70600
1058.67690	0.70566
1056.74853	0.70486
1054.82015	0.70388
1052.89178	0.70314
1050.96341	0.70260
1049.03503	0.70199
1047.10666	0.70131
1045.17829	0.70049
1043.24991	0.69935
1041.32154	0.69809
1039.39317	0.69688
1037.46479	0.69565
1035.53642	0.69442
1033.60805	0.69346
1031.67967	0.69300
1029.75130	0.69331
1027.82293	0.69463
1025.89455	0.69668
1023.96618	0.69885
1022.03781	0.70094
1020.10943	0.70291
1018.18106	0.70466
1016.25269	0.70620
1014.32431	0.70783
1012.39594	0.70966
1010.46757	0.71135
1008.53919	0.71269
1006.61082	0.71398
1004.68245	0.71563
1002.75407	0.71736
1000.82570	0.71860
998.89733	0.71951
996.96896	0.72057
995.04058	0.72166
993.11221	0.72237
991.18384	0.72286
989.25546	0.72352
987.32709	0.72418
985.39872	0.72450
983.47034	0.72486
981.54197	0.72560
979.61360	0.72639
977.68522	0.72694
975.75685	0.72731
973.82848	0.72789
971.90010	0.72866
969.97173	0.72920
968.04336	0.72963
966.11498	0.73008
964.18661	0.73018
962.25824	0.72980
960.32986	0.72917
958.40149	0.72844
956.47312	0.72776
954.54474	0.72740
952.61637	0.72751
950.68800	0.72766
948.75962	0.72738
946.83125	0.72669
944.90288	0.72590
942.97451	0.72508
941.04613	0.72415
939.11776	0.72305
937.18939	0.72217
935.26101	0.72160
933.33264	0.72106
931.40427	0.72065
929.47589	0.72018
927.54752	0.71946
925.61915	0.71882
923.69077	0.71849
921.76240	0.71857
919.83403	0.71883
917.90565	0.71879
915.97728	0.71849
914.04891	0.71830
912.12053	0.71816
910.19216	0.71779
908.26379	0.71738
906.33541	0.71695
904.40704	0.71641
902.47867	0.71612
900.55029	0.71602
898.62192	0.71573
896.69355	0.71530
894.76517	0.71511
892.83680	0.71527
890.90843	0.71527
888.98005	0.71479
887.05168	0.71409
885.12331	0.71356
883.19494	0.71302
881.26656	0.71206
879.33819	0.71088
877.40982	0.70985
875.48144	0.70909
873.55307	0.70848
871.62470	0.70790
869.69632	0.70764
867.76795	0.70785
865.83958	0.70798
863.91120	0.70760
861.98283	0.70700
860.05446	0.70636
858.12608	0.70539
856.19771	0.70427
854.26934	0.70385
852.34096	0.70374
850.41259	0.70250
848.48422	0.70041
846.55584	0.69889
844.62747	0.69804
842.69910	0.69685
840.77072	0.69517
838.84235	0.69365
836.91398	0.69221
834.98560	0.69039
833.05723	0.68873
831.12886	0.68759
829.20049	0.68672
827.27211	0.68626
825.34374	0.68588
823.41537	0.68520
821.48699	0.68489
819.55862	0.68483
817.63025	0.68411
815.70187	0.68285
813.77350	0.68187
811.84513	0.68124
809.91675	0.68055
807.98838	0.67993
806.06001	0.67929
804.13163	0.67824
802.20326	0.67678
800.27489	0.67518
798.34651	0.67392
796.41814	0.67295
794.48977	0.67153
792.56139	0.66954
790.63302	0.66748
788.70465	0.66549
786.77627	0.66387
784.84790	0.66295
782.91953	0.66228
780.99115	0.66105
779.06278	0.65899
777.13441	0.65695
775.20603	0.65592
773.27766	0.65540
771.34929	0.65419
769.42092	0.65254
767.49254	0.65140
765.56417	0.65023
763.63580	0.64860
761.70742	0.64717
759.77905	0.64573
757.85068	0.64383
755.92230	0.64230
753.99393	0.64148
752.06556	0.64069
750.13718	0.63966
748.20881	0.63836
746.28044	0.63677
744.35206	0.63512
742.42369	0.63373
740.49532	0.63271
738.56694	0.63210
736.63857	0.63181
734.71020	0.63106
732.78182	0.62884
730.85345	0.62588
728.92508	0.62374
726.99670	0.62229
725.06833	0.62043
723.13996	0.61785
721.21158	0.61499
719.28321	0.61303
717.35484	0.61235
715.42647	0.61150
713.49809	0.60945
711.56972	0.60672
709.64135	0.60405
707.71297	0.60156
705.78460	0.59920
703.85623	0.59684
701.92785	0.59468
699.99948	0.59339
698.07111	0.59303
696.14273	0.59267
694.21436	0.59161
692.28599	0.59011
690.35761	0.58861
688.42924	0.58709
686.50087	0.58532
684.57249	0.58353
682.64412	0.58225
680.71575	0.58153
678.78737	0.58119
676.85900	0.58058
674.93063	0.57886
673.00225	0.57643
671.07388	0.57489
669.14551	0.57644
667.21713	0.57938
665.28876	0.57811
663.36039	0.57555
661.43201	0.57433
659.50364	0.57440
657.57527	0.57499
655.64690	0.57634
653.71852	0.57841
651.79015	0.58023
649.86178	0.58193
647.93340	0.58334
646.00503	0.58339
644.07666	0.58295
642.14828	0.58298
640.21991	0.58293
638.29154	0.58302
636.36316	0.58426
634.43479	0.58598
632.50642	0.58691
630.57804	0.58801
628.64967	0.58988
626.72130	0.59190
624.79292	0.59398
622.86455	0.59573
620.93618	0.59739
619.00780	0.59924
617.07943	0.60071
615.15106	0.60244
613.22268	0.60578
611.29431	0.61086
609.36594	0.61589
607.43756	0.61832
605.50919	0.61853
603.58082	0.62035
601.65244	0.62594
599.72407	0.63237
