3997.51769	0.64962
3995.58931	0.65138
3993.66094	0.65369
3991.73257	0.65638
3989.80419	0.65961
3987.87582	0.66325
3985.94745	0.66704
3984.01907	0.67093
3982.09070	0.67457
3980.16233	0.67773
3978.23396	0.68074
3976.30558	0.68370
3974.37721	0.68619
3972.44884	0.68816
3970.52046	0.69005
3968.59209	0.69222
3966.66372	0.69494
3964.73534	0.69803
3962.80697	0.70094
3960.87860	0.70336
3958.95022	0.70566
3957.02185	0.70828
3955.09348	0.71088
3953.16510	0.71314
3951.23673	0.71540
3949.30836	0.71795
3947.37998	0.72027
3945.45161	0.72216
3943.52324	0.72409
3941.59486	0.72580
3939.66649	0.72701
3937.73812	0.72835
3935.80974	0.73018
3933.88137	0.73271
3931.95300	0.73559
3930.02462	0.73745
3928.09625	0.73851
3926.16788	0.74031
3924.23950	0.74263
3922.31113	0.74448
3920.38276	0.74657
3918.45439	0.74945
3916.52601	0.75178
3914.59764	0.75268
3912.66927	0.75333
3910.74089	0.75484
3908.81252	0.75728
3906.88415	0.76135
3904.95577	0.76772
3903.02740	0.77409
3901.09903	0.77739
3899.17065	0.77762
3897.24228	0.77632
3895.31391	0.77599
3893.38553	0.77861
3891.45716	0.78270
3889.52879	0.78464
3887.60041	0.78635
3885.67204	0.79042
3883.74367	0.79349
3881.81529	0.79515
3879.88692	0.79740
3877.95855	0.79827
3876.03017	0.79945
3874.10180	0.80319
3872.17343	0.80781
3870.24505	0.81221
3868.31668	0.81439
3866.38831	0.81471
3864.45994	0.81641
3862.53156	0.81791
3860.60319	0.81757
3858.67482	0.81762
3856.74644	0.82097
3854.81807	0.83074
3852.88970	0.83989
3850.96132	0.83492
3849.03295	0.82659
3847.10458	0.82337
3845.17620	0.82498
3843.24783	0.82893
3841.31946	0.83311
3839.39108	0.83752
3837.46271	0.84056
3835.53434	0.83930
3833.60596	0.83643
3831.67759	0.83441
3829.74922	0.83280
3827.82084	0.83226
3825.89247	0.83311
3823.96410	0.83536
3822.03572	0.84025
3820.10735	0.84388
3818.17898	0.84289
3816.25060	0.84194
3814.32223	0.84011
3812.39386	0.83642
3810.46548	0.83495
3808.53711	0.83741
3806.60874	0.84111
3804.68037	0.84250
3802.75199	0.84434
3800.82362	0.84644
3798.89525	0.84414
3796.96687	0.84074
3795.03850	0.83821
3793.11013	0.83552
3791.18175	0.83359
3789.25338	0.83294
3787.32501	0.83323
3785.39663	0.83389
3783.46826	0.83417
3781.53989	0.83437
3779.61151	0.83471
3777.68314	0.83334
3775.75477	0.83048
3773.82639	0.82867
3771.89802	0.82907
3769.96965	0.83070
3768.04127	0.83079
3766.11290	0.82925
3764.18453	0.82727
3762.25615	0.82558
3760.32778	0.82567
3758.39941	0.82600
3756.47103	0.82453
3754.54266	0.82408
3752.61429	0.82782
3750.68591	0.83237
3748.75754	0.83018
3746.82917	0.82628
3744.90080	0.82581
3742.97242	0.82195
3741.04405	0.81329
3739.11568	0.80789
3737.18730	0.80799
3735.25893	0.80972
3733.33056	0.80731
3731.40218	0.80001
3729.47381	0.79231
3727.54544	0.78730
3725.61706	0.78454
3723.68869	0.78180
3721.76032	0.77799
3719.83194	0.77296
3717.90357	0.76708
3715.97520	0.76199
3714.04682	0.75889
3712.11845	0.75682
3710.19008	0.75131
3708.26170	0.74153
3706.33333	0.73154
3704.40496	0.72310
3702.47658	0.71526
3700.54821	0.70540
3698.61984	0.69392
3696.69146	0.68212
3694.76309	0.67004
3692.83472	0.65836
3690.90635	0.64620
3688.97797	0.62945
3687.04960	0.60685
3685.12123	0.58404
3683.19285	0.56272
3681.26448	0.54144
3679.33611	0.52053
3677.40773	0.50007
3675.47936	0.47506
3673.55099	0.44679
3671.62261	0.42232
3669.69424	0.39616
3667.76587	0.36812
3665.83749	0.34364
3663.90912	0.32071
3661.98075	0.29812
3660.05237	0.27695
3658.12400	0.25721
3656.19563	0.23671
3654.26725	0.21717
3652.33888	0.20138
3650.41051	0.18566
3648.48213	0.16707
3646.55376	0.14952
3644.62539	0.13560
3642.69701	0.12371
3640.76864	0.11247
3638.84027	0.10179
3636.91189	0.09199
3634.98352	0.08308
3633.05515	0.07510
3631.12678	0.06808
3629.19840	0.06068
3627.27003	0.05299
3625.34166	0.04711
3623.41328	0.04250
3621.48491	0.03828
3619.55654	0.03395
3617.62816	0.02982
3615.69979	0.02659
3613.77142	0.02371
3611.84304	0.02072
3609.91467	0.01804
3607.98630	0.01592
3606.05792	0.01417
3604.12955	0.01259
3602.20118	0.01103
3600.27280	0.00951
3598.34443	0.00812
3596.41606	0.00690
3594.48768	0.00583
3592.55931	0.00496
3590.63094	0.00427
3588.70256	0.00352
3586.77419	0.00272
3584.84582	0.00214
3582.91744	0.00178
3580.98907	0.00161
3579.06070	0.00163
3577.13233	0.00167
3575.20395	0.00137
3573.27558	0.00082
3571.34721	0.00067
3569.41883	0.00072
3567.49046	0.00068
3565.56209	0.00061
3563.63371	0.00064
3561.70534	0.00076
3559.77697	0.00086
3557.84859	0.00094
3555.92022	0.00087
3553.99185	0.00073
3552.06347	0.00071
3550.13510	0.00062
3548.20673	0.00041
3546.27835	0.00024
3544.34998	0.00032
3542.42161	0.00037
3540.49323	0.00038
3538.56486	0.00042
3536.63649	0.00042
3534.70811	0.00033
3532.77974	0.00036
3530.85137	0.00057
3528.92299	0.00056
3526.99462	0.00030
3525.06625	0.00013
3523.13787	0.00033
3521.20950	0.00054
3519.28113	0.00067
3517.35276	0.00068
3515.42438	0.00067
3513.49601	0.00059
3511.56764	0.00056
3509.63926	0.00037
3507.71089	0.00035
3505.78252	0.00059
3503.85414	0.00090
3501.92577	0.00090
3499.99740	0.00055
3498.06902	0.00046
3496.14065	0.00065
3494.21228	0.00062
3492.28390	0.00054
3490.35553	0.00067
3488.42716	0.00074
3486.49878	0.00060
3484.57041	0.00049
3482.64204	0.00070
3480.71366	0.00077
3478.78529	0.00077
3476.85692	0.00056
3474.92854	0.00047
3473.00017	0.00046
3471.07180	0.00030
3469.14342	0.00017
3467.21505	0.00011
3465.28668	0.00030
3463.35831	0.00045
3461.42993	0.00038
3459.50156	0.00037
3457.57319	0.00049
3455.64481	0.00042
3453.71644	0.00048
3451.78807	0.00064
3449.85969	0.00062
3447.93132	0.00062
3446.00295	0.00062
3444.07457	0.00048
3442.14620	0.00047
3440.21783	0.00061
3438.28945	0.00051
3436.36108	0.00024
3434.43271	0.00019
3432.50433	0.00028
3430.57596	0.00052
3428.64759	0.00055
3426.71921	0.00040
3424.79084	0.00060
3422.86247	0.00061
3420.93409	0.00041
3419.00572	0.00037
3417.07735	0.00061
3415.14897	0.00074
3413.22060	0.00068
3411.29223	0.00081
3409.36385	0.00067
3407.43548	0.00035
3405.50711	0.00057
3403.57874	0.00080
3401.65036	0.00069
3399.72199	0.00044
3397.79362	0.00049
3395.86524	0.00039
3393.93687	0.00038
3392.00850	0.00045
3390.08012	0.00049
3388.15175	0.00062
3386.22338	0.00067
3384.29500	0.00071
3382.36663	0.00081
3380.43826	0.00078
3378.50988	0.00061
3376.58151	0.00055
3374.65314	0.00073
3372.72476	0.00078
3370.79639	0.00058
3368.86802	0.00046
3366.93964	0.00058
3365.01127	0.00046
3363.08290	0.00025
3361.15452	0.00041
3359.22615	0.00034
3357.29778	0.00022
3355.36940	0.00023
3353.44103	0.00041
3351.51266	0.00057
3349.58428	0.00086
3347.65591	0.00090
3345.72754	0.00059
3343.79917	0.00028
3341.87079	0.00034
3339.94242	0.00038
3338.01405	0.00043
3336.08567	0.00047
3334.15730	0.00051
3332.22893	0.00054
3330.30055	0.00038
3328.37218	0.00028
3326.44381	0.00022
3324.51543	0.00024
3322.58706	0.00048
3320.65869	0.00055
3318.73031	0.00056
3316.80194	0.00090
3314.87357	0.00104
3312.94519	0.00086
3311.01682	0.00070
3309.08845	0.00060
3307.16007	0.00046
3305.23170	0.00029
3303.30333	0.00025
3301.37495	0.00046
3299.44658	0.00049
3297.51821	0.00050
3295.58983	0.00050
3293.66146	0.00046
3291.73309	0.00051
3289.80472	0.00059
3287.87634	0.00055
3285.94797	0.00053
3284.01960	0.00051
3282.09122	0.00063
3280.16285	0.00067
3278.23448	0.00051
3276.30610	0.00037
3274.37773	0.00041
3272.44936	0.00056
3270.52098	0.00059
3268.59261	0.00036
3266.66424	0.00020
3264.73586	0.00030
3262.80749	0.00053
3260.87912	0.00064
3258.95074	0.00051
3257.02237	0.00059
3255.09400	0.00072
3253.16562	0.00062
3251.23725	0.00059
3249.30888	0.00044
3247.38050	0.00063
3245.45213	0.00060
3243.52376	0.00049
3241.59538	0.00034
3239.66701	0.00048
3237.73864	0.00055
3235.81026	0.00036
3233.88189	0.00035
3231.95352	0.00037
3230.02515	0.00026
3228.09677	0.00021
3226.16840	0.00024
3224.24003	0.00035
3222.31165	0.00067
3220.38328	0.00095
3218.45491	0.00080
3216.52653	0.00050
3214.59816	0.00050
3212.66979	0.00077
3210.74141	0.00091
3208.81304	0.00082
3206.88467	0.00059
3204.95629	0.00042
3203.02792	0.00028
3201.09955	0.00020
3199.17117	0.00028
3197.24280	0.00024
3195.31443	0.00029
3193.38605	0.00043
3191.45768	0.00040
3189.52931	0.00045
3187.60093	0.00061
3185.67256	0.00063
3183.74419	0.00071
3181.81581	0.00078
3179.88744	0.00067
3177.95907	0.00057
3176.03070	0.00069
3174.10232	0.00067
3172.17395	0.00049
3170.24558	0.00044
3168.31720	0.00048
3166.38883	0.00035
3164.46046	0.00025
3162.53208	0.00034
3160.60371	0.00044
3158.67534	0.00044
3156.74696	0.00049
3154.81859	0.00039
3152.89022	0.00025
3150.96184	0.00033
3149.03347	0.00043
3147.10510	0.00059
3145.17672	0.00059
3143.24835	0.00035
3141.31998	0.00017
3139.39160	0.00020
3137.46323	0.00040
3135.53486	0.00062
3133.60648	0.00071
3131.67811	0.00069
3129.74974	0.00052
3127.82136	0.00036
3125.89299	0.00037
3123.96462	0.00057
3122.03624	0.00067
3120.10787	0.00044
3118.17950	0.00045
3116.25113	0.00051
3114.32275	0.00038
3112.39438	0.00042
3110.46601	0.00071
3108.53763	0.00073
3106.60926	0.00050
3104.68089	0.00036
3102.75251	0.00029
3100.82414	0.00022
3098.89577	0.00026
3096.96739	0.00040
3095.03902	0.00036
3093.11065	0.00020
3091.18227	0.00015
3089.25390	0.00013
3087.32553	0.00031
3085.39715	0.00027
3083.46878	0.00018
3081.54041	0.00023
3079.61203	0.00033
3077.68366	0.00042
3075.75529	0.00053
3073.82691	0.00057
3071.89854	0.00049
3069.97017	0.00039
3068.04179	0.00038
3066.11342	0.00025
3064.18505	0.00023
3062.25668	0.00034
3060.32830	0.00027
3058.39993	0.00027
3056.47156	0.00046
3054.54318	0.00054
3052.61481	0.00035
3050.68644	0.00023
3048.75806	0.00025
3046.82969	0.00026
3044.90132	0.00033
3042.97294	0.00024
3041.04457	0.00029
3039.11620	0.00038
3037.18782	0.00038
3035.25945	0.00022
3033.33108	0.00011
3031.40270	0.00030
3029.47433	0.00039
3027.54596	0.00028
3025.61758	0.00036
3023.68921	0.00049
3021.76084	0.00052
3019.83246	0.00044
3017.90409	0.00047
3015.97572	0.00056
3014.04734	0.00065
3012.11897	0.00062
3010.19060	0.00040
3008.26222	0.00028
3006.33385	0.00042
3004.40548	0.00049
3002.47711	0.00042
3000.54873	0.00045
2998.62036	0.00032
2996.69199	0.00027
2994.76361	0.00042
2992.83524	0.00034
2990.90687	0.00040
2988.97849	0.00070
2987.05012	0.00078
2985.12175	0.00058
2983.19337	0.00041
2981.26500	0.00021
2979.33663	0.00041
2977.40825	0.00056
2975.47988	0.00079
2973.55151	0.00090
2971.62313	0.00095
2969.69476	0.00090
2967.76639	0.00078
2965.83801	0.00069
2963.90964	0.00076
2961.98127	0.00073
2960.05289	0.00048
2958.12452	0.00019
2956.19615	0.00039
2954.26777	0.00068
2952.33940	0.00071
2950.41103	0.00066
2948.48266	0.00074
2946.55428	0.00080
2944.62591	0.00088
2942.69754	0.00084
2940.76916	0.00079
2938.84079	0.00053
2936.91242	0.00030
2934.98404	0.00029
2933.05567	0.00050
2931.12730	0.00081
2929.19892	0.00074
2927.27055	0.00066
2925.34218	0.00062
2923.41380	0.00081
2921.48543	0.00092
2919.55706	0.00074
2917.62868	0.00055
2915.70031	0.00051
2913.77194	0.00050
2911.84356	0.00060
2909.91519	0.00059
2907.98682	0.00040
2906.05844	0.00029
2904.13007	0.00043
2902.20170	0.00060
2900.27332	0.00064
2898.34495	0.00059
2896.41658	0.00053
2894.48820	0.00044
2892.55983	0.00060
2890.63146	0.00069
2888.70309	0.00068
2886.77471	0.00072
2884.84634	0.00075
2882.91797	0.00074
2880.98959	0.00065
2879.06122	0.00045
2877.13285	0.00044
2875.20447	0.00058
2873.27610	0.00074
2871.34773	0.00084
2869.41935	0.00068
2867.49098	0.00072
2865.56261	0.00065
2863.63423	0.00050
2861.70586	0.00037
2859.77749	0.00039
2857.84911	0.00045
2855.92074	0.00058
2853.99237	0.00062
2852.06399	0.00058
2850.13562	0.00051
2848.20725	0.00040
2846.27887	0.00044
2844.35050	0.00055
2842.42213	0.00068
2840.49375	0.00086
2838.56538	0.00107
2836.63701	0.00130
2834.70863	0.00160
2832.78026	0.00187
2830.85189	0.00198
2828.92352	0.00203
2826.99514	0.00212
2825.06677	0.00238
2823.13840	0.00276
2821.21002	0.00303
2819.28165	0.00315
2817.35328	0.00332
2815.42490	0.00369
2813.49653	0.00426
2811.56816	0.00498
2809.63978	0.00575
2807.71141	0.00638
2805.78304	0.00673
2803.85466	0.00699
2801.92629	0.00745
2799.99792	0.00814
2798.06954	0.00881
2796.14117	0.00935
2794.21280	0.01000
2792.28442	0.01082
2790.35605	0.01158
2788.42768	0.01223
2786.49930	0.01281
2784.57093	0.01325
2782.64256	0.01358
2780.71418	0.01395
2778.78581	0.01439
2776.85744	0.01481
2774.92907	0.01533
2773.00069	0.01602
2771.07232	0.01656
2769.14395	0.01687
2767.21557	0.01721
2765.28720	0.01775
2763.35883	0.01848
2761.43045	0.01931
2759.50208	0.02013
2757.57371	0.02076
2755.64533	0.02127
2753.71696	0.02179
2751.78859	0.02232
2749.86021	0.02284
2747.93184	0.02341
2746.00347	0.02407
2744.07509	0.02473
2742.14672	0.02526
2740.21835	0.02569
2738.28997	0.02622
2736.36160	0.02681
2734.43323	0.02736
2732.50485	0.02791
2730.57648	0.02837
2728.64811	0.02861
2726.71973	0.02884
2724.79136	0.02928
2722.86299	0.02988
2720.93461	0.03053
2719.00624	0.03122
2717.07787	0.03195
2715.14950	0.03276
2713.22112	0.03366
2711.29275	0.03458
2709.36438	0.03552
2707.43600	0.03650
2705.50763	0.03746
2703.57926	0.03838
2701.65088	0.03933
2699.72251	0.04031
2697.79414	0.04131
2695.86576	0.04233
2693.93739	0.04325
2692.00902	0.04405
2690.08064	0.04491
2688.15227	0.04593
2686.22390	0.04693
2684.29552	0.04775
2682.36715	0.04851
2680.43878	0.04942
2678.51040	0.05051
2676.58203	0.05176
2674.65366	0.05304
2672.72528	0.05422
2670.79691	0.05523
2668.86854	0.05611
2666.94016	0.05699
2665.01179	0.05794
2663.08342	0.05891
2661.15505	0.05973
2659.22667	0.06036
2657.29830	0.06094
2655.36993	0.06151
2653.44155	0.06201
2651.51318	0.06256
2649.58481	0.06322
2647.65643	0.06388
2645.72806	0.06440
2643.79969	0.06483
2641.87131	0.06529
2639.94294	0.06579
2638.01457	0.06631
2636.08619	0.06682
2634.15782	0.06727
2632.22945	0.06767
2630.30107	0.06817
2628.37270	0.06887
2626.44433	0.06970
2624.51595	0.07050
2622.58758	0.07124
2620.65921	0.07192
2618.73083	0.07261
2616.80246	0.07350
2614.87409	0.07455
2612.94571	0.07558
2611.01734	0.07648
2609.08897	0.07734
2607.16059	0.07830
2605.23222	0.07936
2603.30385	0.08038
2601.37548	0.08133
2599.44710	0.08217
2597.51873	0.08288
2595.59036	0.08349
2593.66198	0.08402
2591.73361	0.08449
2589.80524	0.08498
2587.87686	0.08565
2585.94849	0.08645
2584.02012	0.08722
2582.09174	0.08789
2580.16337	0.08857
2578.23500	0.08944
2576.30662	0.09057
2574.37825	0.09180
2572.44988	0.09308
2570.52150	0.09458
2568.59313	0.09631
2566.66476	0.09813
2564.73638	0.10002
2562.80801	0.10208
2560.87964	0.10432
2558.95126	0.10665
2557.02289	0.10901
2555.09452	0.11133
2553.16614	0.11354
2551.23777	0.11554
2549.30940	0.11728
2547.38103	0.11890
2545.45265	0.12034
2543.52428	0.12148
2541.59591	0.12239
2539.66753	0.12319
2537.73916	0.12389
2535.81079	0.12449
2533.88241	0.12510
2531.95404	0.12584
2530.02567	0.12670
2528.09729	0.12765
2526.16892	0.12873
2524.24055	0.12990
2522.31217	0.13112
2520.38380	0.13241
2518.45543	0.13377
2516.52705	0.13522
2514.59868	0.13675
2512.67031	0.13823
2510.74193	0.13967
2508.81356	0.14118
2506.88519	0.14277
2504.95681	0.14435
2503.02844	0.14591
2501.10007	0.14752
2499.17169	0.14925
2497.24332	0.15107
2495.31495	0.15294
2493.38657	0.15481
2491.45820	0.15667
2489.52983	0.15861
2487.60146	0.16069
2485.67308	0.16284
2483.74471	0.16497
2481.81634	0.16700
2479.88796	0.16900
2477.95959	0.17108
2476.03122	0.17322
2474.10284	0.17529
2472.17447	0.17727
2470.24610	0.17937
2468.31772	0.18164
2466.38935	0.18392
2464.46098	0.18614
2462.53260	0.18837
2460.60423	0.19064
2458.67586	0.19286
2456.74748	0.19497
2454.81911	0.19702
2452.89074	0.19910
2450.96236	0.20123
2449.03399	0.20326
2447.10562	0.20516
2445.17724	0.20706
2443.24887	0.20909
2441.32050	0.21127
2439.39212	0.21349
2437.46375	0.21565
2435.53538	0.21786
2433.60700	0.22024
2431.67863	0.22266
2429.75026	0.22494
2427.82189	0.22705
2425.89351	0.22907
2423.96514	0.23094
2422.03677	0.23261
2420.10839	0.23412
2418.18002	0.23563
2416.25165	0.23726
2414.32327	0.23897
2412.39490	0.24069
2410.46653	0.24253
2408.53815	0.24463
2406.60978	0.24701
2404.68141	0.24961
2402.75303	0.25230
2400.82466	0.25494
2398.89629	0.25763
2396.96791	0.26045
2395.03954	0.26316
2393.11117	0.26566
2391.18279	0.26810
2389.25442	0.27052
2387.32605	0.27272
2385.39767	0.27451
2383.46930	0.27584
2381.54093	0.27684
2379.61255	0.27766
2377.68418	0.27840
2375.75581	0.27909
2373.82744	0.27985
2371.89906	0.28081
2369.97069	0.28165
2368.04232	0.28203
2366.11394	0.28241
2364.18557	0.28335
2362.25720	0.28473
2360.32882	0.28633
2358.40045	0.28837
2356.47208	0.29070
2354.54370	0.29286
2352.61533	0.29491
2350.68696	0.29649
2348.75858	0.29701
2346.83021	0.29659
2344.90184	0.29600
2342.97346	0.29607
2341.04509	0.29652
2339.11672	0.29716
2337.18834	0.29840
2335.25997	0.29955
2333.33160	0.29987
2331.40322	0.30000
2329.47485	0.30072
2327.54648	0.30183
2325.61810	0.30292
2323.68973	0.30403
2321.76136	0.30560
2319.83298	0.30786
2317.90461	0.31049
2315.97624	0.31338
2314.04787	0.31666
2312.11949	0.32019
2310.19112	0.32364
2308.26275	0.32688
2306.33437	0.33002
2304.40600	0.33309
2302.47763	0.33593
2300.54925	0.33850
2298.62088	0.34086
2296.69251	0.34293
2294.76413	0.34462
2292.83576	0.34607
2290.90739	0.34745
2288.97901	0.34873
2287.05064	0.34978
2285.12227	0.35058
2283.19389	0.35119
2281.26552	0.35163
2279.33715	0.35179
2277.40877	0.35158
2275.48040	0.35114
2273.55203	0.35084
2271.62365	0.35068
2269.69528	0.35047
2267.76691	0.35024
2265.83853	0.35007
2263.91016	0.35000
2261.98179	0.35012
2260.05342	0.35049
2258.12504	0.35121
2256.19667	0.35223
2254.26830	0.35342
2252.33992	0.35478
2250.41155	0.35626
2248.48318	0.35780
2246.55480	0.35945
2244.62643	0.36115
2242.69806	0.36268
2240.76968	0.36388
2238.84131	0.36478
2236.91294	0.36548
2234.98456	0.36590
2233.05619	0.36610
2231.12782	0.36634
2229.19944	0.36658
2227.27107	0.36664
2225.34270	0.36654
2223.41432	0.36632
2221.48595	0.36587
2219.55758	0.36517
2217.62920	0.36429
2215.70083	0.36330
2213.77246	0.36223
2211.84408	0.36116
2209.91571	0.36018
2207.98734	0.35911
2206.05896	0.35788
2204.13059	0.35657
2202.20222	0.35524
2200.27385	0.35383
2198.34547	0.35228
2196.41710	0.35067
2194.48873	0.34906
2192.56035	0.34749
2190.63198	0.34606
2188.70361	0.34476
2186.77523	0.34351
2184.84686	0.34238
2182.91849	0.34143
2180.99011	0.34054
2179.06174	0.33955
2177.13337	0.33845
2175.20499	0.33729
2173.27662	0.33617
2171.34825	0.33510
2169.41987	0.33395
2167.49150	0.33278
2165.56313	0.33180
2163.63475	0.33100
2161.70638	0.33028
2159.77801	0.32967
2157.84963	0.32918
2155.92126	0.32874
2153.99289	0.32837
2152.06451	0.32817
2150.13614	0.32817
2148.20777	0.32829
2146.27940	0.32838
2144.35102	0.32849
2142.42265	0.32867
2140.49428	0.32880
2138.56590	0.32878
2136.63753	0.32867
2134.70916	0.32854
2132.78078	0.32842
2130.85241	0.32842
2128.92404	0.32859
2126.99566	0.32896
2125.06729	0.32961
2123.13892	0.33052
2121.21054	0.33158
2119.28217	0.33276
2117.35380	0.33404
2115.42542	0.33537
2113.49705	0.33668
2111.56868	0.33792
2109.64030	0.33902
2107.71193	0.33984
2105.78356	0.34046
2103.85518	0.34106
2101.92681	0.34164
2099.99844	0.34206
2098.07006	0.34232
2096.14169	0.34242
2094.21332	0.34234
2092.28494	0.34211
2090.35657	0.34183
2088.42820	0.34154
2086.49983	0.34126
2084.57145	0.34091
2082.64308	0.34033
2080.71471	0.33958
2078.78633	0.33887
2076.85796	0.33830
2074.92959	0.33786
2073.00121	0.33754
2071.07284	0.33738
2069.14447	0.33747
2067.21609	0.33784
2065.28772	0.33849
2063.35935	0.33943
2061.43097	0.34070
2059.50260	0.34240
2057.57423	0.34446
2055.64585	0.34661
2053.71748	0.34877
2051.78911	0.35097
2049.86073	0.35317
2047.93236	0.35532
2046.00399	0.35738
2044.07561	0.35928
2042.14724	0.36098
2040.21887	0.36243
2038.29049	0.36355
2036.36212	0.36437
2034.43375	0.36503
2032.50538	0.36558
2030.57700	0.36600
2028.64863	0.36628
2026.72026	0.36645
2024.79188	0.36657
2022.86351	0.36668
2020.93514	0.36691
2019.00676	0.36736
2017.07839	0.36806
2015.15002	0.36895
2013.22164	0.37000
2011.29327	0.37117
2009.36490	0.37246
2007.43652	0.37390
2005.50815	0.37538
2003.57978	0.37669
2001.65140	0.37782
1999.72303	0.37888
1997.79466	0.37982
1995.86628	0.38054
1993.93791	0.38109
1992.00954	0.38148
1990.08116	0.38165
1988.15279	0.38164
1986.22442	0.38156
1984.29604	0.38147
1982.36767	0.38136
1980.43930	0.38118
1978.51092	0.38100
1976.58255	0.38096
1974.65418	0.38105
1972.72581	0.38123
1970.79743	0.38146
1968.86906	0.38178
1966.94069	0.38219
1965.01231	0.38258
1963.08394	0.38288
1961.15557	0.38328
1959.22719	0.38392
1957.29882	0.38475
1955.37045	0.38585
1953.44207	0.38728
1951.51370	0.38889
1949.58533	0.39049
1947.65695	0.39216
1945.72858	0.39386
1943.80021	0.39558
1941.87183	0.39728
1939.94346	0.39872
1938.01509	0.39985
1936.08671	0.40080
1934.15834	0.40161
1932.22997	0.40233
1930.30159	0.40292
1928.37322	0.40325
1926.44485	0.40340
1924.51647	0.40354
1922.58810	0.40359
1920.65973	0.40342
1918.73135	0.40321
1916.80298	0.40295
1914.87461	0.40244
1912.94624	0.40192
1911.01786	0.40145
1909.08949	0.40066
1907.16112	0.39945
1905.23274	0.39797
1903.30437	0.39631
1901.37600	0.39450
1899.44762	0.39263
1897.51925	0.39082
1895.59088	0.38911
1893.66250	0.38756
1891.73413	0.38620
1889.80576	0.38508
1887.87738	0.38412
1885.94901	0.38339
1884.02064	0.38303
1882.09226	0.38296
1880.16389	0.38306
1878.23552	0.38332
1876.30714	0.38370
1874.37877	0.38406
1872.45040	0.38434
1870.52202	0.38458
1868.59365	0.38459
1866.66528	0.38403
1864.73690	0.38289
1862.80853	0.38148
1860.88016	0.37997
1858.95179	0.37838
1857.02341	0.37660
1855.09504	0.37459
1853.16667	0.37248
1851.23829	0.37028
1849.30992	0.36800
1847.38155	0.36581
1845.45317	0.36363
1843.52480	0.36105
1841.59643	0.35814
1839.66805	0.35540
1837.73968	0.35285
1835.81131	0.35024
1833.88293	0.34743
1831.95456	0.34461
1830.02619	0.34167
1828.09781	0.33836
1826.16944	0.33488
1824.24107	0.33109
1822.31269	0.32704
1820.38432	0.32286
1818.45595	0.31848
1816.52757	0.31384
1814.59920	0.30903
1812.67083	0.30411
1810.74245	0.29885
1808.81408	0.29327
1806.88571	0.28758
1804.95733	0.28184
1803.02896	0.27581
1801.10059	0.26920
1799.17222	0.26207
1797.24384	0.25479
1795.31547	0.24753
1793.38710	0.23959
1791.45872	0.23047
1789.53035	0.22163
1787.60198	0.21360
1785.67360	0.20537
1783.74523	0.19677
1781.81686	0.18832
1779.88848	0.17992
1777.96011	0.17175
1776.03174	0.16417
1774.10336	0.15657
1772.17499	0.14785
1770.24662	0.13884
1768.31824	0.13059
1766.38987	0.12250
1764.46150	0.11460
1762.53312	0.10606
1760.60475	0.09650
1758.67638	0.08706
1756.74800	0.07722
1754.81963	0.06740
1752.89126	0.05816
1750.96288	0.04818
1749.03451	0.03773
1747.10614	0.02858
1745.17777	0.02095
1743.24939	0.01470
1741.32102	0.00965
1739.39265	0.00552
1737.46427	0.00275
1735.53590	0.00114
1733.60753	0.00090
1731.67915	0.00104
1729.75078	0.00094
1727.82241	0.00090
1725.89403	0.00095
1723.96566	0.00091
1722.03729	0.00092
1720.10891	0.00105
1718.18054	0.00116
1716.25217	0.00114
1714.32379	0.00104
1712.39542	0.00099
1710.46705	0.00096
1708.53867	0.00099
1706.61030	0.00103
1704.68193	0.00102
1702.75355	0.00098
1700.82518	0.00097
1698.89681	0.00120
1696.96843	0.00146
1695.04006	0.00147
1693.11169	0.00125
1691.18331	0.00108
1689.25494	0.00107
1687.32657	0.00121
1685.39820	0.00141
1683.46982	0.00137
1681.54145	0.00121
1679.61308	0.00119
1677.68470	0.00123
1675.75633	0.00131
1673.82796	0.00134
1671.89958	0.00135
1669.97121	0.00141
1668.04284	0.00126
1666.11446	0.00094
1664.18609	0.00082
1662.25772	0.00095
1660.32934	0.00103
1658.40097	0.00106
1656.47260	0.00128
1654.54422	0.00176
1652.61585	0.00191
1650.68748	0.00140
1648.75910	0.00110
1646.83073	0.00119
1644.90236	0.00129
1642.97398	0.00122
1641.04561	0.00121
1639.11724	0.00130
1637.18886	0.00148
1635.26049	0.00148
1633.33212	0.00123
1631.40375	0.00109
1629.47537	0.00100
1627.54700	0.00091
1625.61863	0.00092
1623.69025	0.00104
1621.76188	0.00110
1619.83351	0.00116
1617.90513	0.00134
1615.97676	0.00144
1614.04839	0.00136
1612.12001	0.00124
1610.19164	0.00116
1608.26327	0.00114
1606.33489	0.00120
1604.40652	0.00126
1602.47815	0.00126
1600.54977	0.00117
1598.62140	0.00109
1596.69303	0.00113
1594.76465	0.00122
1592.83628	0.00126
1590.90791	0.00118
1588.97953	0.00109
1587.05116	0.00109
1585.12279	0.00110
1583.19441	0.00105
1581.26604	0.00101
1579.33767	0.00106
1577.40929	0.00120
1575.48092	0.00124
1573.55255	0.00115
1571.62418	0.00110
1569.69580	0.00112
1567.76743	0.00114
1565.83906	0.00117
1563.91068	0.00128
1561.98231	0.00148
1560.05394	0.00173
1558.12556	0.00181
1556.19719	0.00161
1554.26882	0.00140
1552.34044	0.00125
1550.41207	0.00116
1548.48370	0.00113
1546.55532	0.00117
1544.62695	0.00127
1542.69858	0.00141
1540.77020	0.00155
1538.84183	0.00155
1536.91346	0.00144
1534.98508	0.00144
1533.05671	0.00149
1531.12834	0.00147
1529.19996	0.00145
1527.27159	0.00143
1525.34322	0.00134
1523.41484	0.00139
1521.48647	0.00163
1519.55810	0.00167
1517.62972	0.00153
1515.70135	0.00144
1513.77298	0.00148
1511.84461	0.00166
1509.91623	0.00195
1507.98786	0.00232
1506.05949	0.00238
1504.13111	0.00190
1502.20274	0.00150
1500.27437	0.00136
1498.34599	0.00138
1496.41762	0.00141
1494.48925	0.00143
1492.56087	0.00148
1490.63250	0.00149
1488.70413	0.00138
1486.77575	0.00132
1484.84738	0.00137
1482.91901	0.00146
1480.99063	0.00148
1479.06226	0.00146
1477.13389	0.00152
1475.20551	0.00161
1473.27714	0.00175
1471.34877	0.00192
1469.42039	0.00207
1467.49202	0.00214
1465.56365	0.00212
1463.63527	0.00195
1461.70690	0.00171
1459.77853	0.00168
1457.85016	0.00199
1455.92178	0.00220
1453.99341	0.00202
1452.06504	0.00185
1450.13666	0.00184
1448.20829	0.00185
1446.27992	0.00175
1444.35154	0.00169
1442.42317	0.00174
1440.49480	0.00177
1438.56642	0.00183
1436.63805	0.00198
1434.70968	0.00205
1432.78130	0.00203
1430.85293	0.00200
1428.92456	0.00196
1426.99618	0.00186
1425.06781	0.00180
1423.13944	0.00195
1421.21106	0.00219
1419.28269	0.00222
1417.35432	0.00194
1415.42594	0.00172
1413.49757	0.00168
1411.56920	0.00174
1409.64082	0.00190
1407.71245	0.00210
1405.78408	0.00220
1403.85570	0.00209
1401.92733	0.00196
1399.99896	0.00204
1398.07059	0.00220
1396.14221	0.00225
1394.21384	0.00208
1392.28547	0.00184
1390.35709	0.00179
1388.42872	0.00205
1386.50035	0.00241
1384.57197	0.00254
1382.64360	0.00246
1380.71523	0.00235
1378.78685	0.00228
1376.85848	0.00229
1374.93011	0.00229
1373.00173	0.00227
1371.07336	0.00224
1369.14499	0.00223
1367.21661	0.00225
1365.28824	0.00236
1363.35987	0.00242
1361.43149	0.00237
1359.50312	0.00233
1357.57475	0.00238
1355.64637	0.00244
1353.71800	0.00244
1351.78963	0.00237
1349.86125	0.00226
1347.93288	0.00214
1346.00451	0.00203
1344.07614	0.00205
1342.14776	0.00221
1340.21939	0.00236
1338.29102	0.00238
1336.36264	0.00225
1334.43427	0.00216
1332.50590	0.00220
1330.57752	0.00223
1328.64915	0.00214
1326.72078	0.00213
1324.79240	0.00231
1322.86403	0.00249
1320.93566	0.00253
1319.00728	0.00247
1317.07891	0.00238
1315.15054	0.00227
1313.22216	0.00237
1311.29379	0.00261
1309.36542	0.00272
1307.43704	0.00268
1305.50867	0.00259
1303.58030	0.00249
1301.65192	0.00238
1299.72355	0.00235
1297.79518	0.00243
1295.86680	0.00245
1293.93843	0.00240
1292.01006	0.00248
1290.08168	0.00266
1288.15331	0.00288
1286.22494	0.00305
1284.29657	0.00301
1282.36819	0.00288
1280.43982	0.00293
1278.51145	0.00308
1276.58307	0.00318
1274.65470	0.00327
1272.72633	0.00333
1270.79795	0.00328
1268.86958	0.00332
1266.94121	0.00350
1265.01283	0.00356
1263.08446	0.00350
1261.15609	0.00339
1259.22771	0.00310
1257.29934	0.00284
1255.37097	0.00293
1253.44259	0.00312
1251.51422	0.00312
1249.58585	0.00311
1247.65747	0.00327
1245.72910	0.00337
1243.80073	0.00339
1241.87235	0.00361
1239.94398	0.00394
1238.01561	0.00407
1236.08723	0.00398
1234.15886	0.00392
1232.23049	0.00407
1230.30212	0.00424
1228.37374	0.00439
1226.44537	0.00467
1224.51700	0.00497
1222.58862	0.00506
1220.66025	0.00511
1218.73188	0.00524
1216.80350	0.00521
1214.87513	0.00502
1212.94676	0.00502
1211.01838	0.00514
1209.09001	0.00510
1207.16164	0.00509
1205.23326	0.00520
1203.30489	0.00530
1201.37652	0.00539
1199.44814	0.00534
1197.51977	0.00503
1195.59140	0.00475
1193.66302	0.00469
1191.73465	0.00480
1189.80628	0.00486
1187.87790	0.00473
1185.94953	0.00452
1184.02116	0.00449
1182.09278	0.00466
1180.16441	0.00492
1178.23604	0.00517
1176.30766	0.00537
1174.37929	0.00537
1172.45092	0.00512
1170.52255	0.00491
1168.59417	0.00494
1166.66580	0.00522
1164.73743	0.00550
1162.80905	0.00564
1160.88068	0.00562
1158.95231	0.00539
1157.02393	0.00523
1155.09556	0.00538
1153.16719	0.00544
1151.23881	0.00521
1149.31044	0.00505
1147.38207	0.00506
1145.45369	0.00504
1143.52532	0.00499
1141.59695	0.00493
1139.66857	0.00490
1137.74020	0.00502
1135.81183	0.00524
1133.88345	0.00534
1131.95508	0.00530
1130.02671	0.00518
1128.09833	0.00512
1126.16996	0.00535
1124.24159	0.00583
1122.31321	0.00619
1120.38484	0.00615
1118.45647	0.00582
1116.52809	0.00563
1114.59972	0.00591
1112.67135	0.00640
1110.74298	0.00640
1108.81460	0.00593
1106.88623	0.00557
1104.95786	0.00551
1103.02948	0.00562
1101.10111	0.00564
1099.17274	0.00540
1097.24436	0.00519
1095.31599	0.00515
1093.38762	0.00521
1091.45924	0.00528
1089.53087	0.00524
1087.60250	0.00519
1085.67412	0.00534
1083.74575	0.00557
1081.81738	0.00566
1079.88900	0.00569
1077.96063	0.00579
1076.03226	0.00590
1074.10388	0.00593
1072.17551	0.00583
1070.24714	0.00584
1068.31876	0.00617
1066.39039	0.00640
1064.46202	0.00621
1062.53364	0.00610
1060.60527	0.00629
1058.67690	0.00642
1056.74853	0.00628
1054.82015	0.00591
1052.89178	0.00559
1050.96341	0.00562
1049.03503	0.00586
1047.10666	0.00595
1045.17829	0.00563
1043.24991	0.00521
1041.32154	0.00525
1039.39317	0.00566
1037.46479	0.00591
1035.53642	0.00591
1033.60805	0.00581
1031.67967	0.00560
1029.75130	0.00525
1027.82293	0.00495
1025.89455	0.00492
1023.96618	0.00500
1022.03781	0.00503
1020.10943	0.00507
1018.18106	0.00518
1016.25269	0.00527
1014.32431	0.00531
1012.39594	0.00519
1010.46757	0.00488
1008.53919	0.00459
1006.61082	0.00455
1004.68245	0.00464
1002.75407	0.00457
1000.82570	0.00446
998.89733	0.00447
996.96896	0.00449
995.04058	0.00453
993.11221	0.00471
991.18384	0.00472
989.25546	0.00440
987.32709	0.00407
985.39872	0.00391
983.47034	0.00387
981.54197	0.00395
979.61360	0.00415
977.68522	0.00441
975.75685	0.00467
973.82848	0.00472
971.90010	0.00466
969.97173	0.00477
968.04336	0.00494
966.11498	0.00502
964.18661	0.00488
962.25824	0.00457
960.32986	0.00440
958.40149	0.00456
956.47312	0.00483
954.54474	0.00501
952.61637	0.00505
950.68800	0.00504
948.75962	0.00508
946.83125	0.00527
944.90288	0.00547
942.97451	0.00547
941.04613	0.00541
939.11776	0.00554
937.18939	0.00597
935.26101	0.00698
933.33264	0.00840
931.40427	0.00958
929.47589	0.01021
927.54752	0.01040
925.61915	0.01040
923.69077	0.01019
921.76240	0.01005
919.83403	0.01066
917.90565	0.01202
915.97728	0.01345
914.04891	0.01445
912.12053	0.01493
910.19216	0.01469
908.26379	0.01337
906.33541	0.01131
904.40704	0.00954
902.47867	0.00845
900.55029	0.00775
898.62192	0.00736
896.69355	0.00748
894.76517	0.00800
892.83680	0.00854
890.90843	0.00906
888.98005	0.00973
887.05168	0.01019
885.12331	0.01026
883.19494	0.01094
881.26656	0.01325
879.33819	0.01652
877.40982	0.01917
875.48144	0.02079
873.55307	0.02184
871.62470	0.02235
869.69632	0.02252
867.76795	0.02264
865.83958	0.02246
863.91120	0.02177
861.98283	0.02087
860.05446	0.01991
858.12608	0.01877
856.19771	0.01746
854.26934	0.01597
852.34096	0.01459
850.41259	0.01382
848.48422	0.01352
846.55584	0.01325
844.62747	0.01290
842.69910	0.01251
840.77072	0.01209
838.84235	0.01173
836.91398	0.01141
834.98560	0.01118
833.05723	0.01118
831.12886	0.01130
829.20049	0.01112
827.27211	0.01084
825.34374	0.01104
823.41537	0.01143
821.48699	0.01151
819.55862	0.01128
817.63025	0.01103
815.70187	0.01098
813.77350	0.01100
811.84513	0.01074
809.91675	0.01032
807.98838	0.01039
806.06001	0.01082
804.13163	0.01078
802.20326	0.01018
800.27489	0.00947
798.34651	0.00886
796.41814	0.00865
794.48977	0.00870
792.56139	0.00868
790.63302	0.00863
788.70465	0.00880
786.77627	0.00937
784.84790	0.00982
782.91953	0.00954
780.99115	0.00882
779.06278	0.00837
777.13441	0.00830
775.20603	0.00830
773.27766	0.00825
771.34929	0.00840
769.42092	0.00890
767.49254	0.00937
765.56417	0.00965
763.63580	0.00984
761.70742	0.00971
759.77905	0.00923
757.85068	0.00868
755.92230	0.00832
753.99393	0.00829
752.06556	0.00852
750.13718	0.00895
748.20881	0.00957
746.28044	0.00949
744.35206	0.00847
742.42369	0.00799
740.49532	0.00852
738.56694	0.00912
736.63857	0.00941
734.71020	0.00935
732.78182	0.00892
730.85345	0.00840
728.92508	0.00828
726.99670	0.00883
725.06833	0.00944
723.13996	0.00948
721.21158	0.00923
719.28321	0.00922
717.35484	0.00941
715.42647	0.00953
713.49809	0.00973
711.56972	0.01024
709.64135	0.01083
707.71297	0.01102
705.78460	0.01082
703.85623	0.01080
701.92785	0.01096
699.99948	0.01086
698.07111	0.01071
696.14273	0.01078
694.21436	0.01130
692.28599	0.01216
690.35761	0.01262
688.42924	0.01270
686.50087	0.01315
684.57249	0.01388
682.64412	0.01463
680.71575	0.01524
678.78737	0.01525
676.85900	0.01493
674.93063	0.01510
673.00225	0.01573
671.07388	0.01715
669.14551	0.02073
667.21713	0.02241
665.28876	0.01963
663.36039	0.01751
661.43201	0.01674
659.50364	0.01675
657.57527	0.01795
655.64690	0.01943
653.71852	0.01929
651.79015	0.01809
649.86178	0.01792
647.93340	0.01897
646.00503	0.01979
644.07666	0.02011
642.14828	0.02097
640.21991	0.02205
638.29154	0.02210
636.36316	0.02165
634.43479	0.02174
632.50642	0.02216
630.57804	0.02293
628.64967	0.02414
626.72130	0.02522
624.79292	0.02572
622.86455	0.02532
620.93618	0.02524
619.00780	0.02698
617.07943	0.02948
615.15106	0.03138
613.22268	0.03339
611.29431	0.03571
609.36594	0.03659
607.43756	0.03605
605.50919	0.03552
603.58082	0.03585
601.65244	0.03827
599.72407	0.04296
